date,realized_points,open_unrealized_points,total_equity_points,open_units,direction
2019-05-05,0.0,0.0,0.0,0,
2019-05-06,0.0,0.0,0.0,0,
2019-05-07,0.0,0.0,0.0,0,
2019-05-08,0.0,0.0,0.0,0,
2019-05-09,0.0,0.0,0.0,0,
2019-05-10,0.0,0.0,0.0,0,
2019-05-12,0.0,0.0,0.0,0,
2019-05-13,0.0,211.25,211.25,1,Short
2019-05-14,0.0,84.75,84.75,1,Short
2019-05-15,0.0,0.0,0.0,1,Short
2019-05-16,0.0,-89.75,-89.75,1,Short
2019-05-17,0.0,6.0,6.0,1,Short
2019-05-19,0.0,-23.75,-23.75,1,Short
2019-05-20,0.0,102.75,102.75,1,Short
2019-05-21,0.0,47.25,47.25,1,Short
2019-05-22,0.0,100.25,100.25,1,Short
2019-05-23,0.0,194.5,194.5,1,Short
2019-05-24,0.0,208.0,208.0,2,Short
2019-05-26,0.0,210.5,210.5,2,Short
2019-05-27,0.0,185.5,185.5,2,Short
2019-05-28,0.0,255.0,255.0,2,Short
2019-05-29,0.0,389.5,389.5,2,Short
2019-05-30,0.0,457.0,457.0,2,Short
2019-05-31,0.0,559.5,559.5,2,Short
2019-06-02,0.0,667.5,667.5,2,Short
2019-06-03,0.0,828.5,828.5,2,Short
2019-06-04,0.0,424.5,424.5,2,Short
2019-06-05,0.0,407.5,407.5,2,Short
2019-06-06,0.0,280.5,280.5,2,Short
2019-06-07,0.0,-25.5,-25.5,2,Short
2019-06-09,-90.5,-5.25,-95.75,1,Long
2019-06-10,-90.5,46.5,-44.0,1,Long
2019-06-11,-90.5,53.0,-37.5,1,Long
2019-06-12,-90.5,28.75,-61.75,1,Long
2019-06-13,-90.5,34.5,-56.0,1,Long
2019-06-14,-90.5,23.0,-67.5,1,Long
2019-06-16,-90.5,65.0,-25.5,1,Long
2019-06-17,-90.5,101.75,11.25,1,Long
2019-06-18,-90.5,224.0,133.5,1,Long
2019-06-19,-90.5,266.25,175.75,1,Long
2019-06-20,-90.5,302.75,212.25,1,Long
2019-06-21,-90.5,263.0,172.5,2,Long
2019-06-23,-90.5,310.5,220.0,2,Long
2019-06-24,-90.5,288.0,197.5,2,Long
2019-06-25,-90.5,22.5,-68.0,2,Long
2019-06-26,-90.5,77.5,-13.0,2,Long
2019-06-27,-90.5,161.5,71.0,2,Long
2019-06-28,-90.5,218.0,127.5,2,Long
2019-06-30,-90.5,375.0,284.5,2,Long
2019-07-01,-90.5,325.0,234.5,2,Long
2019-07-02,-90.5,441.0,350.5,2,Long
2019-07-03,-90.5,550.0,459.5,2,Long
2019-07-04,-90.5,578.5,488.0,2,Long
2019-07-05,-90.5,469.0,378.5,3,Long
2019-07-07,-90.5,433.0,342.5,3,Long
2019-07-08,-90.5,286.75,196.25,3,Long
2019-07-09,-90.5,445.75,355.25,3,Long
2019-07-10,-90.5,686.5,596.0,3,Long
2019-07-11,-90.5,670.0,579.5,3,Long
2019-07-12,-90.5,778.75,688.25,3,Long
2019-07-14,-90.5,760.75,670.25,3,Long
2019-07-15,-90.5,888.25,797.75,3,Long
2019-07-16,-90.5,729.25,638.75,3,Long
2019-07-17,-90.5,523.75,433.25,3,Long
2019-07-18,-90.5,742.0,651.5,3,Long
2019-07-19,-90.5,319.75,229.25,4,Long
2019-07-21,-90.5,447.75,357.25,4,Long
2019-07-22,-90.5,758.75,668.25,4,Long
2019-07-23,-90.5,857.75,767.25,4,Long
2019-07-24,-90.5,1110.75,1020.25,4,Long
2019-07-25,-90.5,1014.75,924.25,4,Long
2019-07-26,-90.5,1103.75,1013.25,4,Long
2019-07-28,-90.5,1115.75,1025.25,4,Long
2019-07-29,-90.5,1083.75,993.25,4,Long
2019-07-30,-90.5,1001.75,911.25,4,Long
2019-07-31,-90.5,393.75,303.25,4,Long
2019-08-01,-90.5,186.75,96.25,4,Long
2019-08-02,-90.5,-123.25,-213.75,4,Long
2019-08-04,-222.75,24.0,-198.75,1,Short
2019-08-05,-222.75,462.5,239.75,1,Short
2019-08-06,-222.75,204.25,-18.5,1,Short
2019-08-07,-222.75,168.0,-54.75,1,Short
2019-08-08,-222.75,-8.75,-231.5,1,Short
2019-08-09,-222.75,36.75,-186.0,1,Short
2019-08-11,-222.75,64.25,-158.5,1,Short
2019-08-12,-222.75,123.0,-99.75,1,Short
2019-08-13,-222.75,-48.25,-271.0,1,Short
2019-08-14,-222.75,202.0,-20.75,1,Short
2019-08-15,-222.75,191.0,-31.75,1,Short
2019-08-16,-222.75,95.75,-127.0,2,Short
2019-08-18,-222.75,18.25,-204.5,2,Short
2019-08-19,-222.75,-102.25,-325.0,2,Short
2019-08-20,-222.75,-23.25,-246.0,2,Short
2019-08-21,-222.75,-218.25,-441.0,2,Short
2019-08-22,-222.75,-103.75,-326.5,2,Short
2019-08-23,-222.75,334.75,112.0,2,Short
2019-08-25,-222.75,500.75,278.0,2,Short
2019-08-26,-222.75,174.75,-48.0,2,Short
2019-08-27,-222.75,145.25,-77.5,2,Short
2019-08-28,-222.75,155.75,-67.0,2,Short
2019-08-29,-222.75,-78.25,-301.0,2,Short
2019-08-30,-222.75,-30.25,-253.0,3,Short
2019-09-01,-222.75,107.75,-115.0,3,Short
2019-09-02,-222.75,122.0,-100.75,3,Short
2019-09-03,-222.75,161.75,-61.0,3,Short
2019-09-04,-222.75,-172.0,-394.75,3,Short
2019-09-05,-222.75,-622.0,-844.75,3,Short
2019-09-06,-846.25,-8.0,-854.25,1,Long
2019-09-08,-846.25,-9.25,-855.5,1,Long
2019-09-09,-846.25,-30.25,-876.5,1,Long
2019-09-10,-846.25,-62.25,-908.5,1,Long
2019-09-11,-846.25,78.75,-767.5,1,Long
2019-09-12,-846.25,60.25,-786.0,1,Long
2019-09-13,-846.25,38.25,-808.0,1,Long
2019-09-15,-846.25,-33.75,-880.0,1,Long
2019-09-16,-846.25,12.0,-834.25,1,Long
2019-09-17,-846.25,38.25,-808.0,1,Long
2019-09-18,-846.25,33.0,-813.25,1,Long
2019-09-19,-846.25,54.0,-792.25,1,Long
2019-09-20,-846.25,-49.25,-895.5,2,Long
2019-09-22,-846.25,39.25,-807.0,2,Long
2019-09-23,-846.25,56.75,-789.5,2,Long
2019-09-24,-846.25,-208.25,-1054.5,2,Long
2019-09-25,-846.25,-81.25,-927.5,2,Long
2019-09-26,-846.25,-159.25,-1005.5,2,Long
2019-09-27,-846.25,-282.75,-1129.0,2,Long
2019-09-29,-846.25,-267.25,-1113.5,2,Long
2019-09-30,-846.25,-151.25,-997.5,2,Long
2019-10-01,-846.25,-269.75,-1116.0,2,Long
2019-10-02,-846.25,-595.75,-1442.0,2,Long
2019-10-03,-1441.0,-84.25,-1525.25,1,Short
2019-10-04,-1441.0,-207.25,-1648.25,1,Short
2019-10-06,-1441.0,-178.5,-1619.5,1,Short
2019-10-07,-1441.0,-183.25,-1624.25,1,Short
2019-10-08,-1441.0,-57.25,-1498.25,1,Short
2019-10-09,-1441.0,-76.5,-1517.5,1,Short
2019-10-10,-1441.0,-223.5,-1664.5,1,Short
2019-10-11,-1441.0,-283.75,-1724.75,2,Short
2019-10-13,-1441.0,-350.75,-1791.75,2,Short
2019-10-14,-1441.0,-321.25,-1762.25,2,Short
2019-10-15,-1441.0,-468.75,-1909.75,2,Short
2019-10-16,-1441.0,-444.25,-1885.25,2,Short
2019-10-17,-1441.0,-461.75,-1902.75,2,Short
2019-10-18,-1441.0,-334.75,-1775.75,2,Short
2019-10-20,-1441.0,-354.25,-1795.25,2,Short
2019-10-21,-1441.0,-457.25,-1898.25,2,Short
2019-10-22,-1441.0,-254.75,-1695.75,2,Short
2019-10-23,-1441.0,-415.75,-1856.75,2,Short
2019-10-24,-1441.0,-414.25,-1855.25,2,Short
2019-10-25,-1441.0,-642.75,-2083.75,2,Short
2019-10-27,-2102.75,9.0,-2093.75,1,Long
2019-10-28,-2102.75,64.75,-2038.0,1,Long
2019-10-29,-2102.75,11.0,-2091.75,1,Long
2019-10-30,-2102.75,75.25,-2027.5,1,Long
2019-10-31,-2102.75,41.5,-2061.25,1,Long
2019-11-01,-2102.75,115.0,-1987.75,1,Long
2019-11-03,-2102.75,128.75,-1974.0,1,Long
2019-11-04,-2102.75,191.75,-1911.0,1,Long
2019-11-05,-2102.75,165.25,-1937.5,1,Long
2019-11-06,-2102.75,155.25,-1947.5,1,Long
2019-11-07,-2102.75,189.25,-1913.5,1,Long
2019-11-08,-2102.75,224.0,-1878.75,2,Long
2019-11-10,-2102.75,208.5,-1894.25,2,Long
2019-11-11,-2102.75,192.0,-1910.75,2,Long
2019-11-12,-2102.75,233.0,-1869.75,2,Long
2019-11-13,-2102.75,232.5,-1870.25,2,Long
2019-11-14,-2102.75,247.0,-1855.75,2,Long
2019-11-15,-2102.75,351.5,-1751.25,2,Long
2019-11-17,-2102.75,324.5,-1778.25,2,Long
2019-11-18,-2102.75,359.5,-1743.25,2,Long
2019-11-19,-2102.75,339.5,-1763.25,2,Long
2019-11-20,-2102.75,244.5,-1858.25,2,Long
2019-11-21,-2102.75,244.0,-1858.75,2,Long
2019-11-22,-2102.75,283.75,-1819.0,3,Long
2019-11-24,-2102.75,358.0,-1744.75,3,Long
2019-11-25,-2102.75,564.25,-1538.5,3,Long
2019-11-26,-2102.75,642.25,-1460.5,3,Long
2019-11-27,-2102.75,714.25,-1388.5,3,Long
2019-11-28,-2102.75,785.5,-1317.25,3,Long
2019-11-29,-2102.75,701.5,-1401.25,3,Long
2019-12-01,-2102.75,730.75,-1372.0,3,Long
2019-12-02,-2102.75,350.5,-1752.25,3,Long
2019-12-03,-2102.75,223.0,-1879.75,3,Long
2019-12-04,-2102.75,310.0,-1792.75,3,Long
2019-12-05,-2102.75,382.0,-1720.75,3,Long
2019-12-06,-2102.75,648.25,-1454.5,4,Long
2019-12-08,-2102.75,653.25,-1449.5,4,Long
2019-12-09,-2102.75,468.25,-1634.5,4,Long
2019-12-10,-2102.75,479.25,-1623.5,4,Long
2019-12-11,-2102.75,694.25,-1408.5,4,Long
2019-12-12,-2102.75,1043.25,-1059.5,4,Long
2019-12-13,-2102.75,1124.25,-978.5,4,Long
2019-12-15,-2102.75,1177.25,-925.5,4,Long
2019-12-16,-2102.75,1430.25,-672.5,4,Long
2019-12-17,-2102.75,1448.25,-654.5,4,Long
2019-12-18,-2102.75,1523.25,-579.5,4,Long
2019-12-19,-2102.75,1755.25,-347.5,4,Long
2019-12-20,-2102.75,1888.0,-214.75,5,Long
2019-12-22,-2102.75,1948.0,-154.75,5,Long
2019-12-23,-2102.75,1983.0,-119.75,5,Long
2019-12-24,-2102.75,1986.75,-116.0,5,Long
2019-12-25,-2102.75,1988.0,-114.75,5,Long
2019-12-26,-2102.75,2376.75,274.0,5,Long
2019-12-27,-2102.75,2230.5,127.75,5,Long
2019-12-29,-2102.75,2325.5,222.75,5,Long
2019-12-30,-2102.75,2011.75,-91.0,5,Long
2019-12-31,-2102.75,2194.25,91.5,5,Long
2020-01-01,-2102.75,2216.75,114.0,5,Long
2020-01-02,-2102.75,2830.5,727.75,5,Long
2020-01-03,-2102.75,2388.0,285.25,5,Long
2020-01-05,-2102.75,2226.75,124.0,5,Long
2020-01-06,-2102.75,2581.75,479.0,5,Long
2020-01-07,-2102.75,2096.75,-6.0,5,Long
2020-01-08,-2102.75,3096.75,994.0,5,Long
2020-01-09,-2102.75,3414.25,1311.5,5,Long
2020-01-10,-2102.75,3228.0,1125.25,5,Long
2020-01-12,-2102.75,3274.25,1171.5,5,Long
2020-01-13,-2102.75,3861.75,1759.0,5,Long
2020-01-14,-2102.75,3491.75,1389.0,5,Long
2020-01-15,-2102.75,3708.0,1605.25,5,Long
2020-01-16,-2102.75,4065.5,1962.75,5,Long
2020-01-17,-2102.75,4193.0,2090.25,5,Long
2020-01-19,-2102.75,4260.5,2157.75,5,Long
2020-01-20,-2102.75,4186.75,2084.0,5,Long
2020-01-21,-2102.75,4228.0,2125.25,5,Long
2020-01-22,-2102.75,4249.25,2146.5,5,Long
2020-01-23,-2102.75,4686.75,2584.0,5,Long
2020-01-24,-2102.75,4023.0,1920.25,5,Long
2020-01-26,-2102.75,3409.25,1306.5,5,Long
2020-01-27,-2102.75,3230.5,1127.75,5,Long
2020-01-28,-2102.75,3836.75,1734.0,5,Long
2020-01-29,-2102.75,3945.5,1842.75,5,Long
2020-01-30,-2102.75,4426.75,2324.0,5,Long
2020-01-31,-2102.75,3399.25,1296.5,5,Long
2020-02-02,-2102.75,3438.0,1335.25,5,Long
2020-02-03,-2102.75,3785.5,1682.75,5,Long
2020-02-04,-2102.75,5026.75,2924.0,5,Long
2020-02-05,-2102.75,5241.75,3139.0,5,Long
2020-02-06,-2102.75,5670.5,3567.75,5,Long
2020-02-07,-2102.75,5336.75,3234.0,5,Long
2020-02-09,-2102.75,5118.0,3015.25,5,Long
2020-02-10,-2102.75,5963.0,3860.25,5,Long
2020-02-11,-2102.75,6043.0,3940.25,5,Long
2020-02-12,-2102.75,6219.25,4116.5,5,Long
2020-02-13,-2102.75,6385.5,4282.75,5,Long
2020-02-14,-2102.75,6490.5,4387.75,5,Long
2020-02-16,-2102.75,6656.75,4554.0,5,Long
2020-02-17,-2102.75,6350.5,4247.75,5,Long
2020-02-18,-2102.75,6658.0,4555.25,5,Long
2020-02-19,-2102.75,7061.75,4959.0,5,Long
2020-02-20,-2102.75,6200.5,4097.75,5,Long
2020-02-21,-2102.75,5618.0,3515.25,5,Long
2020-02-23,-2102.75,4885.5,2782.75,5,Long
2020-02-24,2784.0,169.5,2953.5,1,Short
2020-02-25,2784.0,388.75,3172.75,1,Short
2020-02-26,2784.0,478.0,3262.0,1,Short
2020-02-27,2784.0,896.25,3680.25,1,Short
2020-02-28,2784.0,1039.75,3823.75,1,Short
2020-03-01,2784.0,954.75,3738.75,1,Short
2020-03-02,2784.0,450.5,3234.5,1,Short
2020-03-03,2784.0,747.5,3531.5,1,Short
2020-03-04,2784.0,427.25,3211.25,1,Short
2020-03-05,2784.0,616.0,3400.0,1,Short
2020-03-06,2784.0,774.25,3558.25,2,Short
2020-03-08,2784.0,1551.75,4335.75,2,Short
2020-03-09,2784.0,1563.75,4347.75,2,Short
2020-03-10,2784.0,1359.75,4143.75,2,Short
2020-03-11,2784.0,1791.75,4575.75,2,Short
2020-03-12,2784.0,3548.25,6332.25,2,Short
2020-03-13,2784.0,2166.75,4950.75,2,Short
2020-03-15,2784.0,2699.75,5483.75,2,Short
2020-03-16,2784.0,3506.25,6290.25,2,Short
2020-03-17,2784.0,3428.75,6212.75,2,Short
2020-03-18,2784.0,3058.75,5842.75,2,Short
2020-03-19,2784.0,3386.75,6170.75,2,Short
2020-03-20,2784.0,4003.75,6787.75,3,Short
2020-03-22,2784.0,4737.25,7521.25,3,Short
2020-03-23,2784.0,3541.0,6325.0,3,Short
2020-03-24,2784.0,2303.5,5087.5,3,Short
2020-03-25,2784.0,2355.25,5139.25,3,Short
2020-03-26,2784.0,1161.25,3945.25,3,Short
2020-03-27,2784.0,2114.5,4898.5,3,Short
2020-03-29,2784.0,2395.75,5179.75,3,Short
2020-03-30,2784.0,1167.25,3951.25,3,Short
2020-03-31,2784.0,1656.25,4440.25,3,Short
2020-04-01,2784.0,2272.0,5056.0,3,Short
2020-04-02,2784.0,2017.0,4801.0,3,Short
2020-04-03,2784.0,2190.0,4974.0,4,Short
2020-04-05,2784.0,1670.0,4454.0,4,Short
2020-04-06,2784.0,-36.0,2748.0,4,Short
2020-04-07,2784.0,118.0,2902.0,4,Short
2020-04-08,2784.0,-611.0,2173.0,4,Short
2020-04-09,2164.0,13.25,2177.25,1,Long
2020-04-12,2164.0,-108.25,2055.75,1,Long
2020-04-13,2164.0,139.0,2303.0,1,Long
2020-04-14,2164.0,447.0,2611.0,1,Long
2020-04-15,2164.0,306.25,2470.25,1,Long
2020-04-16,2164.0,706.75,2870.75,1,Long
2020-04-17,2164.0,581.5,2745.5,1,Long
2020-04-19,2164.0,520.5,2684.5,1,Long
2020-04-20,2164.0,503.75,2667.75,1,Long
2020-04-21,2164.0,231.5,2395.5,1,Long
2020-04-22,2164.0,390.0,2554.0,1,Long
2020-04-23,2164.0,325.75,2489.75,1,Long
2020-04-24,2164.0,534.75,2698.75,2,Long
2020-04-26,2164.0,507.25,2671.25,2,Long
2020-04-27,2164.0,647.25,2811.25,2,Long
2020-04-28,2164.0,535.75,2699.75,2,Long
2020-04-29,2164.0,1182.25,3346.25,2,Long
2020-04-30,2164.0,676.75,2840.75,2,Long
2020-05-01,2164.0,404.25,2568.25,2,Long
2020-05-03,2164.0,166.25,2330.25,2,Long
2020-05-04,2164.0,647.75,2811.75,2,Long
2020-05-05,2164.0,912.75,3076.75,2,Long
2020-05-06,2164.0,929.75,3093.75,2,Long
2020-05-07,2164.0,1282.75,3446.75,2,Long
2020-05-08,2164.0,1458.5,3622.5,3,Long
2020-05-10,2164.0,1555.25,3719.25,3,Long
2020-05-11,2164.0,1626.5,3790.5,3,Long
2020-05-12,2164.0,837.5,3001.5,3,Long
2020-05-13,2164.0,829.25,2993.25,3,Long
2020-05-14,2164.0,1118.0,3282.0,3,Long
2020-05-15,2164.0,1154.0,3318.0,3,Long
2020-05-17,2164.0,1289.0,3453.0,3,Long
2020-05-18,2164.0,1827.5,3991.5,3,Long
2020-05-19,2164.0,1749.5,3913.5,3,Long
2020-05-20,2164.0,2252.0,4416.0,3,Long
2020-05-21,2164.0,2003.0,4167.0,3,Long
2020-05-22,2164.0,2084.0,4248.0,4,Long
2020-05-24,2164.0,2217.0,4381.0,4,Long
2020-05-25,2164.0,2434.0,4598.0,4,Long
2020-05-26,2164.0,1971.0,4135.0,4,Long
2020-05-27,2164.0,2162.0,4326.0,4,Long
2020-05-28,2164.0,2066.0,4230.0,4,Long
2020-05-29,2164.0,2749.0,4913.0,4,Long
2020-05-31,2164.0,2422.0,4586.0,4,Long
2020-06-01,2164.0,2656.0,4820.0,4,Long
2020-06-02,2164.0,3093.0,5257.0,4,Long
2020-06-03,2164.0,3180.0,5344.0,4,Long
2020-06-04,2164.0,2868.0,5032.0,4,Long
2020-06-05,2164.0,3625.75,5789.75,5,Long
2020-06-07,2164.0,3942.0,6106.0,5,Long
2020-06-08,2164.0,3988.25,6152.25,5,Long
2020-06-09,2164.0,4534.5,6698.5,5,Long
2020-06-10,2164.0,4805.75,6969.75,5,Long
2020-06-11,2164.0,2982.0,5146.0,5,Long
2020-06-12,2164.0,2799.5,4963.5,5,Long
2020-06-14,2164.0,2279.5,4443.5,5,Long
2020-06-15,2164.0,3914.5,6078.5,5,Long
2020-06-16,2164.0,4508.25,6672.25,5,Long
2020-06-17,2164.0,4335.75,6499.75,5,Long
2020-06-18,2164.0,4692.0,6856.0,5,Long
2020-06-19,2164.0,4210.75,6374.75,5,Long
2020-06-21,2164.0,4113.25,6277.25,5,Long
2020-06-22,2164.0,5337.0,7501.0,5,Long
2020-06-23,2164.0,5492.0,7656.0,5,Long
2020-06-24,2164.0,4455.75,6619.75,5,Long
2020-06-25,2164.0,5119.5,7283.5,5,Long
2020-06-26,2164.0,3808.25,5972.25,5,Long
2020-06-28,2164.0,3723.25,5887.25,5,Long
2020-06-29,2164.0,4552.0,6716.0,5,Long
2020-06-30,2164.0,4762.0,6926.0,5,Long
2020-07-01,2164.0,5935.75,8099.75,5,Long
2020-07-02,2164.0,6338.25,8502.25,5,Long
2020-07-03,2164.0,6214.5,8378.5,5,Long
2020-07-05,2164.0,6553.25,8717.25,5,Long
2020-07-06,2164.0,7788.25,9952.25,5,Long
2020-07-07,2164.0,7339.5,9503.5,5,Long
2020-07-08,2164.0,8000.75,10164.75,5,Long
2020-07-09,2164.0,8359.5,10523.5,5,Long
2020-07-10,2164.0,8802.0,10966.0,5,Long
2020-07-12,2164.0,8972.0,11136.0,5,Long
2020-07-13,2164.0,7815.75,9979.75,5,Long
2020-07-14,2164.0,8175.75,10339.75,5,Long
2020-07-15,2164.0,7824.5,9988.5,5,Long
2020-07-16,2164.0,7422.0,9586.0,5,Long
2020-07-17,2164.0,7705.75,9869.75,5,Long
2020-07-19,2164.0,7825.75,9989.75,5,Long
2020-07-20,2164.0,9337.0,11501.0,5,Long
2020-07-21,2164.0,8954.5,11118.5,5,Long
2020-07-22,2164.0,8703.25,10867.25,5,Long
2020-07-23,2164.0,7502.0,9666.0,5,Long
2020-07-24,2164.0,6903.25,9067.25,5,Long
2020-07-26,2164.0,6783.25,8947.25,5,Long
2020-07-27,2164.0,8080.75,10244.75,5,Long
2020-07-28,2164.0,7408.25,9572.25,5,Long
2020-07-29,2164.0,7985.75,10149.75,5,Long
2020-07-30,2164.0,9115.75,11279.75,5,Long
2020-07-31,2164.0,9165.75,11329.75,5,Long
2020-08-02,2164.0,9147.0,11311.0,5,Long
2020-08-03,2164.0,9770.75,11934.75,5,Long
2020-08-04,2164.0,9957.0,12121.0,5,Long
2020-08-05,2164.0,10034.5,12198.5,5,Long
2020-08-06,2164.0,10850.75,13014.75,5,Long
2020-08-07,2164.0,10243.25,12407.25,5,Long
2020-08-09,2164.0,10124.5,12288.5,5,Long
2020-08-10,2164.0,9958.25,12122.25,5,Long
2020-08-11,2164.0,9202.0,11366.0,5,Long
2020-08-12,2164.0,10247.0,12411.0,5,Long
2020-08-13,2164.0,10614.5,12778.5,5,Long
2020-08-14,2164.0,10317.0,12481.0,5,Long
2020-08-16,2164.0,10395.75,12559.75,5,Long
2020-08-17,2164.0,11113.25,13277.25,5,Long
2020-08-18,2164.0,11670.75,13834.75,5,Long
2020-08-19,2164.0,11040.75,13204.75,5,Long
2020-08-20,2164.0,12085.75,14249.75,5,Long
2020-08-21,2164.0,12403.25,14567.25,5,Long
2020-08-23,2164.0,12505.75,14669.75,5,Long
2020-08-24,2164.0,12822.0,14986.0,5,Long
2020-08-25,2164.0,13322.0,15486.0,5,Long
2020-08-26,2164.0,14427.0,16591.0,5,Long
2020-08-27,2164.0,14434.5,16598.5,5,Long
2020-08-28,2164.0,14607.0,16771.0,5,Long
2020-08-30,2164.0,14827.0,16991.0,5,Long
2020-08-31,2164.0,15214.5,17378.5,5,Long
2020-09-01,2164.0,16390.75,18554.75,5,Long
2020-09-02,2164.0,16697.0,18861.0,5,Long
2020-09-03,2164.0,12593.25,14757.25,5,Long
2020-09-04,14758.5,60.75,14819.25,1,Short
2020-09-06,14758.5,184.0,14942.5,1,Short
2020-09-07,14758.5,41.75,14800.25,1,Short
2020-09-08,14758.5,560.0,15318.5,1,Short
2020-09-09,14758.5,157.75,14916.25,1,Short
2020-09-10,14758.5,398.5,15157.0,1,Short
2020-09-11,14758.5,528.25,15286.75,1,Short
2020-09-13,14758.5,428.25,15186.75,1,Short
2020-09-14,14758.5,316.5,15075.0,1,Short
2020-09-15,14758.5,179.75,14938.25,1,Short
2020-09-16,14758.5,332.5,15091.0,1,Short
2020-09-17,14758.5,532.0,15290.5,1,Short
2020-09-18,14758.5,664.5,15423.0,2,Short
2020-09-20,14758.5,678.0,15436.5,2,Short
2020-09-21,14758.5,516.5,15275.0,2,Short
2020-09-22,14758.5,299.5,15058.0,2,Short
2020-09-23,14758.5,1042.5,15801.0,2,Short
2020-09-24,14758.5,639.0,15397.5,2,Short
2020-09-25,14758.5,269.0,15027.5,2,Short
2020-09-27,14758.5,222.0,14980.5,2,Short
2020-09-28,14758.5,-296.0,14462.5,2,Short
2020-09-29,14758.5,-140.0,14618.5,2,Short
2020-09-30,14758.5,-347.5,14411.0,2,Short
2020-10-01,14758.5,-602.5,14156.0,2,Short
2020-10-02,14758.5,65.25,14823.75,3,Short
2020-10-04,14758.5,-167.25,14591.25,3,Short
2020-10-05,14758.5,-477.0,14281.5,3,Short
2020-10-06,14758.5,60.0,14818.5,3,Short
2020-10-07,14758.5,-674.25,14084.25,3,Short
2020-10-08,14758.5,-910.5,13848.0,3,Short
2020-10-09,14758.5,-1344.75,13413.75,3,Short
2020-10-11,14758.5,-1402.5,13356.0,3,Short
2020-10-12,13356.0,365.75,13721.75,1,Long
2020-10-13,13356.0,371.25,13727.25,1,Long
2020-10-14,13356.0,217.5,13573.5,1,Long
2020-10-15,13356.0,172.0,13528.0,1,Long
2020-10-16,13356.0,49.75,13405.75,1,Long
2020-10-18,13356.0,129.5,13485.5,1,Long
2020-10-19,13356.0,-28.5,13327.5,1,Long
2020-10-20,13356.0,-39.75,13316.25,1,Long
2020-10-21,13356.0,-118.25,13237.75,1,Long
2020-10-22,13356.0,-78.75,13277.25,1,Long
2020-10-23,13356.0,-67.5,13288.5,2,Long
2020-10-25,13356.0,-152.0,13204.0,2,Long
2020-10-26,13356.0,-428.0,12928.0,2,Long
2020-10-27,13356.0,-331.0,13025.0,2,Long
2020-10-28,13356.0,-1028.0,12328.0,2,Long
2020-10-29,12327.5,-25.25,12302.25,1,Short
2020-10-30,12327.5,101.75,12429.25,1,Short
2020-11-01,12327.5,190.0,12517.5,1,Short
2020-11-02,12327.5,101.25,12428.75,1,Short
2020-11-03,12327.5,-129.0,12198.5,1,Short
2020-11-04,12327.5,-606.75,11720.75,1,Short
2020-11-05,11721.25,272.25,11993.5,1,Long
2020-11-06,11721.25,300.25,12021.5,1,Long
2020-11-08,11721.25,438.0,12159.25,1,Long
2020-11-09,11721.25,59.75,11781.0,1,Long
2020-11-10,11721.25,-197.0,11524.25,1,Long
2020-11-11,11721.25,102.0,11823.25,1,Long
2020-11-12,11721.25,57.0,11778.25,1,Long
2020-11-13,11721.25,164.5,11885.75,2,Long
2020-11-15,11721.25,363.0,12084.25,2,Long
2020-11-16,11721.25,369.5,12090.75,2,Long
2020-11-17,11721.25,230.5,11951.75,2,Long
2020-11-18,11721.25,33.0,11754.25,2,Long
2020-11-19,11721.25,147.0,11868.25,2,Long
2020-11-20,11721.25,94.5,11815.75,2,Long
2020-11-22,11721.25,135.0,11856.25,2,Long
2020-11-23,11721.25,176.0,11897.25,2,Long
2020-11-24,11721.25,524.5,12245.75,2,Long
2020-11-25,11721.25,631.5,12352.75,2,Long
2020-11-26,11721.25,581.5,12302.75,2,Long
2020-11-27,11721.25,819.5,12540.75,3,Long
2020-11-29,11721.25,949.25,12670.5,3,Long
2020-11-30,11721.25,1045.25,12766.5,3,Long
2020-12-01,11721.25,1351.25,13072.5,3,Long
2020-12-02,11721.25,1397.0,13118.25,3,Long
2020-12-03,11721.25,1454.0,13175.25,3,Long
2020-12-04,11721.25,1529.0,13250.25,3,Long
2020-12-06,11721.25,1632.5,13353.75,3,Long
2020-12-07,11721.25,1724.0,13445.25,3,Long
2020-12-08,11721.25,1940.0,13661.25,3,Long
2020-12-09,11721.25,1088.0,12809.25,3,Long
2020-12-10,11721.25,1208.0,12929.25,3,Long
2020-12-11,11721.25,1123.5,12844.75,4,Long
2020-12-13,11721.25,1323.5,13044.75,4,Long
2020-12-14,11721.25,1575.5,13296.75,4,Long
2020-12-15,11721.25,2037.5,13758.75,4,Long
2020-12-16,11721.25,2388.5,14109.75,4,Long
2020-12-17,11721.25,2657.5,14378.75,4,Long
2020-12-18,11721.25,2650.5,14371.75,4,Long
2020-12-20,11721.25,2653.5,14374.75,4,Long
2020-12-21,11721.25,2462.5,14183.75,4,Long
2020-12-22,11721.25,2538.5,14259.75,4,Long
2020-12-23,11721.25,2276.5,13997.75,4,Long
2020-12-24,11721.25,2473.5,14194.75,4,Long
2020-12-27,11721.25,2594.5,14315.75,4,Long
2020-12-28,11721.25,3064.5,14785.75,4,Long
2020-12-29,11721.25,3035.5,14756.75,4,Long
2020-12-30,11721.25,3051.5,14772.75,4,Long
2020-12-31,11721.25,3194.5,14915.75,4,Long
2021-01-03,11721.25,3112.5,14833.75,4,Long
2021-01-04,11721.25,2356.5,14077.75,4,Long
2021-01-05,11721.25,2836.5,14557.75,4,Long
2021-01-06,11721.25,2348.5,14069.75,4,Long
2021-01-07,11721.25,3410.5,15131.75,4,Long
2021-01-08,11721.25,4200.0,15921.25,5,Long
2021-01-10,11721.25,3990.0,15711.25,5,Long
2021-01-11,11721.25,3187.5,14908.75,5,Long
2021-01-12,11721.25,3061.25,14782.5,5,Long
2021-01-13,11721.25,3427.5,15148.75,5,Long
2021-01-14,11721.25,3162.5,14883.75,5,Long
2021-01-15,11721.25,2396.25,14117.5,5,Long
2021-01-17,11721.25,2307.5,14028.75,5,Long
2021-01-18,11721.25,2735.0,14456.25,5,Long
2021-01-19,11721.25,3826.25,15547.5,5,Long
2021-01-20,11721.25,5150.0,16871.25,5,Long
2021-01-21,11721.25,5496.25,17217.5,5,Long
2021-01-22,11721.25,5336.25,17057.5,5,Long
2021-01-24,11721.25,5567.5,17288.75,5,Long
2021-01-25,11721.25,5887.5,17608.75,5,Long
2021-01-26,11721.25,6373.75,18095.0,5,Long
2021-01-27,11721.25,3467.5,15188.75,5,Long
2021-01-28,11721.25,4261.25,15982.5,5,Long
2021-01-29,11721.25,2931.25,14652.5,5,Long
2021-01-31,14545.0,56.0,14601.0,1,Short
2021-02-01,14545.0,-412.0,14133.0,1,Short
2021-02-02,14545.0,-638.25,13906.75,1,Short
2021-02-03,14545.0,-594.0,13951.0,1,Short
2021-02-04,14545.0,-703.75,13841.25,1,Short
2021-02-05,13842.0,50.75,13892.75,1,Long
2021-02-07,13842.0,85.75,13927.75,1,Long
2021-02-08,13842.0,128.5,13970.5,1,Long
2021-02-09,13842.0,134.5,13976.5,1,Long
2021-02-10,13842.0,100.75,13942.75,1,Long
2021-02-11,13842.0,178.0,14020.0,1,Long
2021-02-12,13842.0,268.75,14110.75,1,Long
2021-02-14,13842.0,272.75,14114.75,1,Long
2021-02-15,13842.0,305.0,14147.0,1,Long
2021-02-16,13842.0,178.5,14020.5,1,Long
2021-02-17,13842.0,150.0,13992.0,1,Long
2021-02-18,13842.0,62.5,13904.5,1,Long
2021-02-19,13842.0,1.5,13843.5,2,Long
2021-02-21,13842.0,41.5,13883.5,2,Long
2021-02-22,13842.0,-685.5,13156.5,2,Long
2021-02-23,13156.5,59.5,13216.0,1,Short
2021-02-24,13156.5,-99.5,13057.0,1,Short
2021-02-25,13156.5,450.25,13606.75,1,Short
2021-02-26,13156.5,316.5,13473.0,1,Short
2021-02-28,13156.5,224.25,13380.75,1,Short
2021-03-01,13156.5,-89.75,13066.75,1,Short
2021-03-02,13156.5,134.0,13290.5,1,Short
2021-03-03,13156.5,634.5,13791.0,1,Short
2021-03-04,13156.5,821.5,13978.0,1,Short
2021-03-05,13156.5,582.25,13738.75,2,Short
2021-03-07,13156.5,560.25,13716.75,2,Short
2021-03-08,13156.5,1158.25,14314.75,2,Short
2021-03-09,13156.5,281.75,13438.25,2,Short
2021-03-10,13156.5,359.75,13516.25,2,Short
2021-03-11,13156.5,-238.25,12918.25,2,Short
2021-03-12,13156.5,32.25,13188.75,2,Short
2021-03-14,13156.5,-0.75,13155.75,2,Short
2021-03-15,13156.5,-209.25,12947.25,2,Short
2021-03-16,13156.5,-394.75,12761.75,2,Short
2021-03-17,13156.5,-544.25,12612.25,2,Short
2021-03-18,13156.5,333.25,13489.75,2,Short
2021-03-19,13156.5,272.5,13429.0,3,Short
2021-03-21,13156.5,164.5,13321.0,3,Short
2021-03-22,13156.5,-507.5,12649.0,3,Short
2021-03-23,13156.5,-337.25,12819.25,3,Short
2021-03-24,13156.5,335.5,13492.0,3,Short
2021-03-25,13156.5,349.0,13505.5,3,Short
2021-03-26,13156.5,-134.0,13022.5,3,Short
2021-03-28,13156.5,-10.25,13146.25,3,Short
2021-03-29,13156.5,-186.5,12970.0,3,Short
2021-03-30,13156.5,64.75,13221.25,3,Short
2021-03-31,13156.5,-614.0,12542.5,3,Short
2021-04-01,13156.5,-1287.5,11869.0,3,Short
2021-04-02,13156.5,-1298.0,11858.5,4,Short
2021-04-04,13156.5,-1308.0,11848.5,4,Short
2021-04-05,13156.5,-2367.0,10789.5,4,Short
2021-04-06,10791.5,-21.5,10770.0,1,Long
2021-04-07,10791.5,22.25,10813.75,1,Long
2021-04-08,10791.5,186.25,10977.75,1,Long
2021-04-09,10791.5,193.0,10984.5,1,Long
2021-04-11,10791.5,163.0,10954.5,1,Long
2021-04-12,10791.5,201.5,10993.0,1,Long
2021-04-13,10791.5,351.0,11142.5,1,Long
2021-04-14,10791.5,195.75,10987.25,1,Long
2021-04-15,10791.5,394.5,11186.0,1,Long
2021-04-16,10791.5,402.5,11194.0,2,Long
2021-04-18,10791.5,340.0,11131.5,2,Long
2021-04-19,10791.5,192.5,10984.0,2,Long
2021-04-20,10791.5,-150.0,10641.5,2,Long
2021-04-21,10791.5,124.5,10916.0,2,Long
2021-04-22,10791.5,-123.0,10668.5,2,Long
2021-04-23,10791.5,169.0,10960.5,2,Long
2021-04-25,10791.5,178.5,10970.0,2,Long
2021-04-26,10791.5,413.0,11204.5,2,Long
2021-04-27,10791.5,284.0,11075.5,2,Long
2021-04-28,10791.5,302.0,11093.5,2,Long
2021-04-29,10791.5,189.5,10981.0,2,Long
2021-04-30,10791.5,98.0,10889.5,3,Long
2021-05-02,10791.5,140.75,10932.25,3,Long
2021-05-03,10791.5,-191.5,10600.0,3,Long
2021-05-04,10791.5,-925.0,9866.5,3,Long
2021-05-05,10791.5,-997.75,9793.75,3,Long
2021-05-06,10791.5,-663.25,10128.25,3,Long
2021-05-07,10791.5,-346.75,10444.75,3,Long
2021-05-09,10791.5,-283.0,10508.5,3,Long
2021-05-10,10791.5,-1495.75,9295.75,3,Long
2021-05-11,9293.5,-3.75,9289.75,1,Short
2021-05-12,9293.5,318.0,9611.5,1,Short
2021-05-13,9293.5,221.75,9515.25,1,Short
2021-05-14,9293.5,-66.25,9227.25,1,Short
2021-05-16,9293.5,-60.0,9233.5,1,Short
2021-05-17,9293.5,4.25,9297.75,1,Short
2021-05-18,9293.5,163.0,9456.5,1,Short
2021-05-19,9293.5,148.0,9441.5,1,Short
2021-05-20,9293.5,-185.75,9107.75,1,Short
2021-05-21,9293.5,-71.75,9221.75,2,Short
2021-05-23,9293.5,18.75,9312.25,2,Short
2021-05-24,9293.5,-561.75,8731.75,2,Short
2021-05-25,9293.5,-638.75,8654.75,2,Short
2021-05-26,9293.5,-664.25,8629.25,2,Short
2021-05-27,9293.5,-654.75,8638.75,2,Short
2021-05-28,9293.5,-617.25,8676.25,2,Short
2021-05-30,9293.5,-673.25,8620.25,2,Short
2021-05-31,9293.5,-620.75,8672.75,2,Short
2021-06-01,9293.5,-517.25,8776.25,2,Short
2021-06-02,9293.5,-621.75,8671.75,2,Short
2021-06-03,9293.5,-256.75,9036.75,2,Short
2021-06-04,9293.5,-776.75,8516.75,2,Short
2021-06-06,8500.75,-4.5,8496.25,1,Long
2021-06-07,8500.75,50.75,8551.5,1,Long
2021-06-08,8500.75,45.0,8545.75,1,Long
2021-06-09,8500.75,43.0,8543.75,1,Long
2021-06-10,8500.75,195.75,8696.5,1,Long
2021-06-11,8500.75,212.75,8713.5,1,Long
2021-06-13,8500.75,237.5,8738.25,1,Long
2021-06-14,8500.75,334.25,8835.0,1,Long
2021-06-15,8500.75,259.25,8760.0,1,Long
2021-06-16,8500.75,114.5,8615.25,1,Long
2021-06-17,8500.75,403.5,8904.25,1,Long
2021-06-18,8500.75,201.5,8702.25,2,Long
2021-06-20,8500.75,242.0,8742.75,2,Long
2021-06-21,8500.75,435.5,8936.25,2,Long
2021-06-22,8500.75,710.5,9211.25,2,Long
2021-06-23,8500.75,738.0,9238.75,2,Long
2021-06-24,8500.75,858.5,9359.25,2,Long
2021-06-25,8500.75,828.0,9328.75,2,Long
2021-06-27,8500.75,875.0,9375.75,2,Long
2021-06-28,8500.75,1149.0,9649.75,2,Long
2021-06-29,8500.75,1341.0,9841.75,2,Long
2021-06-30,8500.75,1286.5,9787.25,2,Long
2021-07-01,8500.75,1231.5,9732.25,2,Long
2021-07-02,8500.75,1551.5,10052.25,3,Long
2021-07-04,8500.75,1593.5,10094.25,3,Long
2021-07-05,8500.75,1592.75,10093.5,3,Long
2021-07-06,8500.75,1744.25,10245.0,3,Long
2021-07-07,8500.75,1880.75,10381.5,3,Long
2021-07-08,8500.75,1526.0,10026.75,3,Long
2021-07-09,8500.75,1893.5,10394.25,3,Long
2021-07-11,8500.75,1938.5,10439.25,3,Long
2021-07-12,8500.75,2089.25,10590.0,3,Long
2021-07-13,8500.75,1985.0,10485.75,3,Long
2021-07-14,8500.75,2162.75,10663.5,3,Long
2021-07-15,8500.75,1721.0,10221.75,3,Long
2021-07-16,8500.75,1471.0,9971.75,4,Long
2021-07-18,8500.75,1361.0,9861.75,4,Long
2021-07-19,8500.75,1148.0,9648.75,4,Long
2021-07-20,8500.75,1762.0,10262.75,4,Long
2021-07-21,8500.75,2132.0,10632.75,4,Long
2021-07-22,8500.75,2673.0,11173.75,4,Long
2021-07-23,8500.75,3160.0,11660.75,4,Long
2021-07-25,8500.75,3274.0,11774.75,4,Long
2021-07-26,8500.75,3236.0,11736.75,4,Long
2021-07-27,8500.75,2471.0,10971.75,4,Long
2021-07-28,8500.75,2743.0,11243.75,4,Long
2021-07-29,8500.75,2270.0,10770.75,4,Long
2021-07-30,8500.75,2680.0,11180.75,5,Long
2021-08-01,8500.75,2852.5,11353.25,5,Long
2021-08-02,8500.75,2650.0,11150.75,5,Long
2021-08-03,8500.75,2998.75,11499.5,5,Long
2021-08-04,8500.75,3262.5,11763.25,5,Long
2021-08-05,8500.75,3646.25,12147.0,5,Long
2021-08-06,8500.75,3307.5,11808.25,5,Long
2021-08-08,8500.75,2953.75,11454.5,5,Long
2021-08-09,8500.75,3437.5,11938.25,5,Long
2021-08-10,8500.75,3021.25,11522.0,5,Long
2021-08-11,8500.75,2822.5,11323.25,5,Long
2021-08-12,8500.75,3182.5,11683.25,5,Long
2021-08-13,8500.75,3462.5,11963.25,5,Long
2021-08-15,8500.75,3413.75,11914.5,5,Long
2021-08-16,8500.75,3496.25,11997.0,5,Long
2021-08-17,8500.75,2628.75,11129.5,5,Long
2021-08-18,8500.75,2071.25,10572.0,5,Long
2021-08-19,8500.75,2427.5,10928.25,5,Long
2021-08-20,8500.75,3318.75,11819.5,5,Long
2021-08-22,8500.75,3380.0,11880.75,5,Long
2021-08-23,8500.75,4491.25,12992.0,5,Long
2021-08-24,8500.75,4632.5,13133.25,5,Long
2021-08-25,8500.75,4652.5,13153.25,5,Long
2021-08-26,8500.75,4235.0,12735.75,5,Long
2021-08-27,8500.75,4983.75,13484.5,5,Long
2021-08-29,8500.75,5106.25,13607.0,5,Long
2021-08-30,8500.75,5835.0,14335.75,5,Long
2021-08-31,8500.75,5828.75,14329.5,5,Long
2021-09-01,8500.75,5936.25,14437.0,5,Long
2021-09-02,8500.75,5828.75,14329.5,5,Long
2021-09-03,8500.75,6111.25,14612.0,5,Long
2021-09-05,8500.75,6095.0,14595.75,5,Long
2021-09-06,8500.75,6290.0,14790.75,5,Long
2021-09-07,8500.75,6153.75,14654.5,5,Long
2021-09-08,8500.75,5843.75,14344.5,5,Long
2021-09-09,8500.75,5663.75,14164.5,5,Long
2021-09-10,8500.75,5032.5,13533.25,5,Long
2021-09-12,8500.75,5266.25,13767.0,5,Long
2021-09-13,8500.75,5070.0,13570.75,5,Long
2021-09-14,8500.75,4878.75,13379.5,5,Long
2021-09-15,8500.75,5352.5,13853.25,5,Long
2021-09-16,8500.75,5251.25,13752.0,5,Long
2021-09-17,8500.75,4268.75,12769.5,5,Long
2021-09-19,12769.5,-41.0,12728.5,1,Short
2021-09-20,12769.5,256.25,13025.75,1,Short
2021-09-21,12769.5,312.0,13081.5,1,Short
2021-09-22,12769.5,93.25,12862.75,1,Short
2021-09-23,12769.5,-19.5,12750.0,1,Short
2021-09-24,12769.5,-32.25,12737.25,1,Short
2021-09-26,12769.5,-33.0,12736.5,1,Short
2021-09-27,12769.5,116.5,12886.0,1,Short
2021-09-28,12769.5,483.25,13252.75,1,Short
2021-09-29,12769.5,495.75,13265.25,1,Short
2021-09-30,12769.5,570.5,13340.0,1,Short
2021-10-01,12769.5,496.25,13265.75,2,Short
2021-10-03,12769.5,425.75,13195.25,2,Short
2021-10-04,12769.5,1083.75,13853.25,2,Short
2021-10-05,12769.5,779.75,13549.25,2,Short
2021-10-06,12769.5,437.25,13206.75,2,Short
2021-10-07,12769.5,206.25,12975.75,2,Short
2021-10-08,12769.5,446.25,13215.75,2,Short
2021-10-10,12769.5,620.75,13390.25,2,Short
2021-10-11,12769.5,685.75,13455.25,2,Short
2021-10-12,12769.5,845.75,13615.25,2,Short
2021-10-13,12769.5,446.75,13216.25,2,Short
2021-10-14,12769.5,-87.25,12682.25,2,Short
2021-10-15,12769.5,-272.5,12497.0,3,Short
2021-10-17,12769.5,-83.5,12686.0,3,Short
2021-10-18,12769.5,-713.5,12056.0,3,Short
2021-10-19,12055.25,117.0,12172.25,1,Long
2021-10-20,12055.25,43.0,12098.25,1,Long
2021-10-21,12055.25,99.5,12154.75,1,Long
2021-10-22,12055.25,31.75,12087.0,1,Long
2021-10-24,12055.25,14.0,12069.25,1,Long
2021-10-25,12055.25,246.75,12302.0,1,Long
2021-10-26,12055.25,267.75,12323.0,1,Long
2021-10-27,12055.25,334.0,12389.25,1,Long
2021-10-28,12055.25,380.0,12435.25,1,Long
2021-10-29,12055.25,644.5,12699.75,2,Long
2021-10-31,12055.25,667.5,12722.75,2,Long
2021-11-01,12055.25,659.0,12714.25,2,Long
2021-11-02,12055.25,792.0,12847.25,2,Long
2021-11-03,12055.25,1278.5,13333.75,2,Long
2021-11-04,12055.25,1587.0,13642.25,2,Long
2021-11-05,12055.25,1593.0,13648.25,2,Long
2021-11-07,12055.25,1531.0,13586.25,2,Long
2021-11-08,12055.25,1528.0,13583.25,2,Long
2021-11-09,12055.25,1278.0,13333.25,2,Long
2021-11-10,12055.25,887.5,12942.75,2,Long
2021-11-11,12055.25,1035.5,13090.75,2,Long
2021-11-12,12055.25,1330.5,13385.75,3,Long
2021-11-14,12055.25,1404.0,13459.25,3,Long
2021-11-15,12055.25,1294.5,13349.75,3,Long
2021-11-16,12055.25,1641.0,13696.25,3,Long
2021-11-17,12055.25,1713.75,13769.0,3,Long
2021-11-18,12055.25,2213.25,14268.5,3,Long
2021-11-19,12055.25,2490.0,14545.25,3,Long
2021-11-21,12055.25,2491.5,14546.75,3,Long
2021-11-22,12055.25,1915.5,13970.75,3,Long
2021-11-23,12055.25,1584.75,13640.0,3,Long
2021-11-24,12055.25,1798.5,13853.75,3,Long
2021-11-25,12055.25,1838.25,13893.5,3,Long
2021-11-26,12055.25,859.5,12914.75,3,Long
2021-11-28,12919.25,-122.5,12796.75,1,Short
2021-11-29,12919.25,-384.75,12534.5,1,Short
2021-11-30,12919.25,-178.5,12740.75,1,Short
2021-12-01,12919.25,97.75,13017.0,1,Short
2021-12-02,12919.25,108.75,13028.0,1,Short
2021-12-03,12919.25,360.25,13279.5,1,Short
2021-12-05,12919.25,307.5,13226.75,1,Short
2021-12-06,12919.25,203.75,13123.0,1,Short
2021-12-07,12919.25,-296.75,12622.5,1,Short
2021-12-08,12919.25,-331.5,12587.75,1,Short
2021-12-09,12919.25,-128.75,12790.5,1,Short
2021-12-10,12919.25,-311.0,12608.25,2,Short
2021-12-12,12919.25,-386.0,12533.25,2,Short
2021-12-13,12919.25,156.0,13075.25,2,Short
2021-12-14,12919.25,509.0,13428.25,2,Short
2021-12-15,12919.25,-309.5,12609.75,2,Short
2021-12-16,12919.25,660.0,13579.25,2,Short
2021-12-17,12919.25,677.5,13596.75,2,Short
2021-12-19,12919.25,924.0,13843.25,2,Short
2021-12-20,12919.25,897.0,13816.25,2,Short
2021-12-21,12919.25,417.5,13336.75,2,Short
2021-12-22,12919.25,-32.5,12886.75,2,Short
2021-12-23,12919.25,-267.5,12651.75,2,Short
2021-12-26,12919.25,-347.0,12572.25,2,Short
2021-12-27,12919.25,-772.0,12147.25,2,Short
2021-12-28,12146.75,-15.75,12131.0,1,Long
2021-12-29,12146.75,-91.75,12055.0,1,Long
2021-12-30,12146.75,-116.75,12030.0,1,Long
2021-12-31,12146.75,-221.5,11925.25,1,Long
2022-01-02,12146.75,-170.75,11976.0,1,Long
2022-01-03,12146.75,-71.0,12075.75,1,Long
2022-01-04,12146.75,-322.0,11824.75,1,Long
2022-01-05,12146.75,-770.5,11376.25,1,Long
2022-01-06,12146.75,-737.5,11409.25,1,Long
2022-01-07,12146.75,-982.25,11164.5,1,Long
2022-01-09,11181.25,30.5,11211.75,1,Short
2022-01-10,11181.25,-38.25,11143.0,1,Short
2022-01-11,11181.25,-231.25,10950.0,1,Short
2022-01-12,11181.25,-303.5,10877.75,1,Short
2022-01-13,11181.25,91.5,11272.75,1,Short
2022-01-14,11181.25,-30.25,11151.0,1,Short
2022-01-16,11181.25,7.75,11189.0,1,Short
2022-01-17,11181.25,1.25,11182.5,1,Short
2022-01-18,11181.25,395.75,11577.0,1,Short
2022-01-19,11181.25,584.0,11765.25,1,Short
2022-01-20,11181.25,844.75,12026.0,1,Short
2022-01-21,11181.25,1277.0,12458.25,2,Short
2022-01-23,11181.25,1000.5,12181.75,2,Short
2022-01-24,11181.25,1141.0,12322.25,2,Short
2022-01-25,11181.25,1717.5,12898.75,2,Short
2022-01-26,11181.25,1566.5,12747.75,2,Short
2022-01-27,11181.25,1908.5,13089.75,2,Short
2022-01-28,11181.25,1243.0,12424.25,2,Short
2022-01-30,11181.25,1305.0,12486.25,2,Short
2022-01-31,11181.25,362.5,11543.75,2,Short
2022-02-01,11181.25,-139.5,11041.75,2,Short
2022-02-02,11181.25,571.0,11752.25,2,Short
2022-02-03,11181.25,576.5,11757.75,2,Short
2022-02-04,11181.25,888.0,12069.25,3,Short
2022-02-06,11181.25,690.75,11872.0,3,Short
2022-02-07,11181.25,990.75,12172.0,3,Short
2022-02-08,11181.25,488.25,11669.5,3,Short
2022-02-09,11181.25,-306.75,10874.5,3,Short
2022-02-10,11181.25,840.0,12021.25,3,Short
2022-02-11,11181.25,2064.75,13246.0,3,Short
2022-02-13,11181.25,2084.25,13265.5,3,Short
2022-02-14,11181.25,1931.25,13112.5,3,Short
2022-02-15,11181.25,1132.5,12313.75,3,Short
2022-02-16,11181.25,1106.25,12287.5,3,Short
2022-02-17,11181.25,2304.0,13485.25,3,Short
2022-02-18,11181.25,2879.5,14060.75,4,Short
2022-02-20,11181.25,3446.5,14627.75,4,Short
2022-02-21,11181.25,4133.5,15314.75,4,Short
2022-02-22,11181.25,2965.5,14146.75,4,Short
2022-02-23,11181.25,4854.5,16035.75,4,Short
2022-02-24,11181.25,3415.5,14596.75,4,Short
2022-02-25,11181.25,2089.5,13270.75,4,Short
2022-02-27,11181.25,3436.5,14617.75,4,Short
2022-02-28,11181.25,1828.5,13009.75,4,Short
2022-03-01,11181.25,2645.5,13826.75,4,Short
2022-03-02,11181.25,2033.5,13214.75,4,Short
2022-03-03,11181.25,2535.5,13716.75,4,Short
2022-03-04,11181.25,3605.5,14786.75,5,Short
2022-03-06,11181.25,4700.5,15881.75,5,Short
2022-03-07,11181.25,6269.25,17450.5,5,Short
2022-03-08,11181.25,6363.0,17544.25,5,Short
2022-03-09,11181.25,3881.75,15063.0,5,Short
2022-03-10,11181.25,4635.5,15816.75,5,Short
2022-03-11,11181.25,6085.5,17266.75,5,Short
2022-03-13,11181.25,5781.75,16963.0,5,Short
2022-03-14,11181.25,7094.25,18275.5,5,Short
2022-03-15,11181.25,5346.75,16528.0,5,Short
2022-03-16,11181.25,2728.0,13909.25,5,Short
2022-03-17,11181.25,2501.75,13683.0,5,Short
2022-03-18,11181.25,446.75,11628.0,5,Short
2022-03-20,11181.25,594.25,11775.5,5,Short
2022-03-21,11181.25,915.5,12096.75,5,Short
2022-03-22,11181.25,-714.5,10466.75,5,Short
2022-03-23,10470.5,-192.0,10278.5,1,Long
2022-03-24,10470.5,84.0,10554.5,1,Long
2022-03-25,10470.5,86.5,10557.0,1,Long
2022-03-27,10470.5,55.0,10525.5,1,Long
2022-03-28,10470.5,307.0,10777.5,1,Long
2022-03-29,10470.5,555.5,11026.0,1,Long
2022-03-30,10470.5,437.75,10908.25,1,Long
2022-03-31,10470.5,246.5,10717.0,1,Long
2022-04-01,10470.5,262.5,10733.0,2,Long
2022-04-03,10470.5,193.5,10664.0,2,Long
2022-04-04,10470.5,860.0,11330.5,2,Long
2022-04-05,10470.5,225.5,10696.0,2,Long
2022-04-06,10470.5,-547.0,9923.5,2,Long
2022-04-07,10470.5,-312.5,10158.0,2,Long
2022-04-08,10470.5,-787.5,9683.0,2,Long
2022-04-10,10470.5,-815.0,9655.5,2,Long
2022-04-11,10470.5,-1478.5,8992.0,2,Long
2022-04-12,8991.5,-14.25,8977.25,1,Short
2022-04-13,8991.5,-234.5,8757.0,1,Short
2022-04-14,8991.5,88.5,9080.0,1,Short
2022-04-17,8991.5,246.5,9238.0,1,Short
2022-04-18,8991.5,-34.75,8956.75,1,Short
2022-04-19,8991.5,-96.75,8894.75,1,Short
2022-04-20,8991.5,-101.0,8890.5,1,Short
2022-04-21,8991.5,300.5,9292.0,1,Short
2022-04-22,8991.5,674.5,9666.0,1,Short
2022-04-24,8991.5,654.5,9646.0,1,Short
2022-04-25,8991.5,457.5,9449.0,1,Short
2022-04-26,8991.5,985.5,9977.0,1,Short
2022-04-27,8991.5,808.75,9800.25,1,Short
2022-04-28,8991.5,734.25,9725.75,1,Short
2022-04-29,8991.5,1089.75,10081.25,2,Short
2022-05-01,8991.5,1111.25,10102.75,2,Short
2022-05-02,8991.5,760.25,9751.75,2,Short
2022-05-03,8991.5,633.75,9625.25,2,Short
2022-05-04,8991.5,-149.25,8842.25,2,Short
2022-05-05,8991.5,1106.75,10098.25,2,Short
2022-05-06,8991.5,1547.75,10539.25,2,Short
2022-05-08,8991.5,1719.25,10710.75,2,Short
2022-05-09,8991.5,2404.25,11395.75,2,Short
2022-05-10,8991.5,2196.25,11187.75,2,Short
2022-05-11,8991.5,2856.75,11848.25,2,Short
2022-05-12,8991.5,2828.25,11819.75,2,Short
2022-05-13,8991.5,2151.75,11143.25,3,Short
2022-05-15,8991.5,1836.0,10827.5,3,Short
2022-05-16,8991.5,2439.0,11430.5,3,Short
2022-05-17,8991.5,1553.25,10544.75,3,Short
2022-05-18,8991.5,3762.0,12753.5,3,Short
2022-05-19,8991.5,3441.0,12432.5,3,Short
2022-05-20,8991.5,3719.25,12710.75,3,Short
2022-05-22,8991.5,3325.5,12317.0,3,Short
2022-05-23,8991.5,3577.5,12569.0,3,Short
2022-05-24,8991.5,3680.25,12671.75,3,Short
2022-05-25,8991.5,3564.75,12556.25,3,Short
2022-05-26,8991.5,2372.25,11363.75,3,Short
2022-05-27,8991.5,984.25,9975.75,4,Short
2022-05-29,8991.5,925.25,9916.75,4,Short
2022-05-30,8991.5,616.25,9607.75,4,Short
2022-05-31,8991.5,1058.25,10049.75,4,Short
2022-06-01,8991.5,1840.25,10831.75,4,Short
2022-06-02,8991.5,188.25,9179.75,4,Short
2022-06-03,9181.75,-371.5,8810.25,1,Long
2022-06-05,9181.75,-371.5,8810.25,1,Long
2022-06-06,9181.75,-318.25,8863.5,1,Long
2022-06-07,9181.75,-250.75,8931.0,1,Long
2022-06-08,9181.75,-297.0,8884.75,1,Long
2022-06-09,9181.75,-633.0,8548.75,1,Long
2022-06-10,9181.75,-1059.75,8122.0,1,Long
2022-06-12,9181.75,-1227.5,7954.25,1,Long
2022-06-13,7953.5,321.25,8274.75,1,Short
2022-06-14,7953.5,261.75,8215.25,1,Short
2022-06-15,7953.5,-32.25,7921.25,1,Short
2022-06-16,7953.5,500.0,8453.5,1,Short
2022-06-17,7953.5,371.75,8325.25,1,Short
2022-06-19,7953.5,265.0,8218.5,1,Short
2022-06-20,7953.5,268.5,8222.0,1,Short
2022-06-21,7953.5,117.0,8070.5,1,Short
2022-06-22,7953.5,208.0,8161.5,1,Short
2022-06-23,7953.5,-2.5,7951.0,1,Short
2022-06-24,7953.5,-510.5,7443.0,2,Short
2022-06-26,7953.5,-432.5,7521.0,2,Short
2022-06-27,7953.5,-380.0,7573.5,2,Short
2022-06-28,7953.5,381.0,8334.5,2,Short
2022-06-29,7953.5,401.0,8354.5,2,Short
2022-06-30,7953.5,667.0,8620.5,2,Short
2022-07-01,7953.5,528.5,8482.0,2,Short
2022-07-03,7953.5,613.0,8566.5,2,Short
2022-07-04,7953.5,363.0,8316.5,2,Short
2022-07-05,7953.5,188.0,8141.5,2,Short
2022-07-06,7953.5,-41.5,7912.0,2,Short
2022-07-07,7953.5,-454.5,7499.0,2,Short
2022-07-08,7953.5,-574.25,7379.25,3,Short
2022-07-10,7953.5,-442.25,7511.25,3,Short
2022-07-11,7953.5,199.75,8153.25,3,Short
2022-07-12,7953.5,589.0,8542.5,3,Short
2022-07-13,7953.5,881.5,8835.0,3,Short
2022-07-14,7953.5,322.75,8276.25,3,Short
2022-07-15,7953.5,-149.0,7804.5,3,Short
2022-07-17,7953.5,-269.75,7683.75,3,Short
2022-07-18,7953.5,88.75,8042.25,3,Short
2022-07-19,7953.5,-1028.75,6924.75,3,Short
2022-07-20,7953.5,-1397.75,6555.75,3,Short
2022-07-21,6556.5,112.25,6668.75,1,Long
2022-07-22,6556.5,-8.5,6548.0,1,Long
2022-07-24,6556.5,-32.5,6524.0,1,Long
2022-07-25,6556.5,-137.25,6419.25,1,Long
2022-07-26,6556.5,-155.5,6401.0,1,Long
2022-07-27,6556.5,141.5,6698.0,1,Long
2022-07-28,6556.5,457.25,7013.75,1,Long
2022-07-29,6556.5,514.25,7070.75,2,Long
2022-07-31,6556.5,403.75,6960.25,2,Long
2022-08-01,6556.5,466.75,7023.25,2,Long
2022-08-02,6556.5,371.25,6927.75,2,Long
2022-08-03,6556.5,1033.75,7590.25,2,Long
2022-08-04,6556.5,1231.75,7788.25,2,Long
2022-08-05,6556.5,994.75,7551.25,2,Long
2022-08-07,6556.5,920.75,7477.25,2,Long
2022-08-08,6556.5,1006.75,7563.25,2,Long
2022-08-09,6556.5,670.75,7227.25,2,Long
2022-08-10,6556.5,1363.25,7919.75,2,Long
2022-08-11,6556.5,1236.75,7793.25,2,Long
2022-08-12,6556.5,1741.75,8298.25,3,Long
2022-08-14,6556.5,1621.0,8177.5,3,Long
2022-08-15,6556.5,2044.0,8600.5,3,Long
2022-08-16,6556.5,1956.25,8512.75,3,Long
2022-08-17,6556.5,1366.75,7923.25,3,Long
2022-08-18,6556.5,1582.0,8138.5,3,Long
2022-08-19,6556.5,749.5,7306.0,3,Long
2022-08-21,6556.5,562.75,7119.25,3,Long
2022-08-22,6556.5,-132.5,6424.0,3,Long
2022-08-23,6556.5,-313.25,6243.25,3,Long
2022-08-24,6556.5,-196.25,6360.25,3,Long
2022-08-25,6556.5,433.75,6990.25,3,Long
2022-08-26,6556.5,-1325.0,5231.5,3,Long
2022-08-28,5009.5,65.0,5074.5,1,Short
2022-08-29,5009.5,-48.25,4961.25,1,Short
2022-08-30,5009.5,118.0,5127.5,1,Short
2022-08-31,5009.5,306.5,5316.0,1,Short
2022-09-01,5009.5,185.5,5195.0,1,Short
2022-09-02,5009.5,354.5,5364.0,1,Short
2022-09-04,5009.5,360.75,5370.25,1,Short
2022-09-05,5009.5,336.0,5345.5,1,Short
2022-09-06,5009.5,477.5,5487.0,1,Short
2022-09-07,5009.5,225.75,5235.25,1,Short
2022-09-08,5009.5,133.25,5142.75,1,Short
2022-09-09,5009.5,-96.0,4913.5,2,Short
2022-09-11,5009.5,-176.5,4833.0,2,Short
2022-09-12,5009.5,-604.5,4405.0,2,Short
2022-09-13,5009.5,809.0,5818.5,2,Short
2022-09-14,5009.5,590.5,5600.0,2,Short
2022-09-15,5009.5,1255.5,6265.0,2,Short
2022-09-16,5009.5,1170.5,6180.0,2,Short
2022-09-18,5009.5,1226.0,6235.5,2,Short
2022-09-19,5009.5,930.0,5939.5,2,Short
2022-09-20,5009.5,1232.5,6242.0,2,Short
2022-09-21,5009.5,1861.5,6871.0,2,Short
2022-09-22,5009.5,1912.0,6921.5,2,Short
2022-09-23,5009.5,2278.75,7288.25,3,Short
2022-09-25,5009.5,2407.75,7417.25,3,Short
2022-09-26,5009.5,2396.5,7406.0,3,Short
2022-09-27,5009.5,2401.75,7411.25,3,Short
2022-09-28,5009.5,1841.5,6851.0,3,Short
2022-09-29,5009.5,2647.75,7657.25,3,Short
2022-09-30,5009.5,3273.25,8282.75,3,Short
2022-10-02,5009.5,3613.0,8622.5,3,Short
2022-10-03,5009.5,2410.75,7420.25,3,Short
2022-10-04,5009.5,1580.5,6590.0,3,Short
2022-10-05,5009.5,1345.0,6354.5,3,Short
2022-10-06,5009.5,1946.5,6956.0,3,Short
2022-10-07,5009.5,3137.0,8146.5,4,Short
2022-10-09,5009.5,3379.0,8388.5,4,Short
2022-10-10,5009.5,3464.0,8473.5,4,Short
2022-10-11,5009.5,4062.0,9071.5,4,Short
2022-10-12,5009.5,4045.0,9054.5,4,Short
2022-10-13,5009.5,3263.0,8272.5,4,Short
2022-10-14,5009.5,4527.0,9536.5,4,Short
2022-10-16,5009.5,4356.0,9365.5,4,Short
2022-10-17,5009.5,2677.0,7686.5,4,Short
2022-10-18,5009.5,2147.0,7156.5,4,Short
2022-10-19,5009.5,3166.0,8175.5,4,Short
2022-10-20,5009.5,3440.0,8449.5,4,Short
2022-10-21,5009.5,1984.25,6993.75,5,Short
2022-10-23,5009.5,1620.5,6630.0,5,Short
2022-10-24,5009.5,1508.0,6517.5,5,Short
2022-10-25,5009.5,1535.5,6545.0,5,Short
2022-10-26,5009.5,1386.75,6396.25,5,Short
2022-10-27,5009.5,3205.5,8215.0,5,Short
2022-10-28,5009.5,746.75,5756.25,5,Short
2022-10-30,5009.5,1093.0,6102.5,5,Short
2022-10-31,5009.5,1536.75,6546.25,5,Short
2022-11-01,5009.5,2216.75,7226.25,5,Short
2022-11-02,5009.5,4284.25,9293.75,5,Short
2022-11-03,5009.5,5326.75,10336.25,5,Short
2022-11-04,5009.5,4506.75,9516.25,5,Short
2022-11-06,5009.5,4899.25,9908.75,5,Short
2022-11-07,5009.5,3756.75,8766.25,5,Short
2022-11-08,5009.5,3254.25,8263.75,5,Short
2022-11-09,5009.5,4656.75,9666.25,5,Short
2022-11-10,5009.5,505.5,5515.0,5,Short
2022-11-11,5009.5,-295.75,4713.75,5,Short
2022-11-13,4910.0,15.25,4925.25,1,Long
2022-11-14,4910.0,-29.0,4881.0,1,Long
2022-11-15,4910.0,102.75,5012.75,1,Long
2022-11-16,4910.0,-16.0,4894.0,1,Long
2022-11-17,4910.0,-76.25,4833.75,1,Long
2022-11-18,4910.0,-86.5,4823.5,1,Long
2022-11-20,4910.0,-87.0,4823.0,1,Long
2022-11-21,4910.0,-202.0,4708.0,1,Long
2022-11-22,4910.0,-51.0,4859.0,1,Long
2022-11-23,4910.0,92.5,5002.5,1,Long
2022-11-24,4910.0,121.75,5031.75,1,Long
2022-11-25,4910.0,-12.0,4898.0,2,Long
2022-11-27,4910.0,-126.5,4783.5,2,Long
2022-11-28,4910.0,-342.5,4567.5,2,Long
2022-11-29,4910.0,-573.5,4336.5,2,Long
2022-11-30,4910.0,566.0,5476.0,2,Long
2022-12-01,4910.0,500.0,5410.0,2,Long
2022-12-02,4910.0,379.5,5289.5,2,Long
2022-12-04,4910.0,423.0,5333.0,2,Long
2022-12-05,4910.0,58.5,4968.5,2,Long
2022-12-06,4910.0,-423.5,4486.5,2,Long
2022-12-07,4910.0,-559.0,4351.0,2,Long
2022-12-08,4910.0,-305.0,4605.0,2,Long
2022-12-09,4910.0,-518.25,4391.75,3,Long
2022-12-11,4910.0,-569.25,4340.75,3,Long
2022-12-12,4910.0,306.0,5216.0,3,Long
2022-12-13,4910.0,702.0,5612.0,3,Long
2022-12-14,4910.0,471.75,5381.75,3,Long
2022-12-15,4910.0,-801.0,4109.0,3,Long
2022-12-16,4910.0,-1219.5,3690.5,3,Long
2022-12-18,4910.0,-1119.0,3791.0,3,Long
2022-12-19,4910.0,-1536.75,3373.25,3,Long
2022-12-20,3373.25,-9.75,3363.5,1,Short
2022-12-21,3373.25,-139.25,3234.0,1,Short
2022-12-22,3373.25,164.75,3538.0,1,Short
2022-12-23,3373.25,147.25,3520.5,1,Short
2022-12-26,3373.25,57.0,3430.25,1,Short
2022-12-27,3373.25,300.5,3673.75,1,Short
2022-12-28,3373.25,420.5,3793.75,1,Short
2022-12-29,3373.25,191.0,3564.25,1,Short
2022-12-30,3373.25,118.25,3491.5,2,Short
2023-01-02,3373.25,94.25,3467.5,2,Short
2023-01-03,3373.25,301.25,3674.5,2,Short
2023-01-04,3373.25,208.25,3581.5,2,Short
2023-01-05,3373.25,521.25,3894.5,2,Short
2023-01-06,3373.25,-15.75,3357.5,2,Short
2023-01-08,3373.25,-87.25,3286.0,2,Short
2023-01-09,3373.25,-148.25,3225.0,2,Short
2023-01-10,3373.25,-370.25,3003.0,2,Short
2023-01-11,3373.25,-749.75,2623.5,2,Short
2023-01-12,3373.25,-849.25,2524.0,2,Short
2023-01-13,3373.25,-1005.0,2368.25,3,Short
2023-01-15,3373.25,-962.25,2411.0,3,Short
2023-01-16,3373.25,-957.75,2415.5,3,Short
2023-01-17,3373.25,-984.75,2388.5,3,Short
2023-01-18,3373.25,-639.0,2734.25,3,Short
2023-01-19,3373.25,-352.5,3020.75,3,Short
2023-01-20,3373.25,-1230.0,2143.25,3,Short
2023-01-22,2138.75,-19.5,2119.25,1,Long
2023-01-23,2138.75,240.75,2379.5,1,Long
2023-01-24,2138.75,162.25,2301.0,1,Long
2023-01-25,2138.75,229.5,2368.25,1,Long
2023-01-26,2138.75,362.0,2500.75,1,Long
2023-01-27,2138.75,542.0,2680.75,1,Long
2023-01-29,2138.75,527.75,2666.5,1,Long
2023-01-30,2138.75,324.5,2463.25,1,Long
2023-01-31,2138.75,425.5,2564.25,1,Long
2023-02-01,2138.75,867.5,3006.25,1,Long
2023-02-02,2138.75,985.75,3124.5,1,Long
2023-02-03,2138.75,947.0,3085.75,2,Long
2023-02-05,2138.75,895.5,3034.25,2,Long
2023-02-06,2138.75,786.0,2924.75,2,Long
2023-02-07,2138.75,1214.0,3352.75,2,Long
2023-02-08,2138.75,836.0,2974.75,2,Long
2023-02-09,2138.75,583.5,2722.25,2,Long
2023-02-10,2138.75,387.0,2525.75,2,Long
2023-02-12,2138.75,327.5,2466.25,2,Long
2023-02-13,2138.75,791.5,2930.25,2,Long
2023-02-14,2138.75,929.5,3068.25,2,Long
2023-02-15,2138.75,1207.0,3345.75,2,Long
2023-02-16,2138.75,569.0,2707.75,2,Long
2023-02-17,2138.75,495.0,2633.75,3,Long
2023-02-19,2138.75,423.75,2562.5,3,Long
2023-02-20,2138.75,481.5,2620.25,3,Long
2023-02-21,2138.75,-312.0,1826.75,3,Long
2023-02-22,2138.75,-152.25,1986.5,3,Long
2023-02-23,2138.75,-133.5,2005.25,3,Long
2023-02-24,2138.75,-658.5,1480.25,3,Long
2023-02-26,2138.75,-603.0,1535.75,3,Long
2023-02-27,2138.75,-375.0,1763.75,3,Long
2023-02-28,2138.75,-588.75,1550.0,3,Long
2023-03-01,2138.75,-741.0,1397.75,3,Long
2023-03-02,2138.75,-543.75,1595.0,3,Long
2023-03-03,2138.75,354.5,2493.25,4,Long
2023-03-05,2138.75,217.5,2356.25,4,Long
2023-03-06,2138.75,370.5,2509.25,4,Long
2023-03-07,2138.75,-245.5,1893.25,4,Long
2023-03-08,2138.75,-51.5,2087.25,4,Long
2023-03-09,2138.75,-1008.5,1130.25,4,Long
2023-03-10,2138.75,-1410.5,728.25,4,Long
2023-03-12,1222.25,-104.25,1118.0,1,Short
2023-03-13,1222.25,-61.75,1160.5,1,Short
2023-03-14,1222.25,-317.25,905.0,1,Short
2023-03-15,1222.25,-395.25,827.0,1,Short
2023-03-16,1222.25,-714.75,507.5,1,Short
2023-03-17,508.0,-73.25,434.75,1,Long
2023-03-19,508.0,-17.0,491.0,1,Long
2023-03-20,508.0,-30.0,478.0,1,Long
2023-03-21,508.0,145.5,653.5,1,Long
2023-03-22,508.0,-4.25,503.75,1,Long
2023-03-23,508.0,142.0,650.0,1,Long
2023-03-24,508.0,201.25,709.25,1,Long
2023-03-26,508.0,224.75,732.75,1,Long
2023-03-27,508.0,99.5,607.5,1,Long
2023-03-28,508.0,36.5,544.5,1,Long
2023-03-29,508.0,220.0,728.0,1,Long
2023-03-30,508.0,373.0,881.0,1,Long
2023-03-31,508.0,628.25,1136.25,2,Long
2023-04-02,508.0,491.25,999.25,2,Long
2023-04-03,508.0,505.25,1013.25,2,Long
2023-04-04,508.0,492.75,1000.75,2,Long
2023-04-05,508.0,125.25,633.25,2,Long
2023-04-06,508.0,330.25,838.25,2,Long
2023-04-07,508.0,372.75,880.75,2,Long
2023-04-09,508.0,323.75,831.75,2,Long
2023-04-10,508.0,355.75,863.75,2,Long
2023-04-11,508.0,190.25,698.25,2,Long
2023-04-12,508.0,-125.75,382.25,2,Long
2023-04-13,508.0,394.75,902.75,2,Long
2023-04-14,508.0,427.0,935.0,3,Long
2023-04-16,508.0,388.75,896.75,3,Long
2023-04-17,508.0,365.5,873.5,3,Long
2023-04-18,508.0,354.25,862.25,3,Long
2023-04-19,508.0,213.25,721.25,3,Long
2023-04-20,508.0,76.0,584.0,3,Long
2023-04-21,508.0,55.0,563.0,3,Long
2023-04-23,508.0,34.0,542.0,3,Long
2023-04-24,508.0,-22.25,485.75,3,Long
2023-04-25,508.0,-290.75,217.25,3,Long
2023-04-26,508.0,-299.75,208.25,3,Long
2023-04-27,508.0,460.0,968.0,3,Long
2023-04-28,508.0,846.5,1354.5,4,Long
2023-04-30,508.0,767.5,1275.5,4,Long
2023-05-01,508.0,681.5,1189.5,4,Long
2023-05-02,508.0,267.5,775.5,4,Long
2023-05-03,508.0,-70.5,437.5,4,Long
2023-05-04,508.0,-86.5,421.5,4,Long
2023-05-05,508.0,780.5,1288.5,4,Long
2023-05-07,508.0,755.5,1263.5,4,Long
2023-05-08,508.0,886.5,1394.5,4,Long
2023-05-09,508.0,640.5,1148.5,4,Long
2023-05-10,508.0,1225.5,1733.5,4,Long
2023-05-11,508.0,1357.5,1865.5,4,Long
2023-05-12,508.0,1005.75,1513.75,5,Long
2023-05-14,508.0,989.5,1497.5,5,Long
2023-05-15,508.0,1449.5,1957.5,5,Long
2023-05-16,508.0,1655.75,2163.75,5,Long
2023-05-17,508.0,2374.5,2882.5,5,Long
2023-05-18,508.0,3805.75,4313.75,5,Long
2023-05-19,508.0,3365.75,3873.75,5,Long
2023-05-21,508.0,3427.0,3935.0,5,Long
2023-05-22,508.0,3874.5,4382.5,5,Long
2023-05-23,508.0,2900.75,3408.75,5,Long
2023-05-24,508.0,3394.5,3902.5,5,Long
2023-05-25,508.0,3984.5,4492.5,5,Long
2023-05-26,508.0,6014.5,6522.5,5,Long
2023-05-28,508.0,6242.0,6750.0,5,Long
2023-05-29,508.0,6089.5,6597.5,5,Long
2023-05-30,508.0,6268.25,6776.25,5,Long
2023-05-31,508.0,5709.5,6217.5,5,Long
2023-06-01,508.0,6575.75,7083.75,5,Long
2023-06-02,508.0,7092.0,7600.0,5,Long
2023-06-04,508.0,6842.0,7350.0,5,Long
2023-06-05,508.0,6988.25,7496.25,5,Long
2023-06-06,508.0,7134.5,7642.5,5,Long
2023-06-07,508.0,5810.75,6318.75,5,Long
2023-06-08,508.0,6659.5,7167.5,5,Long
2023-06-09,508.0,6974.5,7482.5,5,Long
2023-06-11,508.0,7115.75,7623.75,5,Long
2023-06-12,508.0,9173.25,9681.25,5,Long
2023-06-13,508.0,9685.75,10193.75,5,Long
2023-06-14,508.0,10230.75,10738.75,5,Long
2023-06-15,508.0,10955.75,11463.75,5,Long
2023-06-16,508.0,10665.75,11173.75,5,Long
2023-06-18,508.0,10674.5,11182.5,5,Long
2023-06-19,508.0,10402.0,10910.0,5,Long
2023-06-20,508.0,10468.25,10976.25,5,Long
2023-06-21,508.0,9363.25,9871.25,5,Long
2023-06-22,508.0,10267.0,10775.0,5,Long
2023-06-23,508.0,9435.75,9943.75,5,Long
2023-06-25,508.0,9662.0,10170.0,5,Long
2023-06-26,508.0,8623.25,9131.25,5,Long
2023-06-27,508.0,9454.5,9962.5,5,Long
2023-06-28,508.0,10019.5,10527.5,5,Long
2023-06-29,508.0,9742.0,10250.0,5,Long
2023-06-30,508.0,10745.75,11253.75,5,Long
2023-07-02,508.0,10913.25,11421.25,5,Long
2023-07-03,508.0,10847.0,11355.0,5,Long
2023-07-04,508.0,10860.75,11368.75,5,Long
2023-07-05,508.0,10948.25,11456.25,5,Long
2023-07-06,508.0,10290.75,10798.75,5,Long
2023-07-07,508.0,10117.0,10625.0,5,Long
2023-07-09,508.0,10063.25,10571.25,5,Long
2023-07-10,508.0,10120.75,10628.75,5,Long
2023-07-11,508.0,10482.0,10990.0,5,Long
2023-07-12,508.0,11518.25,12026.25,5,Long
2023-07-13,508.0,12720.75,13228.75,5,Long
2023-07-14,508.0,12620.75,13128.75,5,Long
2023-07-16,508.0,12493.25,13001.25,5,Long
2023-07-17,508.0,13249.5,13757.5,5,Long
2023-07-18,508.0,13964.5,14472.5,5,Long
2023-07-19,508.0,13443.25,13951.25,5,Long
2023-07-20,508.0,12058.25,12566.25,5,Long
2023-07-21,508.0,11933.25,12441.25,5,Long
2023-07-23,508.0,11904.5,12412.5,5,Long
2023-07-24,508.0,11995.75,12503.75,5,Long
2023-07-25,508.0,12347.0,12855.0,5,Long
2023-07-26,508.0,12424.5,12932.5,5,Long
2023-07-27,508.0,12090.75,12598.75,5,Long
2023-07-28,508.0,13385.75,13893.75,5,Long
2023-07-30,508.0,13594.5,14102.5,5,Long
2023-07-31,508.0,13459.5,13967.5,5,Long
2023-08-01,508.0,12923.25,13431.25,5,Long
2023-08-02,508.0,11618.25,12126.25,5,Long
2023-08-03,508.0,11564.5,12072.5,5,Long
2023-08-04,508.0,10983.25,11491.25,5,Long
2023-08-06,11515.0,-31.75,11483.25,1,Short
2023-08-07,11515.0,-118.25,11396.75,1,Short
2023-08-08,11515.0,16.75,11531.75,1,Short
2023-08-09,11515.0,150.75,11665.75,1,Short
2023-08-10,11515.0,130.25,11645.25,1,Short
2023-08-11,11515.0,266.25,11781.25,1,Short
2023-08-13,11515.0,232.5,11747.5,1,Short
2023-08-14,11515.0,68.5,11583.5,1,Short
2023-08-15,11515.0,248.0,11763.0,1,Short
2023-08-16,11515.0,439.5,11954.5,1,Short
2023-08-17,11515.0,615.0,12130.0,1,Short
2023-08-18,11515.0,675.75,12190.75,2,Short
2023-08-20,11515.0,605.75,12120.75,2,Short
2023-08-21,11515.0,254.75,11769.75,2,Short
2023-08-22,11515.0,235.25,11750.25,2,Short
2023-08-23,11515.0,-505.75,11009.25,2,Short
2023-08-24,11515.0,458.75,11973.75,2,Short
2023-08-25,11515.0,221.25,11736.25,2,Short
2023-08-27,11515.0,142.75,11657.75,2,Short
2023-08-28,11515.0,-29.25,11485.75,2,Short
2023-08-29,11515.0,-705.75,10809.25,2,Short
2023-08-30,10809.75,68.25,10878.0,1,Long
2023-08-31,10809.75,101.75,10911.5,1,Long
2023-09-01,10809.75,77.75,10887.5,1,Long
2023-09-03,10809.75,82.0,10891.75,1,Long
2023-09-04,10809.75,91.5,10901.25,1,Long
2023-09-05,10809.75,87.25,10897.0,1,Long
2023-09-06,10809.75,-43.5,10766.25,1,Long
2023-09-07,10809.75,-154.0,10655.75,1,Long
2023-09-08,10809.75,-79.75,10730.0,2,Long
2023-09-10,10809.75,-63.25,10746.5,2,Long
2023-09-11,10809.75,608.25,11418.0,2,Long
2023-09-12,10809.75,302.25,11112.0,2,Long
2023-09-13,10809.75,450.25,11260.0,2,Long
2023-09-14,10809.75,645.25,11455.0,2,Long
2023-09-15,10809.75,57.25,10867.0,2,Long
2023-09-17,10809.75,117.25,10927.0,2,Long
2023-09-18,10809.75,139.75,10949.5,2,Long
2023-09-19,10809.75,57.75,10867.5,2,Long
2023-09-20,10809.75,-481.75,10328.0,2,Long
2023-09-21,10809.75,-1006.25,9803.5,2,Long
2023-09-22,9803.5,-25.5,9778.0,1,Short
2023-09-24,9803.5,-46.25,9757.25,1,Short
2023-09-25,9803.5,-80.5,9723.0,1,Short
2023-09-26,9803.5,112.25,9915.75,1,Short
2023-09-27,9803.5,77.0,9880.5,1,Short
2023-09-28,9803.5,-16.0,9787.5,1,Short
2023-09-29,9803.5,-40.5,9763.0,1,Short
2023-10-01,9803.5,-101.5,9702.0,1,Short
2023-10-02,9803.5,-142.25,9661.25,1,Short
2023-10-03,9803.5,135.25,9938.75,1,Short
2023-10-04,9803.5,-63.5,9740.0,1,Short
2023-10-05,9803.5,-0.25,9803.25,1,Short
2023-10-06,9803.5,-292.0,9511.5,2,Short
2023-10-08,9803.5,-65.0,9738.5,2,Short
2023-10-09,9803.5,-407.5,9396.0,2,Short
2023-10-10,9803.5,-584.0,9219.5,2,Short
2023-10-11,9803.5,-839.5,8964.0,2,Short
2023-10-12,8965.0,-84.75,8880.25,1,Long
2023-10-13,8965.0,-308.0,8657.0,1,Long
2023-10-15,8965.0,-248.5,8716.5,1,Long
2023-10-16,8965.0,-124.0,8841.0,1,Long
2023-10-17,8965.0,-203.75,8761.25,1,Long
2023-10-18,8965.0,-377.0,8588.0,1,Long
2023-10-19,8965.0,-571.5,8393.5,1,Long
2023-10-20,8965.0,-800.0,8165.0,2,Long
2023-10-22,8965.0,-676.5,8288.5,2,Long
2023-10-23,8965.0,-571.0,8394.0,2,Long
2023-10-24,8965.0,-466.0,8499.0,2,Long
2023-10-25,8965.0,-1396.0,7569.0,2,Long
2023-10-26,7568.5,35.25,7603.75,1,Short
2023-10-27,7568.5,79.0,7647.5,1,Short
2023-10-29,7568.5,18.25,7586.75,1,Short
2023-10-30,7568.5,-48.0,7520.5,1,Short
2023-10-31,7568.5,-103.25,7465.25,1,Short
2023-11-01,7568.5,-442.75,7125.75,1,Short
2023-11-02,7568.5,-593.0,6975.5,1,Short
2023-11-03,7568.5,-834.5,6734.0,1,Short
2023-11-05,6731.5,-11.25,6720.25,1,Long
2023-11-06,6731.5,21.75,6753.25,1,Long
2023-11-07,6731.5,181.25,6912.75,1,Long
2023-11-08,6731.5,171.0,6902.5,1,Long
2023-11-09,6731.5,45.75,6777.25,1,Long
2023-11-10,6731.5,394.25,7125.75,1,Long
2023-11-12,6731.5,373.25,7104.75,1,Long
2023-11-13,6731.5,371.5,7103.0,1,Long
2023-11-14,6731.5,717.75,7449.25,1,Long
2023-11-15,6731.5,678.0,7409.5,1,Long
2023-11-16,6731.5,698.75,7430.25,1,Long
2023-11-17,6731.5,687.75,7419.25,2,Long
2023-11-19,6731.5,667.25,7398.75,2,Long
2023-11-20,6731.5,1141.25,7872.75,2,Long
2023-11-21,6731.5,848.25,7579.75,2,Long
2023-11-22,6731.5,1031.25,7762.75,2,Long
2023-11-23,6731.5,1068.75,7800.25,2,Long
2023-11-24,6731.5,961.25,7692.75,2,Long
2023-11-26,6731.5,912.25,7643.75,2,Long
2023-11-27,6731.5,959.25,7690.75,2,Long
2023-11-28,6731.5,1046.25,7777.75,2,Long
2023-11-29,6731.5,1033.75,7765.25,2,Long
2023-11-30,6731.5,868.75,7600.25,2,Long
2023-12-01,6731.5,1014.5,7746.0,3,Long
2023-12-03,6731.5,897.5,7629.0,3,Long
2023-12-04,6731.5,470.0,7201.5,3,Long
2023-12-05,6731.5,705.5,7437.0,3,Long
2023-12-06,6731.5,371.0,7102.5,3,Long
2023-12-07,6731.5,981.5,7713.0,3,Long
2023-12-08,6731.5,1199.0,7930.5,3,Long
2023-12-10,6731.5,1235.0,7966.5,3,Long
2023-12-11,6731.5,2285.75,9017.25,3,Long
2023-12-12,6731.5,2750.0,9481.5,3,Long
2023-12-13,6731.5,3369.5,10101.0,3,Long
2023-12-14,6731.5,3203.0,9934.5,3,Long
2023-12-15,6731.5,3350.5,10082.0,4,Long
2023-12-17,6731.5,3381.5,10113.0,4,Long
2023-12-18,6731.5,3783.5,10515.0,4,Long
2023-12-19,6731.5,4197.5,10929.0,4,Long
2023-12-20,6731.5,3333.5,10065.0,4,Long
2023-12-21,6731.5,3854.5,10586.0,4,Long
2023-12-22,6731.5,3936.5,10668.0,4,Long
2023-12-25,6731.5,4102.5,10834.0,4,Long
2023-12-26,6731.5,4444.5,11176.0,4,Long
2023-12-27,6731.5,4573.5,11305.0,4,Long
2023-12-28,6731.5,4489.5,11221.0,4,Long
2023-12-29,6731.5,4089.0,10820.5,5,Long
2024-01-01,6731.5,4217.75,10949.25,5,Long
2024-01-02,6731.5,2691.5,9423.0,5,Long
2024-01-03,6731.5,1816.5,8548.0,5,Long
2024-01-04,8548.0,93.0,8641.0,1,Short
2024-01-05,8548.0,83.5,8631.5,1,Short
2024-01-07,8548.0,66.75,8614.75,1,Short
2024-01-08,8548.0,-235.75,8312.25,1,Short
2024-01-09,8548.0,-288.5,8259.5,1,Short
2024-01-10,8548.0,-411.25,8136.75,1,Short
2024-01-11,8548.0,-402.25,8145.75,1,Short
2024-01-12,8548.0,-389.25,8158.75,2,Short
2024-01-14,8548.0,-369.75,8178.25,2,Short
2024-01-15,8548.0,-349.75,8198.25,2,Short
2024-01-16,8548.0,-437.75,8110.25,2,Short
2024-01-17,8110.25,-125.5,7984.75,1,Long
2024-01-18,8110.25,169.5,8279.75,1,Long
2024-01-19,8110.25,484.0,8594.25,1,Long
2024-01-21,8110.25,504.5,8614.75,1,Long
2024-01-22,8110.25,485.25,8595.5,1,Long
2024-01-23,8110.25,596.75,8707.0,1,Long
2024-01-24,8110.25,637.75,8748.0,1,Long
2024-01-25,8110.25,563.25,8673.5,1,Long
2024-01-26,8110.25,498.75,8609.0,2,Long
2024-01-28,8110.25,448.75,8559.0,2,Long
2024-01-29,8110.25,933.25,9043.5,2,Long
2024-01-30,8110.25,385.75,8496.0,2,Long
2024-01-31,8110.25,54.25,8164.5,2,Long
2024-02-01,8110.25,676.25,8786.5,2,Long
2024-02-02,8110.25,861.25,8971.5,2,Long
2024-02-04,8110.25,904.25,9014.5,2,Long
2024-02-05,8110.25,881.75,8992.0,2,Long
2024-02-06,8110.25,793.25,8903.5,2,Long
2024-02-07,8110.25,1174.25,9284.5,2,Long
2024-02-08,8110.25,1223.75,9334.0,2,Long
2024-02-09,8110.25,1567.5,9677.75,3,Long
2024-02-11,8110.25,1559.25,9669.5,3,Long
2024-02-12,8110.25,1266.0,9376.25,3,Long
2024-02-13,8110.25,525.0,8635.25,3,Long
2024-02-14,8110.25,1090.5,9200.75,3,Long
2024-02-15,8110.25,1311.75,9422.0,3,Long
2024-02-16,8110.25,618.0,8728.25,3,Long
2024-02-18,8110.25,786.75,8897.0,3,Long
2024-02-19,8110.25,699.0,8809.25,3,Long
2024-02-20,8110.25,159.0,8269.25,3,Long
2024-02-21,8110.25,566.25,8676.5,3,Long
2024-02-22,8110.25,1578.75,9689.0,3,Long
2024-02-23,8110.25,1291.5,9401.75,4,Long
2024-02-25,8110.25,1377.5,9487.75,4,Long
2024-02-26,8110.25,1299.5,9409.75,4,Long
2024-02-27,8110.25,1467.5,9577.75,4,Long
2024-02-28,8110.25,926.5,9036.75,4,Long
2024-02-29,8110.25,1685.5,9795.75,4,Long
2024-03-01,8110.25,2733.5,10843.75,4,Long
2024-03-03,8110.25,2821.5,10931.75,4,Long
2024-03-04,8110.25,2340.5,10450.75,4,Long
2024-03-05,8110.25,1297.5,9407.75,4,Long
2024-03-06,8110.25,1521.5,9631.75,4,Long
2024-03-07,8110.25,2512.5,10622.75,4,Long
2024-03-08,8110.25,1655.25,9765.5,5,Long
2024-03-10,8110.25,1592.75,9703.0,5,Long
2024-03-11,8110.25,2849.0,10959.25,5,Long
2024-03-12,8110.25,3771.5,11881.75,5,Long
2024-03-13,8110.25,3244.0,11354.25,5,Long
2024-03-14,8110.25,2571.5,10681.75,5,Long
2024-03-15,8110.25,1696.5,9806.75,5,Long
2024-03-17,8110.25,1774.0,9884.25,5,Long
2024-03-18,8110.25,2336.5,10446.75,5,Long
2024-03-19,8110.25,2721.5,10831.75,5,Long
2024-03-20,8110.25,4272.75,12383.0,5,Long
2024-03-21,8110.25,4324.0,12434.25,5,Long
2024-03-22,8110.25,4199.0,12309.25,5,Long
2024-03-24,8110.25,4309.0,12419.25,5,Long
2024-03-25,8110.25,4081.5,12191.75,5,Long
2024-03-26,8110.25,3825.25,11935.5,5,Long
2024-03-27,8110.25,3780.25,11890.5,5,Long
2024-03-28,8110.25,3705.25,11815.5,5,Long
2024-03-31,8110.25,4421.5,12531.75,5,Long
2024-04-01,8110.25,3730.25,11840.5,5,Long
2024-04-02,8110.25,3021.5,11131.75,5,Long
2024-04-03,8110.25,3607.75,11718.0,5,Long
2024-04-04,8110.25,1836.5,9946.75,5,Long
2024-04-05,8110.25,2931.5,11041.75,5,Long
2024-04-07,8110.25,2974.0,11084.25,5,Long
2024-04-08,8110.25,2887.75,10998.0,5,Long
2024-04-09,8110.25,3219.0,11329.25,5,Long
2024-04-10,8110.25,2171.5,10281.75,5,Long
2024-04-11,8110.25,3830.25,11940.5,5,Long
2024-04-12,8110.25,2236.5,10346.75,5,Long
2024-04-14,8110.25,2567.75,10678.0,5,Long
2024-04-15,8110.25,731.5,8841.75,5,Long
2024-04-16,8848.0,-64.0,8784.0,1,Short
2024-04-17,8848.0,185.5,9033.5,1,Short
2024-04-18,8848.0,382.25,9230.25,1,Short
2024-04-19,8848.0,691.75,9539.75,1,Short
2024-04-21,8848.0,601.75,9449.75,1,Short
2024-04-22,8848.0,549.25,9397.25,1,Short
2024-04-23,8848.0,171.75,9019.75,1,Short
2024-04-24,8848.0,409.5,9257.5,1,Short
2024-04-25,8848.0,112.75,8960.75,1,Short
2024-04-26,8848.0,68.5,8916.5,2,Short
2024-04-28,8848.0,-30.5,8817.5,2,Short
2024-04-29,8848.0,-76.5,8771.5,2,Short
2024-04-30,8848.0,727.5,9575.5,2,Short
2024-05-01,8848.0,682.0,9530.0,2,Short
2024-05-02,8848.0,234.5,9082.5,2,Short
2024-05-03,8848.0,-313.0,8535.0,2,Short
2024-05-05,8848.0,-266.5,8581.5,2,Short
2024-05-06,8848.0,-625.5,8222.5,2,Short
2024-05-07,8222.5,20.5,8243.0,1,Long
2024-05-08,8222.5,-22.0,8200.5,1,Long
2024-05-09,8222.5,47.5,8270.0,1,Long
2024-05-10,8222.5,55.75,8278.25,1,Long
2024-05-12,8222.5,61.75,8284.25,1,Long
2024-05-13,8222.5,100.0,8322.5,1,Long
2024-05-14,8222.5,233.25,8455.75,1,Long
2024-05-15,8222.5,537.25,8759.75,1,Long
2024-05-16,8222.5,467.5,8690.0,1,Long
2024-05-17,8222.5,463.0,8685.5,2,Long
2024-05-19,8222.5,529.5,8752.0,2,Long
2024-05-20,8222.5,699.0,8921.5,2,Long
2024-05-21,8222.5,822.5,9045.0,2,Long
2024-05-22,8222.5,945.0,9167.5,2,Long
2024-05-23,8222.5,597.5,8820.0,2,Long
2024-05-24,8222.5,938.5,9161.0,2,Long
2024-05-26,8222.5,868.0,9090.5,2,Long
2024-05-27,8222.5,1011.5,9234.0,2,Long
2024-05-28,8222.5,1055.0,9277.5,2,Long
2024-05-29,8222.5,642.0,8864.5,2,Long
2024-05-30,8222.5,313.0,8535.5,2,Long
2024-05-31,8222.5,397.5,8620.0,3,Long
2024-06-02,8222.5,458.25,8680.75,3,Long
2024-06-03,8222.5,633.75,8856.25,3,Long
2024-06-04,8222.5,895.5,9118.0,3,Long
2024-06-05,8222.5,1956.0,10178.5,3,Long
2024-06-06,8222.5,1907.25,10129.75,3,Long
2024-06-07,8222.5,1775.25,9997.75,3,Long
2024-06-09,8222.5,1763.25,9985.75,3,Long
2024-06-10,8222.5,1936.5,10159.0,3,Long
2024-06-11,8222.5,2452.5,10675.0,3,Long
2024-06-12,8222.5,3483.0,11705.5,3,Long
2024-06-13,8222.5,3537.75,11760.25,3,Long
2024-06-14,8222.5,3811.0,12033.5,4,Long
2024-06-16,8222.5,3872.0,12094.5,4,Long
2024-06-17,8222.5,5846.0,14068.5,4,Long
2024-06-18,8222.5,5919.0,14141.5,4,Long
2024-06-19,8222.5,5970.0,14192.5,4,Long
2024-06-20,8222.5,5304.0,13526.5,4,Long
2024-06-21,8222.5,5062.0,13284.5,4,Long
2024-06-23,8222.5,5059.0,13281.5,4,Long
2024-06-24,8222.5,4113.0,12335.5,4,Long
2024-06-25,8222.5,4889.0,13111.5,4,Long
2024-06-26,8222.5,4701.0,12923.5,4,Long
2024-06-27,8222.5,5408.0,13630.5,4,Long
2024-06-28,8222.5,4859.0,13081.5,5,Long
2024-06-30,8222.5,4754.0,12976.5,5,Long
2024-07-01,8222.5,5119.0,13341.5,5,Long
2024-07-02,8222.5,6212.75,14435.25,5,Long
2024-07-03,8222.5,7035.25,15257.75,5,Long
2024-07-04,8222.5,6976.5,15199.0,5,Long
2024-07-05,8222.5,7975.25,16197.75,5,Long
2024-07-07,8222.5,7976.5,16199.0,5,Long
2024-07-08,8222.5,8715.25,16937.75,5,Long
2024-07-09,8222.5,8511.5,16734.0,5,Long
2024-07-10,8222.5,9430.25,17652.75,5,Long
2024-07-11,8222.5,7096.5,15319.0,5,Long
2024-07-12,8222.5,7722.75,15945.25,5,Long
2024-07-14,8222.5,7824.0,16046.5,5,Long
2024-07-15,8222.5,8182.75,16405.25,5,Long
2024-07-16,8222.5,7850.25,16072.75,5,Long
2024-07-17,8222.5,5316.5,13539.0,5,Long
2024-07-18,13534.0,111.75,13645.75,1,Short
2024-07-19,13534.0,356.0,13890.0,1,Short
2024-07-21,13534.0,240.75,13774.75,1,Short
2024-07-22,13534.0,103.0,13637.0,1,Short
2024-07-23,13534.0,265.0,13799.0,1,Short
2024-07-24,13534.0,786.25,14320.25,1,Short
2024-07-25,13534.0,1034.0,14568.0,1,Short
2024-07-26,13534.0,885.0,14419.0,2,Short
2024-07-28,13534.0,753.5,14287.5,2,Short
2024-07-29,13534.0,970.5,14504.5,2,Short
2024-07-30,13534.0,1115.0,14649.0,2,Short
2024-07-31,13534.0,-112.0,13422.0,2,Short
2024-08-01,13534.0,1409.5,14943.5,2,Short
2024-08-02,13534.0,2217.0,15751.0,2,Short
2024-08-04,13534.0,2707.5,16241.5,2,Short
2024-08-05,13534.0,2664.5,16198.5,2,Short
2024-08-06,13534.0,3122.5,16656.5,2,Short
2024-08-07,13534.0,3546.5,17080.5,2,Short
2024-08-08,13534.0,2032.5,15566.5,2,Short
2024-08-09,13534.0,2047.75,15581.75,3,Short
2024-08-11,13534.0,1972.0,15506.0,3,Short
2024-08-12,13534.0,1891.75,15425.75,3,Short
2024-08-13,13534.0,505.75,14039.75,3,Short
2024-08-14,14039.0,-10.0,14029.0,1,Long
2024-08-15,14039.0,497.0,14536.0,1,Long
2024-08-16,14039.0,487.5,14526.5,1,Long
2024-08-18,14039.0,531.5,14570.5,1,Long
2024-08-19,14039.0,744.0,14783.0,1,Long
2024-08-20,14039.0,673.0,14712.0,1,Long
2024-08-21,14039.0,819.5,14858.5,1,Long
2024-08-22,14039.0,521.75,14560.75,1,Long
2024-08-23,14039.0,674.5,14713.5,2,Long
2024-08-25,14039.0,645.0,14684.0,2,Long
2024-08-26,14039.0,261.5,14300.5,2,Long
2024-08-27,14039.0,293.0,14332.0,2,Long
2024-08-28,14039.0,-495.5,13543.5,2,Long
2024-08-29,14039.0,-21.0,14018.0,2,Long
2024-08-30,14039.0,307.0,14346.0,2,Long
2024-09-01,14039.0,291.0,14330.0,2,Long
2024-09-02,14039.0,280.0,14319.0,2,Long
2024-09-03,14039.0,-966.0,13073.0,2,Long
2024-09-04,14039.0,-1015.5,13023.5,2,Long
2024-09-05,14039.0,-1056.0,12983.0,2,Long
2024-09-06,14039.0,-2126.0,11913.0,2,Long
2024-09-08,11957.0,-47.0,11910.0,1,Short
2024-09-09,11957.0,-313.5,11643.5,1,Short
2024-09-10,11957.0,-437.5,11519.5,1,Short
2024-09-11,11957.0,-844.75,11112.25,1,Short
2024-09-12,11957.0,-1053.0,10904.0,1,Short
2024-09-13,11957.0,-1104.5,10852.5,1,Short
2024-09-15,10858.25,40.25,10898.5,1,Long
2024-09-16,10858.25,174.75,11033.0,1,Long
2024-09-17,10858.25,207.25,11065.5,1,Long
2024-09-18,10858.25,265.25,11123.5,1,Long
2024-09-19,10858.25,551.0,11409.25,1,Long
2024-09-20,10858.25,516.25,11374.5,1,Long
2024-09-22,10858.25,564.0,11422.25,1,Long
2024-09-23,10858.25,570.25,11428.5,1,Long
2024-09-24,10858.25,681.5,11539.75,1,Long
2024-09-25,10858.25,779.5,11637.75,1,Long
2024-09-26,10858.25,845.75,11704.0,1,Long
2024-09-27,10858.25,674.5,11532.75,2,Long
2024-09-29,10858.25,832.5,11690.75,2,Long
2024-09-30,10858.25,782.5,11640.75,2,Long
2024-10-01,10858.25,152.5,11010.75,2,Long
2024-10-02,10858.25,397.0,11255.25,2,Long
2024-10-03,10858.25,253.5,11111.75,2,Long
2024-10-04,10858.25,694.0,11552.25,2,Long
2024-10-06,10858.25,748.5,11606.75,2,Long
2024-10-07,10858.25,253.5,11111.75,2,Long
2024-10-08,10858.25,833.5,11691.75,2,Long
2024-10-09,10858.25,1188.0,12046.25,2,Long
2024-10-10,10858.25,1190.5,12048.75,2,Long
2024-10-11,10858.25,1051.5,11909.75,3,Long
2024-10-13,10858.25,1095.75,11954.0,3,Long
2024-10-14,10858.25,1710.0,12568.25,3,Long
2024-10-15,10858.25,870.0,11728.25,3,Long
2024-10-16,10858.25,756.0,11614.25,3,Long
2024-10-17,10858.25,1029.75,11888.0,3,Long
2024-10-18,10858.25,1267.5,12125.75,3,Long
2024-10-20,10858.25,1355.25,12213.5,3,Long
2024-10-21,10858.25,1362.0,12220.25,3,Long
2024-10-22,10858.25,1403.25,12261.5,3,Long
2024-10-23,10858.25,684.75,11543.0,3,Long
2024-10-24,10858.25,957.75,11816.0,3,Long
2024-10-25,10858.25,1204.0,12062.25,4,Long
2024-10-27,10858.25,1689.0,12547.25,4,Long
2024-10-28,10858.25,1327.0,12185.25,4,Long
2024-10-29,10858.25,2287.0,13145.25,4,Long
2024-10-30,10858.25,1001.0,11859.25,4,Long
2024-10-31,10858.25,-409.0,10449.25,4,Long
2024-11-01,10858.25,-27.0,10831.25,4,Long
2024-11-03,10858.25,-165.0,10693.25,4,Long
2024-11-04,10858.25,-352.0,10506.25,4,Long
2024-11-05,10858.25,671.0,11529.25,4,Long
2024-11-06,10858.25,2859.0,13717.25,4,Long
2024-11-07,10858.25,4202.0,15060.25,4,Long
2024-11-08,10858.25,4211.5,15069.75,5,Long
2024-11-10,10858.25,4596.5,15454.75,5,Long
2024-11-11,10858.25,4156.5,15014.75,5,Long
2024-11-12,10858.25,3876.5,14734.75,5,Long
2024-11-13,10858.25,3906.5,14764.75,5,Long
2024-11-14,10858.25,2824.0,13682.25,5,Long
2024-11-15,10858.25,594.0,11452.25,5,Long
2024-11-17,10858.25,917.75,11776.0,5,Long
2024-11-18,10858.25,1187.75,12046.0,5,Long
2024-11-19,10858.25,1991.5,12849.75,5,Long
2024-11-20,10858.25,1839.0,12697.25,5,Long
2024-11-21,10858.25,1944.0,12802.25,5,Long
2024-11-22,10858.25,2467.75,13326.0,5,Long
2024-11-24,10858.25,2754.0,13612.25,5,Long
2024-11-25,10858.25,2246.5,13104.75,5,Long
2024-11-26,10858.25,3004.0,13862.25,5,Long
2024-11-27,10858.25,2191.5,13049.75,5,Long
2024-11-28,10858.25,2514.0,13372.25,5,Long
2024-11-29,10858.25,3032.75,13891.0,5,Long
2024-12-01,10858.25,2897.75,13756.0,5,Long
2024-12-02,10858.25,4144.0,15002.25,5,Long
2024-12-03,10858.25,4739.0,15597.25,5,Long
2024-12-04,10858.25,5626.5,16484.75,5,Long
2024-12-05,10858.25,5354.0,16212.25,5,Long
2024-12-06,10858.25,6245.25,17103.5,5,Long
2024-12-08,10858.25,6364.0,17222.25,5,Long
2024-12-09,10858.25,5402.75,16261.0,5,Long
2024-12-10,10858.25,5217.75,16076.0,5,Long
2024-12-11,10858.25,6866.5,17724.75,5,Long
2024-12-12,10858.25,6797.75,17656.0,5,Long
2024-12-13,10858.25,6877.75,17736.0,5,Long
2024-12-15,10858.25,7021.5,17879.75,5,Long
2024-12-16,10858.25,8570.25,19428.5,5,Long
2024-12-17,10858.25,9446.5,20304.75,5,Long
2024-12-18,10858.25,5430.25,16288.5,5,Long
2024-12-19,16294.75,98.0,16392.75,1,Short
2024-12-20,16294.75,-80.75,16214.0,1,Short
2024-12-22,16294.75,-184.0,16110.75,1,Short
2024-12-23,16294.75,-265.0,16029.75,1,Short
2024-12-24,16294.75,-574.0,15720.75,1,Short
2024-12-25,16294.75,-587.75,15707.0,1,Short
2024-12-26,16294.75,-533.5,15761.25,1,Short
2024-12-27,16294.75,-326.75,15968.0,2,Short
2024-12-29,16294.75,-291.25,16003.5,2,Short
2024-12-30,16294.75,331.25,16626.0,2,Short
2024-12-31,16294.75,643.75,16938.5,2,Short
2025-01-01,16294.75,578.75,16873.5,2,Short
2025-01-02,16294.75,787.25,17082.0,2,Short
2025-01-03,16294.75,133.25,16428.0,2,Short
2025-01-05,16294.75,63.25,16358.0,2,Short
2025-01-06,16294.75,-428.75,15866.0,2,Short
2025-01-07,16294.75,327.75,16622.5,2,Short
2025-01-08,16294.75,483.25,16778.0,2,Short
2025-01-09,16294.75,637.75,16932.5,2,Short
2025-01-10,16294.75,1126.5,17421.25,3,Short
2025-01-12,16294.75,1114.5,17409.25,3,Short
2025-01-13,16294.75,978.75,17273.5,3,Short
2025-01-14,16294.75,1271.25,17566.0,3,Short
2025-01-15,16294.75,-131.25,16163.5,3,Short
2025-01-16,16294.75,411.75,16706.5,3,Short
2025-01-17,16294.75,-655.5,15639.25,3,Short
2025-01-19,16294.75,-520.5,15774.25,3,Short
2025-01-20,16294.75,-1080.75,15214.0,3,Short
2025-01-21,16294.75,-1313.25,14981.5,3,Short
2025-01-22,16294.75,-1781.25,14513.5,3,Short
2025-01-23,14513.5,45.25,14558.75,1,Long
2025-01-24,14513.5,-57.0,14456.5,1,Long
2025-01-26,14513.5,-299.5,14214.0,1,Long
2025-01-27,14513.5,-638.0,13875.5,1,Long
2025-01-28,14513.5,-420.0,14093.5,1,Long
2025-01-29,14513.5,-427.0,14086.5,1,Long
2025-01-30,14513.5,-267.0,14246.5,1,Long
2025-01-31,14513.5,-421.0,14092.5,2,Long
2025-02-02,14513.5,-1337.0,13176.5,2,Long
2025-02-03,14513.5,-420.5,14093.0,2,Long
2025-02-04,14513.5,-429.0,14084.5,2,Long
2025-02-05,14513.5,-16.0,14497.5,2,Long
2025-02-06,14513.5,144.5,14658.0,2,Long
2025-02-07,14513.5,-412.5,14101.0,2,Long
2025-02-09,14513.5,-270.5,14243.0,2,Long
2025-02-10,14513.5,27.0,14540.5,2,Long
2025-02-11,14513.5,58.5,14572.0,2,Long
2025-02-12,14513.5,213.0,14726.5,2,Long
2025-02-13,14513.5,605.5,15119.0,2,Long
2025-02-14,14513.5,847.75,15361.25,3,Long
2025-02-16,14513.5,873.25,15386.75,3,Long
2025-02-17,14513.5,900.25,15413.75,3,Long
2025-02-18,14513.5,990.25,15503.75,3,Long
2025-02-19,14513.5,891.25,15404.75,3,Long
2025-02-20,14513.5,723.25,15236.75,3,Long
2025-02-21,14513.5,-782.75,13730.75,3,Long
2025-02-23,14513.5,-487.25,14026.25,3,Long
2025-02-24,14513.5,-1605.5,12908.0,3,Long
2025-02-25,14513.5,-2084.75,12428.75,3,Long
2025-02-26,12428.0,12.25,12440.25,1,Short
2025-02-27,12428.0,551.25,12979.25,1,Short
2025-02-28,12428.0,315.25,12743.25,1,Short
2025-03-02,12428.0,256.5,12684.5,1,Short
2025-03-03,12428.0,710.75,13138.75,1,Short
2025-03-04,12428.0,646.25,13074.25,1,Short
2025-03-05,12428.0,619.75,13047.75,1,Short
2025-03-06,12428.0,1038.25,13466.25,1,Short
2025-03-07,12428.0,1031.25,13459.25,2,Short
2025-03-09,12428.0,1377.25,13805.25,2,Short
2025-03-10,12428.0,2836.75,15264.75,2,Short
2025-03-11,12428.0,2490.75,14918.75,2,Short
2025-03-12,12428.0,2076.75,14504.75,2,Short
2025-03-13,12428.0,2726.75,15154.75,2,Short
2025-03-14,12428.0,2111.75,14539.75,2,Short
2025-03-16,12428.0,2275.25,14703.25,2,Short
2025-03-17,12428.0,1803.25,14231.25,2,Short
2025-03-18,12428.0,2027.25,14455.25,2,Short
2025-03-19,12428.0,1381.75,13809.75,2,Short
2025-03-20,12428.0,1674.25,14102.25,2,Short
2025-03-21,12428.0,1383.25,13811.25,3,Short
2025-03-23,12428.0,972.25,13400.25,3,Short
2025-03-24,12428.0,232.75,12660.75,3,Short
2025-03-25,12428.0,-275.0,12153.0,3,Short
2025-03-26,12428.0,1120.0,13548.0,3,Short
2025-03-27,12428.0,1400.5,13828.5,3,Short
2025-03-28,12428.0,3209.5,15637.5,3,Short
2025-03-30,12428.0,3523.0,15951.0,3,Short
2025-03-31,12428.0,3219.25,15647.25,3,Short
2025-04-01,12428.0,2364.25,14792.25,3,Short
2025-04-02,12428.0,4655.5,17083.5,3,Short
2025-04-03,12428.0,5333.5,17761.5,3,Short
2025-04-04,12428.0,9054.75,21482.75,4,Short
2025-04-06,12428.0,12116.75,24544.75,4,Short
2025-04-07,12428.0,7939.75,20367.75,4,Short
2025-04-08,12428.0,11029.75,23457.75,4,Short
2025-04-09,12428.0,1746.75,14174.75,4,Short
2025-04-10,14176.75,-956.0,13220.75,1,Long
2025-04-11,14176.75,-493.75,13683.0,1,Long
2025-04-13,14176.75,-299.75,13877.0,1,Long
2025-04-14,14176.75,-462.5,13714.25,1,Long
2025-04-15,14176.75,-584.5,13592.25,1,Long
2025-04-16,14176.75,-910.25,13266.5,1,Long
2025-04-17,14176.75,-882.75,13294.0,1,Long
2025-04-20,14176.75,-998.5,13178.25,1,Long
2025-04-21,14176.75,-1309.5,12867.25,1,Long
2025-04-22,14176.75,-551.5,13625.25,1,Long
2025-04-23,14176.75,-473.25,13703.5,1,Long
2025-04-24,14176.75,99.75,14276.5,1,Long
2025-04-25,14176.75,322.5,14499.25,2,Long
2025-04-27,14176.75,121.5,14298.25,2,Long
2025-04-28,14176.75,270.0,14446.75,2,Long
2025-04-29,14176.75,339.5,14516.25,2,Long
2025-04-30,14176.75,1047.0,15223.75,2,Long
2025-05-01,14176.75,793.5,14970.25,2,Long
2025-05-02,14176.75,1614.0,15790.75,2,Long
2025-05-04,14176.75,1383.5,15560.25,2,Long
2025-05-05,14176.75,1230.0,15406.75,2,Long
2025-05-06,14176.75,1348.0,15524.75,2,Long
2025-05-07,14176.75,1117.5,15294.25,2,Long
2025-05-08,14176.75,1491.5,15668.25,2,Long
2025-05-09,14176.75,1510.0,15686.75,3,Long
2025-05-11,14176.75,2429.5,16606.25,3,Long
2025-05-12,14176.75,3796.0,17972.75,3,Long
2025-05-13,14176.75,4947.25,19124.0,3,Long
2025-05-14,14176.75,5197.0,19373.75,3,Long
2025-05-15,14176.75,5314.75,19491.5,3,Long
2025-05-16,14176.75,5283.25,19460.0,3,Long
2025-05-18,14176.75,5215.0,19391.75,3,Long
2025-05-19,14176.75,5689.75,19866.5,3,Long
2025-05-20,14176.75,5365.75,19542.5,3,Long
2025-05-21,14176.75,4512.25,18689.0,3,Long
2025-05-22,14176.75,4606.75,18783.5,3,Long
2025-05-23,14176.75,3867.75,18044.5,4,Long
2025-05-25,14176.75,4809.75,18986.5,4,Long
2025-05-26,14176.75,4998.75,19175.5,4,Long
2025-05-27,14176.75,5936.75,20113.5,4,Long
2025-05-28,14176.75,7118.75,21295.5,4,Long
2025-05-29,14176.75,5322.75,19499.5,4,Long
2025-05-30,14176.75,5530.75,19707.5,4,Long
2025-06-01,14176.75,5268.75,19445.5,4,Long
2025-06-02,14176.75,6033.75,20210.5,4,Long
2025-06-03,14176.75,6875.75,21052.5,4,Long
2025-06-04,14176.75,7019.75,21196.5,4,Long
2025-06-05,14176.75,6238.75,20415.5,4,Long
2025-06-06,14176.75,7303.5,21480.25,5,Long
2025-06-08,14176.75,7063.5,21240.25,5,Long
2025-06-09,14176.75,7414.75,21591.5,5,Long
2025-06-10,14176.75,8028.5,22205.25,5,Long
2025-06-11,14176.75,7447.25,21624.0,5,Long
2025-06-12,14176.75,7174.75,21351.5,5,Long
2025-06-13,14176.75,6524.75,20701.5,5,Long
2025-06-15,14176.75,6691.0,20867.75,5,Long
2025-06-16,14176.75,8333.5,22510.25,5,Long
2025-06-17,14176.75,7782.25,21959.0,5,Long
2025-06-18,14176.75,7998.5,22175.25,5,Long
2025-06-19,14176.75,7689.75,21866.5,5,Long
2025-06-20,14176.75,7624.75,21801.5,5,Long
2025-06-22,14176.75,7058.5,21235.25,5,Long
2025-06-23,14176.75,9436.0,23612.75,5,Long
2025-06-24,14176.75,10376.0,24552.75,5,Long
2025-06-25,14176.75,10579.75,24756.5,5,Long
2025-06-26,14176.75,11643.5,25820.25,5,Long
2025-06-27,14176.75,11956.0,26132.75,5,Long
2025-06-29,14176.75,12341.0,26517.75,5,Long
2025-06-30,14176.75,12662.25,26839.0,5,Long
2025-07-01,14176.75,11796.0,25972.75,5,Long
2025-07-02,14176.75,12497.25,26674.0,5,Long
2025-07-03,14176.75,13428.5,27605.25,5,Long
2025-07-04,14176.75,12777.25,26954.0,5,Long
2025-07-06,14176.75,13173.5,27350.25,5,Long
2025-07-07,14176.75,12624.75,26801.5,5,Long
2025-07-08,14176.75,12761.0,26937.75,5,Long
2025-07-09,14176.75,13429.75,27606.5,5,Long
2025-07-10,14176.75,13477.25,27654.0,5,Long
2025-07-11,14176.75,12941.0,27117.75,5,Long
2025-07-13,14176.75,12587.25,26764.0,5,Long
2025-07-14,14176.75,13312.25,27489.0,5,Long
2025-07-15,14176.75,13326.0,27502.75,5,Long
2025-07-16,14176.75,13457.25,27634.0,5,Long
2025-07-17,14176.75,14656.0,28832.75,5,Long
2025-07-18,14176.75,14398.5,28575.25,5,Long
2025-07-20,14176.75,14554.75,28731.5,5,Long
2025-07-21,14176.75,14987.25,29164.0,5,Long
2025-07-22,14176.75,14563.5,28740.25,5,Long
2025-07-23,14176.75,15259.75,29436.5,5,Long
2025-07-24,14176.75,15286.0,29462.75,5,Long
2025-07-25,14176.75,15491.0,29667.75,5,Long
2025-07-27,14176.75,15926.0,30102.75,5,Long
2025-07-28,14176.75,15897.25,30074.0,5,Long
2025-07-29,14176.75,15628.5,29805.25,5,Long
2025-07-30,14176.75,16879.75,31056.5,5,Long
2025-07-31,14176.75,14742.25,28919.0,5,Long
2025-08-01,14176.75,12599.75,26776.5,5,Long
2025-08-03,26684.0,-76.5,26607.5,1,Short
2025-08-04,26684.0,-483.5,26200.5,1,Short
2025-08-05,26684.0,-202.25,26481.75,1,Short
2025-08-06,26684.0,-601.0,26083.0,1,Short
2025-08-07,26684.0,-689.5,25994.5,1,Short
2025-08-08,26684.0,-916.75,25767.25,1,Short
2025-08-10,25767.25,-59.5,25707.75,1,Long
2025-08-11,25767.25,-130.5,25636.75,1,Long
2025-08-12,25767.25,193.25,25960.5,1,Long
2025-08-13,25767.25,182.0,25949.25,1,Long
2025-08-14,25767.25,121.5,25888.75,1,Long
2025-08-15,25767.25,29.25,25796.5,1,Long
2025-08-17,25767.25,83.75,25851.0,1,Long
2025-08-18,25767.25,37.5,25804.75,1,Long
2025-08-19,25767.25,-345.25,25422.0,1,Long
2025-08-20,25767.25,-447.75,25319.5,1,Long
2025-08-21,25767.25,-519.25,25248.0,1,Long
2025-08-22,25767.25,-166.5,25600.75,2,Long
2025-08-24,25767.25,-183.0,25584.25,2,Long
2025-08-25,25767.25,-339.0,25428.25,2,Long
2025-08-26,25767.25,-104.0,25663.25,2,Long
2025-08-27,25767.25,-315.5,25451.75,2,Long
2025-08-28,25767.25,164.5,25931.75,2,Long
2025-08-29,25767.25,-423.0,25344.25,2,Long
2025-08-31,25767.25,-256.0,25511.25,2,Long
2025-09-01,25767.25,-441.0,25326.25,2,Long
2025-09-02,25767.25,-663.0,25104.25,2,Long
2025-09-03,25767.25,-456.0,25311.25,2,Long
2025-09-04,25767.25,80.5,25847.75,2,Long
2025-09-05,25767.25,21.25,25788.5,3,Long
2025-09-07,25767.25,335.5,26102.75,3,Long
2025-09-08,25767.25,424.0,26191.25,3,Long
2025-09-09,25767.25,659.5,26426.75,3,Long
2025-09-10,25767.25,704.5,26471.75,3,Long
2025-09-11,25767.25,1060.0,26827.25,3,Long
2025-09-12,25767.25,1345.75,27113.0,3,Long
2025-09-14,25767.25,1335.25,27102.5,3,Long
2025-09-15,25767.25,1917.25,27684.5,3,Long
2025-09-16,25767.25,2631.25,28398.5,3,Long
2025-09-17,25767.25,2754.25,28521.5,3,Long
2025-09-18,25767.25,3222.25,28989.5,3,Long
2025-09-19,25767.25,3603.25,29370.5,4,Long
2025-09-21,25767.25,3563.25,29330.5,4,Long
2025-09-22,25767.25,4148.25,29915.5,4,Long
2025-09-23,25767.25,3521.25,29288.5,4,Long
2025-09-24,25767.25,3181.25,28948.5,4,Long
2025-09-25,25767.25,2625.25,28392.5,4,Long
2025-09-26,25767.25,3068.25,28835.5,4,Long
2025-09-28,25767.25,3247.25,29014.5,4,Long
2025-09-29,25767.25,3454.25,29221.5,4,Long
2025-09-30,25767.25,3479.25,29246.5,4,Long
2025-10-01,25767.25,4248.25,30015.5,4,Long
2025-10-02,25767.25,4655.25,30422.5,4,Long
2025-10-03,25767.25,4047.0,29814.25,5,Long
2025-10-05,25767.25,4473.25,30240.5,5,Long
2025-10-06,25767.25,4849.5,30616.75,5,Long
2025-10-07,25767.25,4307.0,30074.25,5,Long
2025-10-08,25767.25,6034.5,31801.75,5,Long
2025-10-09,25767.25,5814.5,31581.75,5,Long
2025-10-10,25767.25,80.75,25848.0,5,Long
2025-10-12,27316.75,-304.0,27012.75,1,Short
2025-10-13,27316.75,-430.0,26886.75,1,Short
2025-10-14,27316.75,-291.0,27025.75,1,Short
2025-10-15,27316.75,-461.25,26855.5,1,Short
2025-10-16,27316.75,-278.0,27038.75,1,Short
2025-10-17,27316.75,-551.0,26765.75,1,Short
2025-10-19,27316.75,-530.25,26786.5,1,Short
2025-10-20,27316.75,-841.75,26475.0,1,Short
2025-10-21,27316.75,-763.0,26553.75,1,Short
2025-10-22,27316.75,-514.5,26802.25,1,Short
2025-10-23,27316.75,-815.5,26501.25,1,Short
2025-10-24,27316.75,-993.75,26323.0,2,Short
2025-10-26,27316.75,-1407.75,25909.0,2,Short
2025-10-27,25909.5,277.75,26187.25,1,Long
2025-10-28,25909.5,467.0,26376.5,1,Long
2025-10-29,25909.5,518.75,26428.25,1,Long
2025-10-30,25909.5,453.5,26363.0,1,Long
2025-10-31,25909.5,266.75,26176.25,1,Long
2025-11-02,25909.5,363.75,26273.25,1,Long
2025-11-03,25909.5,352.0,26261.5,1,Long
2025-11-04,25909.5,-213.25,25696.25,1,Long
2025-11-05,25909.5,56.0,25965.5,1,Long
2025-11-06,25909.5,-400.25,25509.25,1,Long
2025-11-07,25909.5,-489.75,25419.75,1,Long
2025-11-09,25909.5,-381.0,25528.5,1,Long
2025-11-10,25909.5,25.75,25935.25,1,Long
2025-11-11,25909.5,-66.75,25842.75,1,Long
2025-11-12,25909.5,-176.5,25733.0,1,Long
2025-11-13,25909.5,-609.0,25300.5,1,Long
2025-11-14,25300.0,-40.0,25260.0,1,Short
2025-11-16,25300.0,-62.5,25237.5,1,Short
2025-11-17,25300.0,187.5,25487.5,1,Short
2025-11-18,25300.0,516.5,25816.5,1,Short
2025-11-19,25300.0,-1.75,25298.25,1,Short
2025-11-20,25300.0,970.5,26270.5,1,Short
2025-11-21,25300.0,758.25,26058.25,1,Short
2025-11-23,25300.0,635.75,25935.75,1,Short
2025-11-24,25300.0,147.75,25447.75,1,Short
2025-11-25,25300.0,21.25,25321.25,1,Short
2025-11-26,25300.0,-216.0,25084.0,1,Short
2025-11-27,25300.0,-220.5,25079.5,1,Short
2025-11-28,25300.0,-377.25,24922.75,2,Short
2025-11-30,25300.0,-340.75,24959.25,2,Short
2025-12-01,25300.0,-205.75,25094.25,2,Short
2025-12-02,25300.0,-654.25,24645.75,2,Short
2025-12-03,25300.0,-702.75,24597.25,2,Short
2025-12-04,25300.0,-650.25,24649.75,2,Short
2025-12-05,25300.0,-877.75,24422.25,2,Short
2025-12-07,25300.0,-898.75,24401.25,2,Short
2025-12-08,25300.0,-860.75,24439.25,2,Short
2025-12-09,25300.0,-751.75,24548.25,2,Short
2025-12-10,25300.0,-866.25,24433.75,2,Short
2025-12-11,25300.0,-750.75,24549.25,2,Short
2025-12-12,25300.0,183.0,25483.0,3,Short
2025-12-14,25300.0,210.0,25510.0,3,Short
2025-12-15,25300.0,616.5,25916.5,3,Short
2025-12-16,25300.0,-154.5,25145.5,3,Short
2025-12-17,25300.0,994.5,26294.5,3,Short
2025-12-18,25300.0,21.75,25321.75,3,Short
2025-12-19,25300.0,-1002.75,24297.25,3,Short
2025-12-21,25300.0,-1215.75,24084.25,3,Short
2025-12-22,25300.0,-1347.75,23952.25,3,Short
2025-12-23,25300.0,-1638.0,23662.0,3,Short
2025-12-24,25300.0,-1793.25,23506.75,3,Short
2025-12-25,23482.0,17.25,23499.25,1,Long
2025-12-26,23482.0,-13.0,23469.0,1,Long
2025-12-28,23482.0,0.0,23482.0,1,Long
2025-12-29,23482.0,-163.0,23319.0,1,Long
2025-12-30,23482.0,-213.25,23268.75,1,Long
2025-12-31,23482.0,-435.5,23046.5,1,Long
2026-01-01,23482.0,-373.0,23109.0,1,Long
2026-01-02,23482.0,-462.0,23020.0,2,Long
2026-01-04,23482.0,-334.0,23148.0,2,Long
2026-01-05,23482.0,-117.5,23364.5,2,Long
2026-01-06,23482.0,400.5,23882.5,2,Long
2026-01-07,23482.0,397.5,23879.5,2,Long
2026-01-08,23482.0,102.0,23584.0,2,Long
2026-01-09,23482.0,613.5,24095.5,2,Long
2026-01-11,23482.0,538.5,24020.5,2,Long
2026-01-12,23482.0,542.0,24024.0,2,Long
2026-01-13,23482.0,532.5,24014.5,2,Long
2026-01-14,23482.0,-38.5,23443.5,2,Long
2026-01-15,23482.0,233.5,23715.5,2,Long
2026-01-16,23482.0,93.0,23575.0,3,Long
2026-01-18,23482.0,-551.25,22930.75,3,Long
2026-01-19,23482.0,-816.75,22665.25,3,Long
2026-01-20,23482.0,-1603.5,21878.5,3,Long
2026-01-21,21880.0,-435.5,21444.5,1,Short
2026-01-22,21880.0,-500.5,21379.5,1,Short
2026-01-23,21880.0,-562.25,21317.75,1,Short
2026-01-25,21880.0,-442.75,21437.25,1,Short
2026-01-26,21880.0,-773.0,21107.0,1,Short
2026-01-27,21880.0,-1021.5,20858.5,1,Short
2026-01-28,20858.75,32.0,20890.75,1,Long
2026-01-29,20858.75,-166.0,20692.75,1,Long
2026-01-30,20858.75,-499.25,20359.5,1,Long
2026-02-01,20858.75,-604.5,20254.25,1,Long
2026-02-02,20858.75,-190.0,20668.75,1,Long
2026-02-03,20858.75,-710.25,20148.5,1,Long
2026-02-04,20858.75,-1070.25,19788.5,1,Long
2026-02-05,19789.25,733.5,20522.75,1,Short
2026-02-06,19789.25,-39.25,19750.0,1,Short
2026-02-08,19789.25,-207.25,19582.0,1,Short
2026-02-09,19789.25,-276.5,19512.75,1,Short
2026-02-10,19789.25,-204.75,19584.5,1,Short
2026-02-11,19789.25,-166.5,19622.75,1,Short
2026-02-12,19789.25,245.25,20034.5,1,Short
2026-02-13,19789.25,309.25,20098.5,2,Short
2026-02-15,19789.25,182.25,19971.5,2,Short
2026-02-16,19789.25,219.75,20009.0,2,Short
2026-02-17,19789.25,433.25,20222.5,2,Short
2026-02-18,19789.25,-73.75,19715.5,2,Short
2026-02-19,19789.25,98.25,19887.5,2,Short
2026-02-20,19789.25,-302.25,19487.0,2,Short
2026-02-22,19789.25,-91.25,19698.0,2,Short
2026-02-23,19789.25,278.25,20067.5,2,Short
2026-02-24,19789.25,-233.75,19555.5,2,Short
2026-02-25,19789.25,-778.25,19011.0,2,Short
2026-02-26,19789.25,-137.75,19651.5,2,Short
2026-02-27,19789.25,-48.75,19740.5,3,Short
2026-03-01,19789.25,591.75,20381.0,3,Short
2026-03-02,19789.25,-106.5,19682.75,3,Short
2026-03-03,19789.25,701.25,20490.5,3,Short
2026-03-04,19789.25,-706.5,19082.75,3,Short
2026-03-05,19789.25,-372.75,19416.5,3,Short
2026-03-06,19789.25,826.5,20615.75,3,Short
2026-03-08,19789.25,2165.25,21954.5,3,Short
