date,realized_points,open_unrealized_points,total_equity_points,open_units,direction
2019-05-05,0.0,0.0,0.0,0,
2019-05-06,0.0,0.0,0.0,0,
2019-05-07,0.0,0.0,0.0,0,
2019-05-08,0.0,0.0,0.0,0,
2019-05-09,0.0,0.0,0.0,0,
2019-05-10,0.0,0.0,0.0,0,
2019-05-12,0.0,0.0,0.0,0,
2019-05-13,0.0,0.0,0.0,0,
2019-05-14,0.0,0.0,0.0,0,
2019-05-15,0.0,0.0,0.0,0,
2019-05-16,0.0,0.0,0.0,0,
2019-05-17,0.0,0.0,0.0,0,
2019-05-19,0.0,0.0,0.0,0,
2019-05-20,0.0,0.0,0.0,0,
2019-05-21,0.0,0.0,0.0,0,
2019-05-22,0.0,0.0,0.0,0,
2019-05-23,0.0,0.0,0.0,0,
2019-05-24,0.0,0.0,0.0,0,
2019-05-26,0.0,0.0,0.0,0,
2019-05-27,0.0,0.0,0.0,0,
2019-05-28,0.0,0.0,0.0,0,
2019-05-29,0.0,0.0,0.0,0,
2019-05-30,0.0,0.0,0.0,0,
2019-05-31,0.0,0.0,0.0,0,
2019-06-02,0.0,0.0,0.0,0,
2019-06-03,0.0,0.0,0.0,0,
2019-06-04,0.0,0.0,0.0,0,
2019-06-05,0.0,0.0,0.0,0,
2019-06-06,0.0,213.0,213.0,1,Long
2019-06-07,0.0,468.0,468.0,1,Long
2019-06-09,0.0,505.0,505.0,1,Long
2019-06-10,0.0,566.0,566.0,1,Long
2019-06-11,0.0,487.0,487.0,1,Long
2019-06-12,0.0,405.0,405.0,1,Long
2019-06-13,0.0,589.0,589.0,1,Long
2019-06-14,0.0,561.0,561.0,2,Long
2019-06-16,0.0,687.0,687.0,2,Long
2019-06-17,0.0,561.0,561.0,2,Long
2019-06-18,0.0,1333.0,1333.0,2,Long
2019-06-19,0.0,1529.0,1529.0,2,Long
2019-06-20,0.0,1725.0,1725.0,2,Long
2019-06-21,0.0,1653.0,1653.0,2,Long
2019-06-23,0.0,1833.0,1833.0,2,Long
2019-06-24,0.0,1711.0,1711.0,2,Long
2019-06-25,0.0,1419.0,1419.0,2,Long
2019-06-26,0.0,1513.0,1513.0,2,Long
2019-06-27,0.0,1459.0,1459.0,2,Long
2019-06-28,0.0,1777.0,1777.0,4,Long
2019-06-30,0.0,2397.0,2397.0,4,Long
2019-07-01,0.0,2077.0,2077.0,4,Long
2019-07-02,0.0,2229.0,2229.0,4,Long
2019-07-03,0.0,2993.0,2993.0,4,Long
2019-07-04,0.0,3133.0,3133.0,4,Long
2019-07-05,0.0,2777.0,2777.0,4,Long
2019-07-07,0.0,2489.0,2489.0,4,Long
2019-07-08,0.0,1929.0,1929.0,4,Long
2019-07-09,0.0,2257.0,2257.0,4,Long
2019-07-10,0.0,2837.0,2837.0,4,Long
2019-07-11,0.0,3821.0,3821.0,4,Long
2019-07-12,0.0,4445.0,4445.0,6,Long
2019-07-14,0.0,4595.0,4595.0,6,Long
2019-07-15,0.0,4697.0,4697.0,6,Long
2019-07-16,0.0,4589.0,4589.0,6,Long
2019-07-17,0.0,3479.0,3479.0,6,Long
2019-07-18,0.0,4427.0,4427.0,6,Long
2019-07-19,0.0,3041.0,3041.0,6,Long
2019-07-21,0.0,3371.0,3371.0,6,Long
2019-07-22,0.0,3827.0,3827.0,6,Long
2019-07-23,0.0,4589.0,4589.0,6,Long
2019-07-24,0.0,4253.0,4253.0,6,Long
2019-07-25,0.0,3449.0,3449.0,6,Long
2019-07-26,0.0,3349.0,3349.0,8,Long
2019-07-28,0.0,3205.0,3205.0,8,Long
2019-07-29,0.0,4061.0,4061.0,8,Long
2019-07-30,0.0,4117.0,4117.0,8,Long
2019-07-31,0.0,1253.0,1253.0,8,Long
2019-08-01,1237.0,0.0,1237.0,0,
2019-08-02,1237.0,0.0,1237.0,0,
2019-08-04,1237.0,0.0,1237.0,0,
2019-08-05,1237.0,0.0,1237.0,0,
2019-08-06,1237.0,0.0,1237.0,0,
2019-08-07,1237.0,0.0,1237.0,0,
2019-08-08,1237.0,0.0,1237.0,0,
2019-08-09,1237.0,0.0,1237.0,0,
2019-08-11,1237.0,0.0,1237.0,0,
2019-08-12,1237.0,0.0,1237.0,0,
2019-08-13,1237.0,0.0,1237.0,0,
2019-08-14,1237.0,0.0,1237.0,0,
2019-08-15,1237.0,0.0,1237.0,0,
2019-08-16,1237.0,0.0,1237.0,0,
2019-08-18,1237.0,0.0,1237.0,0,
2019-08-19,1237.0,0.0,1237.0,0,
2019-08-20,1237.0,0.0,1237.0,0,
2019-08-21,1237.0,0.0,1237.0,0,
2019-08-22,1237.0,0.0,1237.0,0,
2019-08-23,1237.0,0.0,1237.0,0,
2019-08-25,1237.0,0.0,1237.0,0,
2019-08-26,1237.0,0.0,1237.0,0,
2019-08-27,1237.0,0.0,1237.0,0,
2019-08-28,1237.0,0.0,1237.0,0,
2019-08-29,1237.0,0.0,1237.0,0,
2019-08-30,1237.0,0.0,1237.0,0,
2019-09-01,1237.0,0.0,1237.0,0,
2019-09-02,1237.0,0.0,1237.0,0,
2019-09-03,1237.0,0.0,1237.0,0,
2019-09-04,1237.0,0.0,1237.0,0,
2019-09-05,1237.0,130.0,1367.0,1,Long
2019-09-06,1237.0,198.0,1435.0,1,Long
2019-09-08,1237.0,207.0,1444.0,1,Long
2019-09-09,1237.0,185.0,1422.0,1,Long
2019-09-10,1237.0,259.0,1496.0,1,Long
2019-09-11,1237.0,642.0,1879.0,1,Long
2019-09-12,1237.0,590.0,1827.0,1,Long
2019-09-13,1237.0,566.0,1803.0,2,Long
2019-09-15,1237.0,296.0,1533.0,2,Long
2019-09-16,1237.0,248.0,1485.0,2,Long
2019-09-17,1237.0,266.0,1503.0,2,Long
2019-09-18,1237.0,260.0,1497.0,2,Long
2019-09-19,1237.0,314.0,1551.0,2,Long
2019-09-20,1237.0,-102.0,1135.0,2,Long
2019-09-22,1237.0,100.0,1337.0,2,Long
2019-09-23,1237.0,176.0,1413.0,2,Long
2019-09-24,1237.0,-124.0,1113.0,2,Long
2019-09-25,1237.0,-6.0,1231.0,2,Long
2019-09-26,1237.0,-190.0,1047.0,2,Long
2019-09-27,1237.0,-60.0,1177.0,4,Long
2019-09-29,1237.0,188.0,1425.0,4,Long
2019-09-30,1237.0,560.0,1797.0,4,Long
2019-10-01,1237.0,-1084.0,153.0,4,Long
2019-10-02,153.0,0.0,153.0,0,
2019-10-03,153.0,0.0,153.0,0,
2019-10-04,153.0,0.0,153.0,0,
2019-10-06,153.0,0.0,153.0,0,
2019-10-07,153.0,0.0,153.0,0,
2019-10-08,153.0,0.0,153.0,0,
2019-10-09,153.0,0.0,153.0,0,
2019-10-10,153.0,0.0,153.0,0,
2019-10-11,153.0,0.0,153.0,0,
2019-10-13,153.0,0.0,153.0,0,
2019-10-14,153.0,0.0,153.0,0,
2019-10-15,153.0,0.0,153.0,0,
2019-10-16,153.0,-3.0,150.0,1,Long
2019-10-17,147.0,0.0,147.0,0,
2019-10-18,147.0,-200.0,-53.0,1,Long
2019-10-20,-90.0,0.0,-90.0,0,
2019-10-21,-90.0,0.0,-90.0,0,
2019-10-22,-90.0,0.0,-90.0,0,
2019-10-23,-90.0,0.0,-90.0,0,
2019-10-24,-90.0,0.0,-90.0,0,
2019-10-25,-90.0,0.0,-90.0,0,
2019-10-27,-90.0,0.0,-90.0,0,
2019-10-28,-90.0,94.0,4.0,1,Long
2019-10-29,-90.0,66.0,-24.0,1,Long
2019-10-30,-90.0,200.0,110.0,1,Long
2019-10-31,-90.0,83.0,-7.0,1,Long
2019-11-01,-90.0,312.0,222.0,1,Long
2019-11-03,-90.0,368.0,278.0,1,Long
2019-11-04,-90.0,480.0,390.0,1,Long
2019-11-05,-90.0,456.0,366.0,1,Long
2019-11-06,-90.0,458.0,368.0,1,Long
2019-11-07,-90.0,661.0,571.0,1,Long
2019-11-08,-90.0,716.0,626.0,2,Long
2019-11-10,-90.0,534.0,444.0,2,Long
2019-11-11,-90.0,698.0,608.0,2,Long
2019-11-12,-90.0,602.0,512.0,2,Long
2019-11-13,-90.0,910.0,820.0,2,Long
2019-11-14,-90.0,1108.0,1018.0,2,Long
2019-11-15,-90.0,1348.0,1258.0,2,Long
2019-11-17,-90.0,1322.0,1232.0,2,Long
2019-11-18,-90.0,1492.0,1402.0,2,Long
2019-11-19,-90.0,1142.0,1052.0,2,Long
2019-11-20,-90.0,894.0,804.0,2,Long
2019-11-21,-90.0,994.0,904.0,2,Long
2019-11-22,-90.0,1232.0,1142.0,4,Long
2019-11-24,-90.0,1508.0,1418.0,4,Long
2019-11-25,-90.0,2040.0,1950.0,4,Long
2019-11-26,-90.0,2324.0,2234.0,4,Long
2019-11-27,-90.0,2072.0,1982.0,4,Long
2019-11-28,-90.0,2052.0,1962.0,4,Long
2019-11-29,-90.0,2060.0,1970.0,4,Long
2019-12-01,-90.0,2420.0,2330.0,4,Long
2019-12-02,-90.0,1120.0,1030.0,4,Long
2019-12-03,1026.0,0.0,1026.0,0,
2019-12-04,1026.0,0.0,1026.0,0,
2019-12-05,1026.0,0.0,1026.0,0,
2019-12-06,1026.0,0.0,1026.0,0,
2019-12-08,1026.0,0.0,1026.0,0,
2019-12-09,1026.0,0.0,1026.0,0,
2019-12-10,1026.0,0.0,1026.0,0,
2019-12-11,1026.0,0.0,1026.0,0,
2019-12-12,1026.0,0.0,1026.0,0,
2019-12-13,1026.0,-75.0,951.0,1,Long
2019-12-15,959.0,0.0,959.0,0,
2019-12-16,959.0,0.0,959.0,0,
2019-12-17,959.0,28.0,987.0,1,Long
2019-12-18,959.0,9.0,968.0,1,Long
2019-12-19,959.0,145.0,1104.0,1,Long
2019-12-20,959.0,217.0,1176.0,1,Long
2019-12-22,959.0,242.0,1201.0,1,Long
2019-12-23,959.0,306.0,1265.0,1,Long
2019-12-24,959.0,254.0,1213.0,1,Long
2019-12-25,959.0,287.0,1246.0,1,Long
2019-12-26,959.0,418.0,1377.0,1,Long
2019-12-27,959.0,338.0,1297.0,2,Long
2019-12-29,959.0,438.0,1397.0,2,Long
2019-12-30,959.0,76.0,1035.0,2,Long
2019-12-31,959.0,238.0,1197.0,2,Long
2020-01-01,959.0,324.0,1283.0,2,Long
2020-01-02,959.0,466.0,1425.0,2,Long
2020-01-03,959.0,348.0,1307.0,2,Long
2020-01-05,959.0,190.0,1149.0,2,Long
2020-01-06,959.0,568.0,1527.0,2,Long
2020-01-07,959.0,-164.0,795.0,2,Long
2020-01-08,959.0,732.0,1691.0,2,Long
2020-01-09,959.0,1138.0,2097.0,2,Long
2020-01-10,959.0,700.0,1659.0,4,Long
2020-01-12,959.0,1024.0,1983.0,4,Long
2020-01-13,959.0,1112.0,2071.0,4,Long
2020-01-14,959.0,1064.0,2023.0,4,Long
2020-01-15,959.0,1880.0,2839.0,4,Long
2020-01-16,959.0,2720.0,3679.0,4,Long
2020-01-17,959.0,2708.0,3667.0,4,Long
2020-01-19,959.0,2816.0,3775.0,4,Long
2020-01-20,959.0,2340.0,3299.0,4,Long
2020-01-21,959.0,2748.0,3707.0,4,Long
2020-01-22,959.0,2008.0,2967.0,4,Long
2020-01-23,959.0,2288.0,3247.0,4,Long
2020-01-24,959.0,1222.0,2181.0,6,Long
2020-01-26,959.0,-170.0,789.0,6,Long
2020-01-27,807.0,0.0,807.0,0,
2020-01-28,807.0,0.0,807.0,0,
2020-01-29,807.0,0.0,807.0,0,
2020-01-30,807.0,0.0,807.0,0,
2020-01-31,807.0,0.0,807.0,0,
2020-02-02,807.0,0.0,807.0,0,
2020-02-03,807.0,0.0,807.0,0,
2020-02-04,807.0,0.0,807.0,0,
2020-02-05,807.0,0.0,807.0,0,
2020-02-06,807.0,-155.0,652.0,1,Long
2020-02-07,652.0,0.0,652.0,0,
2020-02-09,652.0,0.0,652.0,0,
2020-02-10,652.0,0.0,652.0,0,
2020-02-11,652.0,0.0,652.0,0,
2020-02-12,652.0,0.0,652.0,0,
2020-02-13,652.0,0.0,652.0,0,
2020-02-14,652.0,-89.0,563.0,1,Long
2020-02-16,554.0,0.0,554.0,0,
2020-02-17,554.0,0.0,554.0,0,
2020-02-18,554.0,0.0,554.0,0,
2020-02-19,554.0,0.0,554.0,0,
2020-02-20,554.0,0.0,554.0,0,
2020-02-21,554.0,0.0,554.0,0,
2020-02-23,554.0,0.0,554.0,0,
2020-02-24,554.0,0.0,554.0,0,
2020-02-25,554.0,0.0,554.0,0,
2020-02-26,554.0,0.0,554.0,0,
2020-02-27,554.0,0.0,554.0,0,
2020-03-01,554.0,0.0,554.0,0,
2020-03-02,554.0,0.0,554.0,0,
2020-03-03,554.0,0.0,554.0,0,
2020-03-04,554.0,0.0,554.0,0,
2020-03-05,554.0,0.0,554.0,0,
2020-03-06,554.0,0.0,554.0,0,
2020-03-08,554.0,0.0,554.0,0,
2020-03-09,554.0,0.0,554.0,0,
2020-03-10,554.0,0.0,554.0,0,
2020-03-11,554.0,0.0,554.0,0,
2020-03-12,554.0,0.0,554.0,0,
2020-03-13,554.0,0.0,554.0,0,
2020-03-15,554.0,0.0,554.0,0,
2020-03-16,554.0,0.0,554.0,0,
2020-03-17,554.0,0.0,554.0,0,
2020-03-18,554.0,0.0,554.0,0,
2020-03-19,554.0,0.0,554.0,0,
2020-03-20,554.0,0.0,554.0,0,
2020-03-22,554.0,0.0,554.0,0,
2020-03-23,554.0,0.0,554.0,0,
2020-03-24,554.0,0.0,554.0,0,
2020-03-25,554.0,0.0,554.0,0,
2020-03-26,554.0,0.0,554.0,0,
2020-03-27,554.0,0.0,554.0,0,
2020-03-29,554.0,0.0,554.0,0,
2020-03-30,554.0,0.0,554.0,0,
2020-03-31,554.0,0.0,554.0,0,
2020-04-01,554.0,0.0,554.0,0,
2020-04-02,554.0,0.0,554.0,0,
2020-04-03,554.0,0.0,554.0,0,
2020-04-05,554.0,0.0,554.0,0,
2020-04-06,554.0,0.0,554.0,0,
2020-04-07,554.0,161.0,715.0,1,Long
2020-04-08,554.0,929.0,1483.0,1,Long
2020-04-09,554.0,1339.0,1893.0,1,Long
2020-04-12,554.0,953.0,1507.0,1,Long
2020-04-13,554.0,1279.0,1833.0,1,Long
2020-04-14,554.0,1415.0,1969.0,1,Long
2020-04-15,554.0,924.0,1478.0,1,Long
2020-04-16,554.0,1898.0,2452.0,1,Long
2020-04-17,554.0,1806.0,2360.0,1,Long
2020-04-19,554.0,1803.0,2357.0,1,Long
2020-04-20,554.0,931.0,1485.0,1,Long
2020-04-21,554.0,623.0,1177.0,1,Long
2020-04-22,554.0,919.0,1473.0,1,Long
2020-04-23,554.0,905.0,1459.0,1,Long
2020-04-24,554.0,1248.0,1802.0,2,Long
2020-04-26,554.0,1550.0,2104.0,2,Long
2020-04-27,554.0,1816.0,2370.0,2,Long
2020-04-28,554.0,2474.0,3028.0,2,Long
2020-04-29,554.0,3378.0,3932.0,2,Long
2020-04-30,554.0,1824.0,2378.0,2,Long
2020-05-01,554.0,1146.0,1700.0,2,Long
2020-05-03,554.0,928.0,1482.0,2,Long
2020-05-04,554.0,1454.0,2008.0,2,Long
2020-05-05,554.0,1520.0,2074.0,2,Long
2020-05-06,554.0,1240.0,1794.0,2,Long
2020-05-07,554.0,2226.0,2780.0,2,Long
2020-05-08,554.0,2706.0,3260.0,4,Long
2020-05-10,554.0,3274.0,3828.0,4,Long
2020-05-11,554.0,1322.0,1876.0,4,Long
2020-05-12,554.0,-42.0,512.0,4,Long
2020-05-13,554.0,-1790.0,-1236.0,4,Long
2020-05-14,554.0,-326.0,228.0,4,Long
2020-05-15,554.0,-194.0,360.0,4,Long
2020-05-17,554.0,670.0,1224.0,4,Long
2020-05-18,554.0,3334.0,3888.0,4,Long
2020-05-19,554.0,2758.0,3312.0,4,Long
2020-05-20,554.0,3006.0,3560.0,4,Long
2020-05-21,554.0,2406.0,2960.0,4,Long
2020-05-22,554.0,3474.0,4028.0,6,Long
2020-05-24,554.0,3756.0,4310.0,6,Long
2020-05-25,554.0,5754.0,6308.0,6,Long
2020-05-26,554.0,7728.0,8282.0,6,Long
2020-05-27,554.0,10410.0,10964.0,6,Long
2020-05-28,554.0,8724.0,9278.0,6,Long
2020-05-29,554.0,9672.0,10226.0,6,Long
2020-05-31,554.0,8808.0,9362.0,6,Long
2020-06-01,554.0,8826.0,9380.0,6,Long
2020-06-02,554.0,11502.0,12056.0,6,Long
2020-06-03,554.0,13884.0,14438.0,6,Long
2020-06-04,554.0,15096.0,15650.0,6,Long
2020-06-05,554.0,19070.0,19624.0,8,Long
2020-06-07,554.0,19678.0,20232.0,8,Long
2020-06-08,554.0,22774.0,23328.0,8,Long
2020-06-09,554.0,21998.0,22552.0,8,Long
2020-06-10,554.0,15662.0,16216.0,8,Long
2020-06-11,16208.0,0.0,16208.0,0,
2020-06-12,16208.0,0.0,16208.0,0,
2020-06-14,16208.0,0.0,16208.0,0,
2020-06-15,16208.0,0.0,16208.0,0,
2020-06-16,16208.0,0.0,16208.0,0,
2020-06-17,16208.0,0.0,16208.0,0,
2020-06-18,16208.0,0.0,16208.0,0,
2020-06-19,16208.0,0.0,16208.0,0,
2020-06-21,16208.0,0.0,16208.0,0,
2020-06-22,16208.0,0.0,16208.0,0,
2020-06-23,16208.0,0.0,16208.0,0,
2020-06-24,16208.0,0.0,16208.0,0,
2020-06-25,16208.0,0.0,16208.0,0,
2020-06-26,16208.0,0.0,16208.0,0,
2020-06-28,16208.0,0.0,16208.0,0,
2020-06-29,16208.0,0.0,16208.0,0,
2020-06-30,16208.0,0.0,16208.0,0,
2020-07-01,16208.0,0.0,16208.0,0,
2020-07-02,16208.0,0.0,16208.0,0,
2020-07-03,16208.0,0.0,16208.0,0,
2020-07-05,16208.0,0.0,16208.0,0,
2020-07-06,16208.0,0.0,16208.0,0,
2020-07-07,16208.0,0.0,16208.0,0,
2020-07-08,16208.0,0.0,16208.0,0,
2020-07-09,16208.0,0.0,16208.0,0,
2020-07-10,16208.0,0.0,16208.0,0,
2020-07-12,16208.0,0.0,16208.0,0,
2020-07-13,16208.0,0.0,16208.0,0,
2020-07-14,16208.0,0.0,16208.0,0,
2020-07-15,16208.0,0.0,16208.0,0,
2020-07-16,16208.0,0.0,16208.0,0,
2020-07-17,16208.0,0.0,16208.0,0,
2020-07-19,16208.0,0.0,16208.0,0,
2020-07-20,16208.0,0.0,16208.0,0,
2020-07-21,16208.0,0.0,16208.0,0,
2020-07-22,16208.0,0.0,16208.0,0,
2020-07-23,16208.0,0.0,16208.0,0,
2020-07-24,16208.0,0.0,16208.0,0,
2020-07-26,16208.0,0.0,16208.0,0,
2020-07-27,16208.0,0.0,16208.0,0,
2020-07-28,16208.0,0.0,16208.0,0,
2020-07-29,16208.0,0.0,16208.0,0,
2020-07-30,16208.0,0.0,16208.0,0,
2020-07-31,16208.0,0.0,16208.0,0,
2020-08-02,16208.0,0.0,16208.0,0,
2020-08-03,16208.0,0.0,16208.0,0,
2020-08-04,16208.0,0.0,16208.0,0,
2020-08-05,16208.0,0.0,16208.0,0,
2020-08-06,16208.0,62.0,16270.0,1,Long
2020-08-07,16208.0,267.0,16475.0,1,Long
2020-08-09,16208.0,319.0,16527.0,1,Long
2020-08-10,16208.0,691.0,16899.0,1,Long
2020-08-11,16208.0,581.0,16789.0,1,Long
2020-08-12,16208.0,781.0,16989.0,1,Long
2020-08-13,16208.0,764.0,16972.0,1,Long
2020-08-14,16208.0,758.0,16966.0,2,Long
2020-08-16,16208.0,960.0,17168.0,2,Long
2020-08-17,16208.0,684.0,16892.0,2,Long
2020-08-18,16208.0,662.0,16870.0,2,Long
2020-08-19,16208.0,114.0,16322.0,2,Long
2020-08-20,16208.0,636.0,16844.0,2,Long
2020-08-21,16208.0,874.0,17082.0,2,Long
2020-08-23,16208.0,1012.0,17220.0,2,Long
2020-08-24,16208.0,1944.0,18152.0,2,Long
2020-08-25,16208.0,1474.0,17682.0,2,Long
2020-08-26,16208.0,1676.0,17884.0,2,Long
2020-08-27,16208.0,2520.0,18728.0,2,Long
2020-08-28,16208.0,2302.0,18510.0,4,Long
2020-08-30,16208.0,2882.0,19090.0,4,Long
2020-08-31,16208.0,1554.0,17762.0,4,Long
2020-09-01,16208.0,2578.0,18786.0,4,Long
2020-09-02,16208.0,4170.0,20378.0,4,Long
2020-09-03,16208.0,846.0,17054.0,4,Long
2020-09-04,16208.0,54.0,16262.0,4,Long
2020-09-06,16208.0,338.0,16546.0,4,Long
2020-09-07,16208.0,894.0,17102.0,4,Long
2020-09-08,17106.0,0.0,17106.0,0,
2020-09-09,17106.0,0.0,17106.0,0,
2020-09-10,17106.0,0.0,17106.0,0,
2020-09-11,17106.0,0.0,17106.0,0,
2020-09-13,17106.0,0.0,17106.0,0,
2020-09-14,17106.0,0.0,17106.0,0,
2020-09-15,17106.0,0.0,17106.0,0,
2020-09-16,17106.0,0.0,17106.0,0,
2020-09-17,17106.0,0.0,17106.0,0,
2020-09-18,17106.0,0.0,17106.0,0,
2020-09-20,17106.0,0.0,17106.0,0,
2020-09-21,17106.0,0.0,17106.0,0,
2020-09-22,17106.0,0.0,17106.0,0,
2020-09-23,17106.0,0.0,17106.0,0,
2020-09-24,17106.0,0.0,17106.0,0,
2020-09-25,17106.0,0.0,17106.0,0,
2020-09-27,17106.0,0.0,17106.0,0,
2020-09-28,17106.0,0.0,17106.0,0,
2020-09-29,17106.0,0.0,17106.0,0,
2020-09-30,17106.0,0.0,17106.0,0,
2020-10-01,17106.0,0.0,17106.0,0,
2020-10-02,17106.0,0.0,17106.0,0,
2020-10-04,17106.0,0.0,17106.0,0,
2020-10-05,17106.0,0.0,17106.0,0,
2020-10-06,17106.0,0.0,17106.0,0,
2020-10-07,17106.0,0.0,17106.0,0,
2020-10-08,17106.0,0.0,17106.0,0,
2020-10-09,17106.0,105.0,17211.0,1,Long
2020-10-11,17106.0,68.0,17174.0,1,Long
2020-10-12,17106.0,248.0,17354.0,1,Long
2020-10-13,17106.0,209.0,17315.0,1,Long
2020-10-14,17106.0,-144.0,16962.0,1,Long
2020-10-15,16961.0,0.0,16961.0,0,
2020-10-16,16961.0,0.0,16961.0,0,
2020-10-18,16961.0,0.0,16961.0,0,
2020-10-19,16961.0,-372.0,16589.0,1,Long
2020-10-20,16589.0,0.0,16589.0,0,
2020-10-21,16589.0,0.0,16589.0,0,
2020-10-22,16589.0,0.0,16589.0,0,
2020-10-23,16589.0,0.0,16589.0,0,
2020-10-25,16589.0,0.0,16589.0,0,
2020-10-26,16589.0,0.0,16589.0,0,
2020-10-27,16589.0,0.0,16589.0,0,
2020-10-28,16589.0,0.0,16589.0,0,
2020-10-29,16589.0,0.0,16589.0,0,
2020-10-30,16589.0,0.0,16589.0,0,
2020-11-01,16589.0,0.0,16589.0,0,
2020-11-02,16589.0,0.0,16589.0,0,
2020-11-03,16589.0,0.0,16589.0,0,
2020-11-04,16589.0,0.0,16589.0,0,
2020-11-05,16589.0,200.0,16789.0,1,Long
2020-11-06,16589.0,348.0,16937.0,1,Long
2020-11-08,16589.0,656.0,17245.0,1,Long
2020-11-09,16589.0,892.0,17481.0,1,Long
2020-11-10,16589.0,1456.0,18045.0,1,Long
2020-11-11,16589.0,1138.0,17727.0,1,Long
2020-11-12,16589.0,1042.0,17631.0,1,Long
2020-11-13,16589.0,1454.0,18043.0,2,Long
2020-11-15,16589.0,1926.0,18515.0,2,Long
2020-11-16,16589.0,2192.0,18781.0,2,Long
2020-11-17,16589.0,1966.0,18555.0,2,Long
2020-11-18,16589.0,1362.0,17951.0,2,Long
2020-11-19,16589.0,1146.0,17735.0,2,Long
2020-11-20,16589.0,976.0,17565.0,2,Long
2020-11-22,16589.0,1222.0,17811.0,2,Long
2020-11-23,16589.0,2270.0,18859.0,2,Long
2020-11-24,16589.0,2718.0,19307.0,2,Long
2020-11-25,16589.0,2316.0,18905.0,2,Long
2020-11-26,16589.0,2218.0,18807.0,2,Long
2020-11-27,16589.0,2406.0,18995.0,4,Long
2020-11-29,16589.0,1570.0,18159.0,4,Long
2020-11-30,16589.0,2302.0,18891.0,4,Long
2020-12-01,16589.0,1610.0,18199.0,4,Long
2020-12-02,16589.0,2162.0,18751.0,4,Long
2020-12-03,16589.0,2798.0,19387.0,4,Long
2020-12-04,16589.0,3438.0,20027.0,4,Long
2020-12-06,16589.0,3402.0,19991.0,4,Long
2020-12-07,16589.0,2810.0,19399.0,4,Long
2020-12-08,16589.0,3922.0,20511.0,4,Long
2020-12-09,16589.0,3206.0,19795.0,4,Long
2020-12-10,16589.0,2870.0,19459.0,4,Long
2020-12-11,16589.0,2710.0,19299.0,6,Long
2020-12-13,16589.0,3724.0,20313.0,6,Long
2020-12-14,16589.0,1714.0,18303.0,6,Long
2020-12-15,16589.0,3526.0,20115.0,6,Long
2020-12-16,16589.0,3880.0,20469.0,6,Long
2020-12-17,16589.0,3670.0,20259.0,6,Long
2020-12-18,16589.0,4660.0,21249.0,6,Long
2020-12-20,16589.0,3748.0,20337.0,6,Long
2020-12-21,16589.0,2950.0,19539.0,6,Long
2020-12-22,16589.0,2266.0,18855.0,6,Long
2020-12-23,16589.0,3562.0,20151.0,6,Long
2020-12-24,16589.0,3574.0,20163.0,6,Long
2020-12-27,16589.0,4420.0,21009.0,6,Long
2020-12-28,16589.0,5710.0,22299.0,6,Long
2020-12-29,16589.0,4858.0,21447.0,6,Long
2020-12-30,16589.0,4846.0,21435.0,6,Long
2020-12-31,16589.0,5932.0,22521.0,6,Long
2021-01-03,16589.0,5968.0,22557.0,6,Long
2021-01-04,16589.0,3418.0,20007.0,6,Long
2021-01-05,16589.0,4324.0,20913.0,6,Long
2021-01-06,16589.0,8038.0,24627.0,6,Long
2021-01-07,16589.0,9490.0,26079.0,6,Long
2021-01-08,16589.0,9174.0,25763.0,8,Long
2021-01-10,16589.0,7390.0,23979.0,8,Long
2021-01-11,16589.0,8126.0,24715.0,8,Long
2021-01-12,16589.0,9318.0,25907.0,8,Long
2021-01-13,16589.0,9686.0,26275.0,8,Long
2021-01-14,16589.0,7318.0,23907.0,8,Long
2021-01-15,16589.0,5998.0,22587.0,8,Long
2021-01-17,16589.0,6446.0,23035.0,8,Long
2021-01-18,16589.0,8086.0,24675.0,8,Long
2021-01-19,16589.0,7470.0,24059.0,8,Long
2021-01-20,16589.0,10166.0,26755.0,8,Long
2021-01-21,16589.0,8910.0,25499.0,8,Long
2021-01-22,16589.0,8146.0,24735.0,9,Long
2021-01-24,16589.0,8947.0,25536.0,9,Long
2021-01-25,16589.0,6301.0,22890.0,9,Long
2021-01-26,16589.0,6895.0,23484.0,9,Long
2021-01-27,16589.0,1387.0,17976.0,9,Long
2021-01-28,16589.0,2089.0,18678.0,9,Long
2021-01-29,18660.0,0.0,18660.0,0,
2021-01-31,18660.0,0.0,18660.0,0,
2021-02-01,18660.0,0.0,18660.0,0,
2021-02-02,18660.0,0.0,18660.0,0,
2021-02-03,18660.0,0.0,18660.0,0,
2021-02-04,18660.0,0.0,18660.0,0,
2021-02-05,18660.0,0.0,18660.0,0,
2021-02-07,18660.0,61.0,18721.0,1,Long
2021-02-08,18660.0,133.0,18793.0,1,Long
2021-02-09,18660.0,237.0,18897.0,1,Long
2021-02-10,18660.0,244.0,18904.0,1,Long
2021-02-11,18660.0,187.0,18847.0,1,Long
2021-02-12,18660.0,287.0,18947.0,1,Long
2021-02-14,18660.0,411.0,19071.0,1,Long
2021-02-15,18660.0,523.0,19183.0,1,Long
2021-02-16,18660.0,327.0,18987.0,1,Long
2021-02-17,18660.0,400.0,19060.0,1,Long
2021-02-18,18660.0,220.0,18880.0,1,Long
2021-02-19,18660.0,255.0,18915.0,2,Long
2021-02-21,18660.0,213.0,18873.0,2,Long
2021-02-22,18660.0,589.0,19249.0,2,Long
2021-02-23,18660.0,257.0,18917.0,2,Long
2021-02-24,18660.0,1421.0,20081.0,2,Long
2021-02-25,18660.0,-91.0,18569.0,2,Long
2021-02-26,18660.0,-799.0,17861.0,2,Long
2021-02-28,18009.0,0.0,18009.0,0,
2021-03-01,18009.0,0.0,18009.0,0,
2021-03-02,18009.0,52.0,18061.0,1,Long
2021-03-03,18009.0,-294.0,17715.0,1,Long
2021-03-04,17718.0,0.0,17718.0,0,
2021-03-05,17718.0,0.0,17718.0,0,
2021-03-07,17718.0,-88.0,17630.0,1,Long
2021-03-08,17718.0,420.0,18138.0,1,Long
2021-03-09,17718.0,239.0,17957.0,1,Long
2021-03-10,17718.0,850.0,18568.0,1,Long
2021-03-11,17718.0,1026.0,18744.0,1,Long
2021-03-12,17718.0,1127.0,18845.0,1,Long
2021-03-14,17718.0,1178.0,18896.0,1,Long
2021-03-15,17718.0,1251.0,18969.0,1,Long
2021-03-16,17718.0,1135.0,18853.0,1,Long
2021-03-17,17718.0,1418.0,19136.0,1,Long
2021-03-18,17718.0,1247.0,18965.0,1,Long
2021-03-19,17718.0,846.0,18564.0,2,Long
2021-03-21,17718.0,680.0,18398.0,2,Long
2021-03-22,17718.0,996.0,18714.0,2,Long
2021-03-23,17718.0,438.0,18156.0,2,Long
2021-03-24,17718.0,652.0,18370.0,2,Long
2021-03-25,17718.0,1006.0,18724.0,2,Long
2021-03-26,17718.0,1746.0,19464.0,2,Long
2021-03-28,17718.0,1544.0,19262.0,2,Long
2021-03-29,17718.0,2014.0,19732.0,2,Long
2021-03-30,17718.0,1724.0,19442.0,2,Long
2021-03-31,17718.0,1550.0,19268.0,2,Long
2021-04-01,17718.0,1892.0,19610.0,2,Long
2021-04-02,17718.0,2268.0,19986.0,4,Long
2021-04-04,17718.0,2428.0,20146.0,4,Long
2021-04-05,17718.0,2720.0,20438.0,4,Long
2021-04-06,17718.0,2792.0,20510.0,4,Long
2021-04-07,17718.0,2928.0,20646.0,4,Long
2021-04-08,17718.0,3000.0,20718.0,4,Long
2021-04-09,17718.0,3956.0,21674.0,4,Long
2021-04-11,17718.0,3748.0,21466.0,4,Long
2021-04-12,17718.0,4008.0,21726.0,4,Long
2021-04-13,17718.0,3528.0,21246.0,4,Long
2021-04-14,17718.0,4132.0,21850.0,4,Long
2021-04-15,17718.0,4968.0,22686.0,4,Long
2021-04-16,17718.0,5496.0,23214.0,6,Long
2021-04-18,17718.0,5082.0,22800.0,6,Long
2021-04-19,17718.0,5442.0,23160.0,6,Long
2021-04-20,17718.0,3186.0,20904.0,6,Long
2021-04-21,17718.0,5046.0,22764.0,6,Long
2021-04-22,17718.0,3678.0,21396.0,6,Long
2021-04-23,17718.0,4638.0,22356.0,6,Long
2021-04-25,17718.0,5052.0,22770.0,6,Long
2021-04-26,17718.0,4590.0,22308.0,6,Long
2021-04-27,17718.0,4206.0,21924.0,6,Long
2021-04-28,17718.0,4020.0,21738.0,6,Long
2021-04-29,17718.0,4548.0,22266.0,6,Long
2021-04-30,17718.0,4006.0,21724.0,8,Long
2021-05-02,17718.0,4782.0,22500.0,8,Long
2021-05-03,17718.0,5294.0,23012.0,8,Long
2021-05-04,17718.0,6478.0,24196.0,8,Long
2021-05-05,17718.0,6542.0,24260.0,8,Long
2021-05-06,17718.0,9270.0,26988.0,8,Long
2021-05-07,17718.0,11198.0,28916.0,8,Long
2021-05-09,17718.0,11806.0,29524.0,8,Long
2021-05-10,17718.0,10262.0,27980.0,8,Long
2021-05-11,17718.0,5142.0,22860.0,8,Long
2021-05-12,22852.0,0.0,22852.0,0,
2021-05-13,22852.0,0.0,22852.0,0,
2021-05-14,22852.0,0.0,22852.0,0,
2021-05-16,22852.0,0.0,22852.0,0,
2021-05-17,22852.0,0.0,22852.0,0,
2021-05-18,22852.0,0.0,22852.0,0,
2021-05-19,22852.0,0.0,22852.0,0,
2021-05-20,22852.0,0.0,22852.0,0,
2021-05-21,22852.0,0.0,22852.0,0,
2021-05-23,22852.0,0.0,22852.0,0,
2021-05-24,22852.0,0.0,22852.0,0,
2021-05-25,22852.0,0.0,22852.0,0,
2021-05-26,22852.0,0.0,22852.0,0,
2021-05-27,22852.0,0.0,22852.0,0,
2021-05-28,22852.0,0.0,22852.0,0,
2021-05-30,22852.0,0.0,22852.0,0,
2021-05-31,22852.0,0.0,22852.0,0,
2021-06-01,22852.0,0.0,22852.0,0,
2021-06-02,22852.0,0.0,22852.0,0,
2021-06-03,22852.0,0.0,22852.0,0,
2021-06-04,22852.0,0.0,22852.0,0,
2021-06-06,22852.0,0.0,22852.0,0,
2021-06-07,22852.0,0.0,22852.0,0,
2021-06-08,22852.0,0.0,22852.0,0,
2021-06-09,22852.0,0.0,22852.0,0,
2021-06-10,22852.0,0.0,22852.0,0,
2021-06-11,22852.0,0.0,22852.0,0,
2021-06-13,22852.0,0.0,22852.0,0,
2021-06-14,22852.0,0.0,22852.0,0,
2021-06-15,22852.0,0.0,22852.0,0,
2021-06-16,22852.0,0.0,22852.0,0,
2021-06-17,22852.0,0.0,22852.0,0,
2021-06-18,22852.0,0.0,22852.0,0,
2021-06-20,22852.0,0.0,22852.0,0,
2021-06-21,22852.0,0.0,22852.0,0,
2021-06-22,22852.0,0.0,22852.0,0,
2021-06-23,22852.0,0.0,22852.0,0,
2021-06-24,22852.0,0.0,22852.0,0,
2021-06-25,22852.0,144.0,22996.0,1,Long
2021-06-27,22852.0,118.0,22970.0,1,Long
2021-06-28,22852.0,-102.0,22750.0,1,Long
2021-06-29,22749.0,0.0,22749.0,0,
2021-06-30,22749.0,0.0,22749.0,0,
2021-07-01,22749.0,89.0,22838.0,1,Long
2021-07-02,22749.0,184.0,22933.0,1,Long
2021-07-04,22749.0,160.0,22909.0,1,Long
2021-07-05,22749.0,266.0,23015.0,1,Long
2021-07-06,22749.0,-21.0,22728.0,1,Long
2021-07-07,22749.0,20.0,22769.0,1,Long
2021-07-08,22749.0,-248.0,22501.0,1,Long
2021-07-09,22504.0,0.0,22504.0,0,
2021-07-11,22504.0,-65.0,22439.0,1,Long
2021-07-12,22504.0,113.0,22617.0,1,Long
2021-07-13,22504.0,-15.0,22489.0,1,Long
2021-07-14,22504.0,3.0,22507.0,1,Long
2021-07-15,22504.0,111.0,22615.0,1,Long
2021-07-16,22504.0,-202.0,22302.0,1,Long
2021-07-18,22504.0,-346.0,22158.0,1,Long
2021-07-19,22504.0,-859.0,21645.0,1,Long
2021-07-20,21641.0,0.0,21641.0,0,
2021-07-21,21641.0,319.0,21960.0,1,Long
2021-07-22,21641.0,361.0,22002.0,1,Long
2021-07-23,21641.0,518.0,22159.0,1,Long
2021-07-25,21641.0,398.0,22039.0,1,Long
2021-07-26,21641.0,581.0,22222.0,1,Long
2021-07-27,21641.0,477.0,22118.0,1,Long
2021-07-28,21641.0,424.0,22065.0,1,Long
2021-07-29,21641.0,471.0,22112.0,1,Long
2021-07-30,21641.0,529.0,22170.0,2,Long
2021-08-01,21641.0,753.0,22394.0,2,Long
2021-08-02,21641.0,381.0,22022.0,2,Long
2021-08-03,21641.0,717.0,22358.0,2,Long
2021-08-04,21641.0,283.0,21924.0,2,Long
2021-08-05,21641.0,617.0,22258.0,2,Long
2021-08-06,21641.0,975.0,22616.0,2,Long
2021-08-08,21641.0,881.0,22522.0,2,Long
2021-08-09,21641.0,663.0,22304.0,2,Long
2021-08-10,21641.0,1063.0,22704.0,2,Long
2021-08-11,21641.0,1567.0,23208.0,2,Long
2021-08-12,21641.0,1595.0,23236.0,2,Long
2021-08-13,21641.0,1591.0,23232.0,4,Long
2021-08-15,21641.0,1131.0,22772.0,4,Long
2021-08-16,21641.0,1715.0,23356.0,4,Long
2021-08-17,21641.0,1031.0,22672.0,4,Long
2021-08-18,21641.0,-533.0,21108.0,4,Long
2021-08-19,21641.0,-901.0,20740.0,4,Long
2021-08-20,21641.0,211.0,21852.0,4,Long
2021-08-22,21641.0,743.0,22384.0,4,Long
2021-08-23,21641.0,1363.0,23004.0,4,Long
2021-08-24,21641.0,1051.0,22692.0,4,Long
2021-08-25,21641.0,1275.0,22916.0,4,Long
2021-08-26,21641.0,799.0,22440.0,4,Long
2021-08-27,21641.0,1639.0,23280.0,6,Long
2021-08-29,21641.0,1741.0,23382.0,6,Long
2021-08-30,21641.0,1555.0,23196.0,6,Long
2021-08-31,21641.0,1747.0,23388.0,6,Long
2021-09-01,21641.0,643.0,22284.0,6,Long
2021-09-02,21641.0,2041.0,23682.0,6,Long
2021-09-03,21641.0,1207.0,22848.0,6,Long
2021-09-05,21641.0,1261.0,22902.0,6,Long
2021-09-06,21641.0,1579.0,23220.0,6,Long
2021-09-07,21641.0,-347.0,21294.0,6,Long
2021-09-08,21641.0,-1349.0,20292.0,6,Long
2021-09-09,21641.0,-1085.0,20556.0,6,Long
2021-09-10,19848.0,0.0,19848.0,0,
2021-09-12,19848.0,0.0,19848.0,0,
2021-09-13,19848.0,0.0,19848.0,0,
2021-09-14,19848.0,0.0,19848.0,0,
2021-09-15,19848.0,0.0,19848.0,0,
2021-09-16,19848.0,0.0,19848.0,0,
2021-09-17,19848.0,0.0,19848.0,0,
2021-09-19,19848.0,0.0,19848.0,0,
2021-09-20,19848.0,0.0,19848.0,0,
2021-09-21,19848.0,0.0,19848.0,0,
2021-09-22,19848.0,0.0,19848.0,0,
2021-09-23,19848.0,0.0,19848.0,0,
2021-09-24,19848.0,0.0,19848.0,0,
2021-09-26,19848.0,0.0,19848.0,0,
2021-09-27,19848.0,0.0,19848.0,0,
2021-09-28,19848.0,0.0,19848.0,0,
2021-09-29,19848.0,0.0,19848.0,0,
2021-09-30,19848.0,0.0,19848.0,0,
2021-10-01,19848.0,0.0,19848.0,0,
2021-10-03,19848.0,0.0,19848.0,0,
2021-10-04,19848.0,0.0,19848.0,0,
2021-10-05,19848.0,0.0,19848.0,0,
2021-10-06,19848.0,0.0,19848.0,0,
2021-10-07,19848.0,0.0,19848.0,0,
2021-10-08,19848.0,0.0,19848.0,0,
2021-10-10,19848.0,0.0,19848.0,0,
2021-10-11,19848.0,0.0,19848.0,0,
2021-10-12,19848.0,0.0,19848.0,0,
2021-10-13,19848.0,0.0,19848.0,0,
2021-10-14,19848.0,0.0,19848.0,0,
2021-10-15,19848.0,300.0,20148.0,1,Long
2021-10-17,19848.0,296.0,20144.0,1,Long
2021-10-18,19848.0,229.0,20077.0,1,Long
2021-10-19,19848.0,446.0,20294.0,1,Long
2021-10-20,19848.0,544.0,20392.0,1,Long
2021-10-21,19848.0,627.0,20475.0,1,Long
2021-10-22,19848.0,602.0,20450.0,1,Long
2021-10-24,19848.0,671.0,20519.0,1,Long
2021-10-25,19848.0,776.0,20624.0,1,Long
2021-10-26,19848.0,748.0,20596.0,1,Long
2021-10-27,19848.0,550.0,20398.0,1,Long
2021-10-28,19848.0,695.0,20543.0,1,Long
2021-10-29,19848.0,905.0,20753.0,2,Long
2021-10-31,19848.0,989.0,20837.0,2,Long
2021-11-01,19848.0,863.0,20711.0,2,Long
2021-11-02,19848.0,1209.0,21057.0,2,Long
2021-11-03,19848.0,1441.0,21289.0,2,Long
2021-11-04,19848.0,1395.0,21243.0,2,Long
2021-11-05,19848.0,1759.0,21607.0,2,Long
2021-11-07,19848.0,1783.0,21631.0,2,Long
2021-11-08,19848.0,1859.0,21707.0,2,Long
2021-11-09,19848.0,1593.0,21441.0,2,Long
2021-11-10,19848.0,1333.0,21181.0,2,Long
2021-11-11,19848.0,1183.0,21031.0,2,Long
2021-11-12,19848.0,1511.0,21359.0,4,Long
2021-11-14,19848.0,1439.0,21287.0,4,Long
2021-11-15,19848.0,1439.0,21287.0,4,Long
2021-11-16,19848.0,1667.0,21515.0,4,Long
2021-11-17,19848.0,879.0,20727.0,4,Long
2021-11-18,19848.0,1127.0,20975.0,4,Long
2021-11-19,19848.0,-253.0,19595.0,4,Long
2021-11-21,19848.0,47.0,19895.0,4,Long
2021-11-22,19848.0,-173.0,19675.0,4,Long
2021-11-23,19848.0,159.0,20007.0,4,Long
2021-11-24,19848.0,879.0,20727.0,4,Long
2021-11-25,20731.0,0.0,20731.0,0,
2021-11-26,20731.0,0.0,20731.0,0,
2021-11-28,20731.0,0.0,20731.0,0,
2021-11-29,20731.0,0.0,20731.0,0,
2021-11-30,20731.0,0.0,20731.0,0,
2021-12-01,20731.0,0.0,20731.0,0,
2021-12-02,20731.0,0.0,20731.0,0,
2021-12-03,20731.0,0.0,20731.0,0,
2021-12-05,20731.0,0.0,20731.0,0,
2021-12-06,20731.0,0.0,20731.0,0,
2021-12-07,20731.0,0.0,20731.0,0,
2021-12-08,20731.0,-123.0,20608.0,1,Long
2021-12-09,20607.0,0.0,20607.0,0,
2021-12-10,20607.0,0.0,20607.0,0,
2021-12-12,20607.0,119.0,20726.0,1,Long
2021-12-13,20607.0,-297.0,20310.0,1,Long
2021-12-14,20308.0,0.0,20308.0,0,
2021-12-15,20308.0,0.0,20308.0,0,
2021-12-16,20308.0,-101.0,20207.0,1,Long
2021-12-17,20208.0,0.0,20208.0,0,
2021-12-19,20208.0,0.0,20208.0,0,
2021-12-20,20208.0,0.0,20208.0,0,
2021-12-21,20208.0,0.0,20208.0,0,
2021-12-22,20208.0,0.0,20208.0,0,
2021-12-23,20208.0,0.0,20208.0,0,
2021-12-26,20208.0,-12.0,20196.0,1,Long
2021-12-27,20208.0,301.0,20509.0,1,Long
2021-12-28,20208.0,452.0,20660.0,1,Long
2021-12-29,20208.0,522.0,20730.0,1,Long
2021-12-30,20208.0,378.0,20586.0,1,Long
2021-12-31,20208.0,412.0,20620.0,1,Long
2022-01-02,20208.0,502.0,20710.0,1,Long
2022-01-03,20208.0,660.0,20868.0,1,Long
2022-01-04,20208.0,756.0,20964.0,1,Long
2022-01-05,20208.0,333.0,20541.0,1,Long
2022-01-06,20208.0,354.0,20562.0,1,Long
2022-01-07,20208.0,239.0,20447.0,2,Long
2022-01-09,20208.0,213.0,20421.0,2,Long
2022-01-10,20208.0,-103.0,20105.0,2,Long
2022-01-11,20208.0,331.0,20539.0,2,Long
2022-01-12,20208.0,243.0,20451.0,2,Long
2022-01-13,20208.0,27.0,20235.0,2,Long
2022-01-14,20208.0,-339.0,19869.0,2,Long
2022-01-16,20208.0,-525.0,19683.0,2,Long
2022-01-17,19681.0,0.0,19681.0,0,
2022-01-18,19681.0,0.0,19681.0,0,
2022-01-19,19681.0,0.0,19681.0,0,
2022-01-20,19681.0,0.0,19681.0,0,
2022-01-21,19681.0,0.0,19681.0,0,
2022-01-23,19681.0,0.0,19681.0,0,
2022-01-24,19681.0,0.0,19681.0,0,
2022-01-25,19681.0,0.0,19681.0,0,
2022-01-26,19681.0,0.0,19681.0,0,
2022-01-27,19681.0,0.0,19681.0,0,
2022-01-28,19681.0,0.0,19681.0,0,
2022-01-30,19681.0,0.0,19681.0,0,
2022-01-31,19681.0,0.0,19681.0,0,
2022-02-01,19681.0,0.0,19681.0,0,
2022-02-02,19681.0,0.0,19681.0,0,
2022-02-03,19681.0,-311.0,19370.0,1,Long
2022-02-04,19369.0,0.0,19369.0,0,
2022-02-06,19369.0,0.0,19369.0,0,
2022-02-07,19369.0,0.0,19369.0,0,
2022-02-08,19369.0,0.0,19369.0,0,
2022-02-09,19369.0,163.0,19532.0,1,Long
2022-02-10,19369.0,-560.0,18809.0,1,Long
2022-02-11,18810.0,0.0,18810.0,0,
2022-02-13,18810.0,0.0,18810.0,0,
2022-02-14,18810.0,0.0,18810.0,0,
2022-02-15,18810.0,0.0,18810.0,0,
2022-02-16,18810.0,0.0,18810.0,0,
2022-02-17,18810.0,0.0,18810.0,0,
2022-02-18,18810.0,0.0,18810.0,0,
2022-02-20,18810.0,0.0,18810.0,0,
2022-02-21,18810.0,0.0,18810.0,0,
2022-02-22,18810.0,0.0,18810.0,0,
2022-02-23,18810.0,0.0,18810.0,0,
2022-02-24,18810.0,0.0,18810.0,0,
2022-02-25,18810.0,0.0,18810.0,0,
2022-02-27,18810.0,0.0,18810.0,0,
2022-02-28,18810.0,0.0,18810.0,0,
2022-03-01,18810.0,0.0,18810.0,0,
2022-03-02,18810.0,0.0,18810.0,0,
2022-03-03,18810.0,0.0,18810.0,0,
2022-03-04,18810.0,0.0,18810.0,0,
2022-03-06,18810.0,0.0,18810.0,0,
2022-03-07,18810.0,0.0,18810.0,0,
2022-03-08,18810.0,0.0,18810.0,0,
2022-03-09,18810.0,0.0,18810.0,0,
2022-03-10,18810.0,0.0,18810.0,0,
2022-03-11,18810.0,0.0,18810.0,0,
2022-03-13,18810.0,0.0,18810.0,0,
2022-03-14,18810.0,0.0,18810.0,0,
2022-03-15,18810.0,0.0,18810.0,0,
2022-03-16,18810.0,0.0,18810.0,0,
2022-03-17,18810.0,0.0,18810.0,0,
2022-03-18,18810.0,0.0,18810.0,0,
2022-03-20,18810.0,0.0,18810.0,0,
2022-03-21,18810.0,0.0,18810.0,0,
2022-03-22,18810.0,0.0,18810.0,0,
2022-03-23,18810.0,0.0,18810.0,0,
2022-03-24,18810.0,0.0,18810.0,0,
2022-03-25,18810.0,0.0,18810.0,0,
2022-03-27,18810.0,0.0,18810.0,0,
2022-03-28,18810.0,0.0,18810.0,0,
2022-03-29,18810.0,263.0,19073.0,1,Long
2022-03-30,18810.0,272.0,19082.0,1,Long
2022-03-31,18810.0,-144.0,18666.0,1,Long
2022-04-01,18664.0,0.0,18664.0,0,
2022-04-03,18664.0,0.0,18664.0,0,
2022-04-04,18664.0,0.0,18664.0,0,
2022-04-05,18664.0,0.0,18664.0,0,
2022-04-06,18664.0,0.0,18664.0,0,
2022-04-07,18664.0,0.0,18664.0,0,
2022-04-08,18664.0,0.0,18664.0,0,
2022-04-10,18664.0,0.0,18664.0,0,
2022-04-11,18664.0,0.0,18664.0,0,
2022-04-12,18664.0,0.0,18664.0,0,
2022-04-13,18664.0,0.0,18664.0,0,
2022-04-14,18664.0,0.0,18664.0,0,
2022-04-17,18664.0,0.0,18664.0,0,
2022-04-18,18664.0,0.0,18664.0,0,
2022-04-19,18664.0,0.0,18664.0,0,
2022-04-20,18664.0,0.0,18664.0,0,
2022-04-21,18664.0,-578.0,18086.0,1,Long
2022-04-22,18087.0,0.0,18087.0,0,
2022-04-24,18087.0,0.0,18087.0,0,
2022-04-25,18087.0,0.0,18087.0,0,
2022-04-26,18087.0,0.0,18087.0,0,
2022-04-27,18087.0,0.0,18087.0,0,
2022-04-28,18087.0,0.0,18087.0,0,
2022-04-29,18087.0,0.0,18087.0,0,
2022-05-01,18087.0,0.0,18087.0,0,
2022-05-02,18087.0,0.0,18087.0,0,
2022-05-03,18087.0,0.0,18087.0,0,
2022-05-04,18087.0,0.0,18087.0,0,
2022-05-05,18087.0,0.0,18087.0,0,
2022-05-06,18087.0,0.0,18087.0,0,
2022-05-08,18087.0,0.0,18087.0,0,
2022-05-09,18087.0,0.0,18087.0,0,
2022-05-10,18087.0,0.0,18087.0,0,
2022-05-11,18087.0,0.0,18087.0,0,
2022-05-12,18087.0,0.0,18087.0,0,
2022-05-13,18087.0,0.0,18087.0,0,
2022-05-15,18087.0,0.0,18087.0,0,
2022-05-16,18087.0,0.0,18087.0,0,
2022-05-17,18087.0,0.0,18087.0,0,
2022-05-18,18087.0,0.0,18087.0,0,
2022-05-19,18087.0,0.0,18087.0,0,
2022-05-20,18087.0,0.0,18087.0,0,
2022-05-22,18087.0,0.0,18087.0,0,
2022-05-23,18087.0,0.0,18087.0,0,
2022-05-24,18087.0,0.0,18087.0,0,
2022-05-25,18087.0,0.0,18087.0,0,
2022-05-26,18087.0,0.0,18087.0,0,
2022-05-27,18087.0,0.0,18087.0,0,
2022-05-29,18087.0,6.0,18093.0,1,Long
2022-05-30,18087.0,-30.0,18057.0,1,Long
2022-05-31,18058.0,0.0,18058.0,0,
2022-06-01,18058.0,0.0,18058.0,0,
2022-06-02,18058.0,0.0,18058.0,0,
2022-06-03,18058.0,-330.0,17728.0,1,Long
2022-06-05,17768.0,0.0,17768.0,0,
2022-06-06,17768.0,0.0,17768.0,0,
2022-06-07,17768.0,0.0,17768.0,0,
2022-06-08,17768.0,0.0,17768.0,0,
2022-06-09,17768.0,0.0,17768.0,0,
2022-06-10,17768.0,0.0,17768.0,0,
2022-06-12,17768.0,0.0,17768.0,0,
2022-06-13,17768.0,0.0,17768.0,0,
2022-06-14,17768.0,0.0,17768.0,0,
2022-06-15,17768.0,0.0,17768.0,0,
2022-06-16,17768.0,0.0,17768.0,0,
2022-06-17,17768.0,0.0,17768.0,0,
2022-06-19,17768.0,0.0,17768.0,0,
2022-06-20,17768.0,0.0,17768.0,0,
2022-06-21,17768.0,0.0,17768.0,0,
2022-06-22,17768.0,0.0,17768.0,0,
2022-06-23,17768.0,0.0,17768.0,0,
2022-06-24,17768.0,0.0,17768.0,0,
2022-06-26,17768.0,0.0,17768.0,0,
2022-06-27,17768.0,0.0,17768.0,0,
2022-06-28,17768.0,0.0,17768.0,0,
2022-06-29,17768.0,0.0,17768.0,0,
2022-06-30,17768.0,0.0,17768.0,0,
2022-07-01,17768.0,0.0,17768.0,0,
2022-07-03,17768.0,0.0,17768.0,0,
2022-07-04,17768.0,0.0,17768.0,0,
2022-07-05,17768.0,0.0,17768.0,0,
2022-07-06,17768.0,0.0,17768.0,0,
2022-07-07,17768.0,0.0,17768.0,0,
2022-07-08,17768.0,0.0,17768.0,0,
2022-07-10,17768.0,0.0,17768.0,0,
2022-07-11,17768.0,0.0,17768.0,0,
2022-07-12,17768.0,0.0,17768.0,0,
2022-07-13,17768.0,0.0,17768.0,0,
2022-07-14,17768.0,0.0,17768.0,0,
2022-07-15,17768.0,0.0,17768.0,0,
2022-07-17,17768.0,0.0,17768.0,0,
2022-07-18,17768.0,0.0,17768.0,0,
2022-07-19,17768.0,0.0,17768.0,0,
2022-07-20,17768.0,-138.0,17630.0,1,Long
2022-07-21,17628.0,0.0,17628.0,0,
2022-07-22,17628.0,-111.0,17517.0,1,Long
2022-07-24,17533.0,0.0,17533.0,0,
2022-07-25,17533.0,0.0,17533.0,0,
2022-07-26,17533.0,0.0,17533.0,0,
2022-07-27,17533.0,0.0,17533.0,0,
2022-07-28,17533.0,381.0,17914.0,1,Long
2022-07-29,17533.0,692.0,18225.0,1,Long
2022-07-31,17533.0,555.0,18088.0,1,Long
2022-08-01,17533.0,550.0,18083.0,1,Long
2022-08-02,17533.0,319.0,17852.0,1,Long
2022-08-03,17533.0,635.0,18168.0,1,Long
2022-08-04,17533.0,651.0,18184.0,1,Long
2022-08-05,17533.0,564.0,18097.0,2,Long
2022-08-07,17533.0,574.0,18107.0,2,Long
2022-08-08,17533.0,882.0,18415.0,2,Long
2022-08-09,17533.0,588.0,18121.0,2,Long
2022-08-10,17533.0,1854.0,19387.0,2,Long
2022-08-11,17533.0,1816.0,19349.0,2,Long
2022-08-12,17533.0,2568.0,20101.0,2,Long
2022-08-14,17533.0,2432.0,19965.0,2,Long
2022-08-15,17533.0,2878.0,20411.0,2,Long
2022-08-16,17533.0,3384.0,20917.0,2,Long
2022-08-17,17533.0,3018.0,20551.0,2,Long
2022-08-18,17533.0,3008.0,20541.0,2,Long
2022-08-19,17533.0,2530.0,20063.0,4,Long
2022-08-21,17533.0,2050.0,19583.0,4,Long
2022-08-22,17533.0,154.0,17687.0,4,Long
2022-08-23,17691.0,0.0,17691.0,0,
2022-08-24,17691.0,0.0,17691.0,0,
2022-08-25,17691.0,0.0,17691.0,0,
2022-08-26,17691.0,0.0,17691.0,0,
2022-08-28,17691.0,0.0,17691.0,0,
2022-08-29,17691.0,0.0,17691.0,0,
2022-08-30,17691.0,0.0,17691.0,0,
2022-08-31,17691.0,0.0,17691.0,0,
2022-09-01,17691.0,0.0,17691.0,0,
2022-09-02,17691.0,0.0,17691.0,0,
2022-09-04,17691.0,0.0,17691.0,0,
2022-09-05,17691.0,0.0,17691.0,0,
2022-09-06,17691.0,0.0,17691.0,0,
2022-09-07,17691.0,0.0,17691.0,0,
2022-09-08,17691.0,0.0,17691.0,0,
2022-09-09,17691.0,0.0,17691.0,0,
2022-09-11,17691.0,0.0,17691.0,0,
2022-09-12,17691.0,0.0,17691.0,0,
2022-09-13,17691.0,0.0,17691.0,0,
2022-09-14,17691.0,0.0,17691.0,0,
2022-09-15,17691.0,0.0,17691.0,0,
2022-09-16,17691.0,0.0,17691.0,0,
2022-09-18,17691.0,0.0,17691.0,0,
2022-09-19,17691.0,0.0,17691.0,0,
2022-09-20,17691.0,0.0,17691.0,0,
2022-09-21,17691.0,0.0,17691.0,0,
2022-09-22,17691.0,0.0,17691.0,0,
2022-09-23,17691.0,0.0,17691.0,0,
2022-09-25,17691.0,0.0,17691.0,0,
2022-09-26,17691.0,0.0,17691.0,0,
2022-09-27,17691.0,0.0,17691.0,0,
2022-09-28,17691.0,0.0,17691.0,0,
2022-09-29,17691.0,0.0,17691.0,0,
2022-09-30,17691.0,0.0,17691.0,0,
2022-10-02,17691.0,0.0,17691.0,0,
2022-10-03,17691.0,0.0,17691.0,0,
2022-10-04,17691.0,0.0,17691.0,0,
2022-10-05,17691.0,0.0,17691.0,0,
2022-10-06,17691.0,0.0,17691.0,0,
2022-10-07,17691.0,0.0,17691.0,0,
2022-10-09,17691.0,0.0,17691.0,0,
2022-10-10,17691.0,0.0,17691.0,0,
2022-10-11,17691.0,0.0,17691.0,0,
2022-10-12,17691.0,0.0,17691.0,0,
2022-10-13,17691.0,0.0,17691.0,0,
2022-10-14,17691.0,0.0,17691.0,0,
2022-10-16,17691.0,0.0,17691.0,0,
2022-10-17,17691.0,0.0,17691.0,0,
2022-10-18,17691.0,141.0,17832.0,1,Long
2022-10-19,17691.0,-222.0,17469.0,1,Long
2022-10-20,17467.0,0.0,17467.0,0,
2022-10-21,17467.0,0.0,17467.0,0,
2022-10-23,17467.0,-63.0,17404.0,1,Long
2022-10-24,17467.0,355.0,17822.0,1,Long
2022-10-25,17467.0,618.0,18085.0,1,Long
2022-10-26,17467.0,866.0,18333.0,1,Long
2022-10-27,17467.0,916.0,18383.0,1,Long
2022-10-28,17467.0,1802.0,19269.0,1,Long
2022-10-30,17467.0,1694.0,19161.0,1,Long
2022-10-31,17467.0,1696.0,19163.0,1,Long
2022-11-01,17467.0,1539.0,19006.0,1,Long
2022-11-02,17467.0,1050.0,18517.0,1,Long
2022-11-03,17467.0,809.0,18276.0,1,Long
2022-11-04,17467.0,1190.0,18657.0,2,Long
2022-11-06,17467.0,1210.0,18677.0,2,Long
2022-11-07,17467.0,2128.0,19595.0,2,Long
2022-11-08,17467.0,2766.0,20233.0,2,Long
2022-11-09,17467.0,1596.0,19063.0,2,Long
2022-11-10,17467.0,4024.0,21491.0,2,Long
2022-11-11,17467.0,3952.0,21419.0,2,Long
2022-11-13,17467.0,3812.0,21279.0,2,Long
2022-11-14,17467.0,3774.0,21241.0,2,Long
2022-11-15,17467.0,3524.0,20991.0,2,Long
2022-11-16,17467.0,3620.0,21087.0,2,Long
2022-11-17,17467.0,3490.0,20957.0,2,Long
2022-11-18,17467.0,3880.0,21347.0,4,Long
2022-11-20,17467.0,3620.0,21087.0,4,Long
2022-11-21,17467.0,3836.0,21303.0,4,Long
2022-11-22,17467.0,5316.0,22783.0,4,Long
2022-11-23,17467.0,5856.0,23323.0,4,Long
2022-11-24,17467.0,5804.0,23271.0,4,Long
2022-11-25,17467.0,6332.0,23799.0,4,Long
2022-11-27,17467.0,5612.0,23079.0,4,Long
2022-11-28,17467.0,4568.0,22035.0,4,Long
2022-11-29,17467.0,4404.0,21871.0,4,Long
2022-11-30,17467.0,7244.0,24711.0,4,Long
2022-12-01,17467.0,6348.0,23815.0,4,Long
2022-12-02,17467.0,6380.0,23847.0,6,Long
2022-12-04,17467.0,6632.0,24099.0,6,Long
2022-12-05,17467.0,4178.0,21645.0,6,Long
2022-12-06,17467.0,2150.0,19617.0,6,Long
2022-12-07,17467.0,1658.0,19125.0,6,Long
2022-12-08,17467.0,3128.0,20595.0,6,Long
2022-12-09,17467.0,938.0,18405.0,6,Long
2022-12-11,17467.0,2414.0,19881.0,6,Long
2022-12-12,17467.0,5666.0,23133.0,6,Long
2022-12-13,17467.0,6944.0,24411.0,6,Long
2022-12-14,17467.0,5588.0,23055.0,6,Long
2022-12-15,17467.0,422.0,17889.0,6,Long
2022-12-16,17901.0,0.0,17901.0,0,
2022-12-18,17901.0,0.0,17901.0,0,
2022-12-19,17901.0,0.0,17901.0,0,
2022-12-20,17901.0,0.0,17901.0,0,
2022-12-21,17901.0,0.0,17901.0,0,
2022-12-22,17901.0,0.0,17901.0,0,
2022-12-23,17901.0,0.0,17901.0,0,
2022-12-26,17901.0,0.0,17901.0,0,
2022-12-27,17901.0,0.0,17901.0,0,
2022-12-28,17901.0,0.0,17901.0,0,
2022-12-29,17901.0,0.0,17901.0,0,
2022-12-30,17901.0,0.0,17901.0,0,
2023-01-02,17901.0,0.0,17901.0,0,
2023-01-03,17901.0,0.0,17901.0,0,
2023-01-04,17901.0,0.0,17901.0,0,
2023-01-05,17901.0,0.0,17901.0,0,
2023-01-06,17901.0,0.0,17901.0,0,
2023-01-08,17901.0,0.0,17901.0,0,
2023-01-09,17901.0,0.0,17901.0,0,
2023-01-10,17901.0,0.0,17901.0,0,
2023-01-11,17901.0,0.0,17901.0,0,
2023-01-12,17901.0,0.0,17901.0,0,
2023-01-13,17901.0,0.0,17901.0,0,
2023-01-15,17901.0,0.0,17901.0,0,
2023-01-16,17901.0,0.0,17901.0,0,
2023-01-17,17901.0,0.0,17901.0,0,
2023-01-18,17901.0,0.0,17901.0,0,
2023-01-19,17901.0,0.0,17901.0,0,
2023-01-20,17901.0,0.0,17901.0,0,
2023-01-22,17901.0,0.0,17901.0,0,
2023-01-23,17901.0,0.0,17901.0,0,
2023-01-24,17901.0,0.0,17901.0,0,
2023-01-25,17901.0,0.0,17901.0,0,
2023-01-26,17901.0,0.0,17901.0,0,
2023-01-27,17901.0,0.0,17901.0,0,
2023-01-29,17901.0,0.0,17901.0,0,
2023-01-30,17901.0,0.0,17901.0,0,
2023-01-31,17901.0,0.0,17901.0,0,
2023-02-01,17901.0,0.0,17901.0,0,
2023-02-02,17901.0,0.0,17901.0,0,
2023-02-03,17901.0,0.0,17901.0,0,
2023-02-05,17901.0,0.0,17901.0,0,
2023-02-06,17901.0,0.0,17901.0,0,
2023-02-07,17901.0,0.0,17901.0,0,
2023-02-08,17901.0,0.0,17901.0,0,
2023-02-09,17901.0,0.0,17901.0,0,
2023-02-10,17901.0,0.0,17901.0,0,
2023-02-12,17901.0,0.0,17901.0,0,
2023-02-13,17901.0,0.0,17901.0,0,
2023-02-14,17901.0,0.0,17901.0,0,
2023-02-15,17901.0,0.0,17901.0,0,
2023-02-16,17901.0,0.0,17901.0,0,
2023-02-17,17901.0,0.0,17901.0,0,
2023-02-19,17901.0,0.0,17901.0,0,
2023-02-20,17901.0,0.0,17901.0,0,
2023-02-21,17901.0,0.0,17901.0,0,
2023-02-22,17901.0,0.0,17901.0,0,
2023-02-23,17901.0,0.0,17901.0,0,
2023-02-24,17901.0,0.0,17901.0,0,
2023-02-26,17901.0,0.0,17901.0,0,
2023-02-27,17901.0,0.0,17901.0,0,
2023-02-28,17901.0,0.0,17901.0,0,
2023-03-01,17901.0,0.0,17901.0,0,
2023-03-02,17901.0,0.0,17901.0,0,
2023-03-03,17901.0,0.0,17901.0,0,
2023-03-05,17901.0,0.0,17901.0,0,
2023-03-06,17901.0,0.0,17901.0,0,
2023-03-07,17901.0,0.0,17901.0,0,
2023-03-08,17901.0,0.0,17901.0,0,
2023-03-09,17901.0,0.0,17901.0,0,
2023-03-10,17901.0,0.0,17901.0,0,
2023-03-12,17901.0,0.0,17901.0,0,
2023-03-13,17901.0,0.0,17901.0,0,
2023-03-14,17901.0,0.0,17901.0,0,
2023-03-15,17901.0,0.0,17901.0,0,
2023-03-16,17901.0,0.0,17901.0,0,
2023-03-17,17901.0,0.0,17901.0,0,
2023-03-19,17901.0,0.0,17901.0,0,
2023-03-20,17901.0,0.0,17901.0,0,
2023-03-21,17901.0,0.0,17901.0,0,
2023-03-22,17901.0,0.0,17901.0,0,
2023-03-23,17901.0,0.0,17901.0,0,
2023-03-24,17901.0,0.0,17901.0,0,
2023-03-26,17901.0,0.0,17901.0,0,
2023-03-27,17901.0,0.0,17901.0,0,
2023-03-28,17901.0,0.0,17901.0,0,
2023-03-29,17901.0,0.0,17901.0,0,
2023-03-30,17901.0,0.0,17901.0,0,
2023-03-31,17901.0,0.0,17901.0,0,
2023-04-02,17901.0,12.0,17913.0,1,Long
2023-04-03,17901.0,341.0,18242.0,1,Long
2023-04-04,17901.0,157.0,18058.0,1,Long
2023-04-05,17901.0,157.0,18058.0,1,Long
2023-04-06,17901.0,174.0,18075.0,1,Long
2023-04-07,17901.0,275.0,18176.0,1,Long
2023-04-09,17901.0,235.0,18136.0,1,Long
2023-04-10,17901.0,351.0,18252.0,1,Long
2023-04-11,17901.0,427.0,18328.0,1,Long
2023-04-12,17901.0,360.0,18261.0,1,Long
2023-04-13,17901.0,700.0,18601.0,1,Long
2023-04-14,17901.0,704.0,18605.0,2,Long
2023-04-16,17901.0,708.0,18609.0,2,Long
2023-04-17,17901.0,760.0,18661.0,2,Long
2023-04-18,17901.0,658.0,18559.0,2,Long
2023-04-19,17901.0,556.0,18457.0,2,Long
2023-04-20,17901.0,324.0,18225.0,2,Long
2023-04-21,17901.0,374.0,18275.0,2,Long
2023-04-23,17901.0,200.0,18101.0,2,Long
2023-04-24,17901.0,418.0,18319.0,2,Long
2023-04-25,17901.0,-110.0,17791.0,2,Long
2023-04-26,17901.0,-584.0,17317.0,2,Long
2023-04-27,17901.0,286.0,18187.0,2,Long
2023-04-28,17901.0,1126.0,19027.0,4,Long
2023-04-30,17901.0,1110.0,19011.0,4,Long
2023-05-01,17901.0,858.0,18759.0,4,Long
2023-05-02,17901.0,-434.0,17467.0,4,Long
2023-05-03,17901.0,-1626.0,16275.0,4,Long
2023-05-04,16275.0,0.0,16275.0,0,
2023-05-05,16275.0,0.0,16275.0,0,
2023-05-07,16275.0,0.0,16275.0,0,
2023-05-08,16275.0,0.0,16275.0,0,
2023-05-09,16275.0,0.0,16275.0,0,
2023-05-10,16275.0,0.0,16275.0,0,
2023-05-11,16275.0,0.0,16275.0,0,
2023-05-12,16275.0,0.0,16275.0,0,
2023-05-14,16275.0,0.0,16275.0,0,
2023-05-15,16275.0,0.0,16275.0,0,
2023-05-16,16275.0,0.0,16275.0,0,
2023-05-17,16275.0,0.0,16275.0,0,
2023-05-18,16275.0,0.0,16275.0,0,
2023-05-19,16275.0,0.0,16275.0,0,
2023-05-21,16275.0,0.0,16275.0,0,
2023-05-22,16275.0,0.0,16275.0,0,
2023-05-23,16275.0,0.0,16275.0,0,
2023-05-24,16275.0,0.0,16275.0,0,
2023-05-25,16275.0,0.0,16275.0,0,
2023-05-26,16275.0,0.0,16275.0,0,
2023-05-28,16275.0,0.0,16275.0,0,
2023-05-29,16275.0,0.0,16275.0,0,
2023-05-30,16275.0,0.0,16275.0,0,
2023-05-31,16275.0,0.0,16275.0,0,
2023-06-01,16275.0,0.0,16275.0,0,
2023-06-02,16275.0,0.0,16275.0,0,
2023-06-04,16275.0,15.0,16290.0,1,Long
2023-06-05,16275.0,-202.0,16073.0,1,Long
2023-06-06,16073.0,0.0,16073.0,0,
2023-06-07,16073.0,0.0,16073.0,0,
2023-06-08,16073.0,0.0,16073.0,0,
2023-06-09,16073.0,66.0,16139.0,1,Long
2023-06-11,16073.0,86.0,16159.0,1,Long
2023-06-12,16073.0,586.0,16659.0,1,Long
2023-06-13,16073.0,625.0,16698.0,1,Long
2023-06-14,16073.0,443.0,16516.0,1,Long
2023-06-15,16073.0,874.0,16947.0,1,Long
2023-06-16,16073.0,771.0,16844.0,1,Long
2023-06-18,16073.0,719.0,16792.0,1,Long
2023-06-19,16073.0,654.0,16727.0,1,Long
2023-06-20,16073.0,525.0,16598.0,1,Long
2023-06-21,16073.0,403.0,16476.0,1,Long
2023-06-22,16073.0,246.0,16319.0,1,Long
2023-06-23,16073.0,94.0,16167.0,2,Long
2023-06-25,16073.0,258.0,16331.0,2,Long
2023-06-26,16073.0,216.0,16289.0,2,Long
2023-06-27,16073.0,508.0,16581.0,2,Long
2023-06-28,16073.0,414.0,16487.0,2,Long
2023-06-29,16073.0,836.0,16909.0,2,Long
2023-06-30,16073.0,1380.0,17453.0,2,Long
2023-07-02,16073.0,1438.0,17511.0,2,Long
2023-07-03,16073.0,1442.0,17515.0,2,Long
2023-07-04,16073.0,1356.0,17429.0,2,Long
2023-07-05,16073.0,960.0,17033.0,2,Long
2023-07-06,16073.0,422.0,16495.0,2,Long
2023-07-07,16073.0,104.0,16177.0,4,Long
2023-07-09,16073.0,-212.0,15861.0,4,Long
2023-07-10,16073.0,856.0,16929.0,4,Long
2023-07-11,16073.0,2008.0,18081.0,4,Long
2023-07-12,16073.0,2688.0,18761.0,4,Long
2023-07-13,16073.0,2380.0,18453.0,4,Long
2023-07-14,16073.0,2860.0,18933.0,4,Long
2023-07-16,16073.0,2848.0,18921.0,4,Long
2023-07-17,16073.0,3236.0,19309.0,4,Long
2023-07-18,16073.0,4856.0,20929.0,4,Long
2023-07-19,16073.0,5236.0,21309.0,4,Long
2023-07-20,16073.0,6020.0,22093.0,4,Long
2023-07-21,16073.0,5706.0,21779.0,6,Long
2023-07-23,16073.0,5688.0,21761.0,6,Long
2023-07-24,16073.0,6816.0,22889.0,6,Long
2023-07-25,16073.0,6846.0,22919.0,6,Long
2023-07-26,16073.0,7572.0,23645.0,6,Long
2023-07-27,16073.0,6078.0,22151.0,6,Long
2023-07-28,16073.0,6876.0,22949.0,6,Long
2023-07-30,16073.0,6576.0,22649.0,6,Long
2023-07-31,16073.0,7578.0,23651.0,6,Long
2023-08-01,16073.0,7260.0,23333.0,6,Long
2023-08-02,16073.0,6216.0,22289.0,6,Long
2023-08-03,16073.0,5640.0,21713.0,6,Long
2023-08-04,16073.0,4306.0,20379.0,8,Long
2023-08-06,16073.0,5178.0,21251.0,8,Long
2023-08-07,16073.0,7090.0,23163.0,8,Long
2023-08-08,16073.0,6202.0,22275.0,8,Long
2023-08-09,16073.0,5842.0,21915.0,8,Long
2023-08-10,16073.0,5170.0,21243.0,8,Long
2023-08-11,16073.0,6090.0,22163.0,8,Long
2023-08-13,16073.0,5378.0,21451.0,8,Long
2023-08-14,16073.0,6266.0,22339.0,8,Long
2023-08-15,16073.0,3282.0,19355.0,8,Long
2023-08-16,19363.0,0.0,19363.0,0,
2023-08-17,19363.0,0.0,19363.0,0,
2023-08-18,19363.0,0.0,19363.0,0,
2023-08-20,19363.0,0.0,19363.0,0,
2023-08-21,19363.0,0.0,19363.0,0,
2023-08-22,19363.0,0.0,19363.0,0,
2023-08-23,19363.0,0.0,19363.0,0,
2023-08-24,19363.0,0.0,19363.0,0,
2023-08-25,19363.0,0.0,19363.0,0,
2023-08-27,19363.0,0.0,19363.0,0,
2023-08-28,19363.0,0.0,19363.0,0,
2023-08-29,19363.0,0.0,19363.0,0,
2023-08-30,19363.0,0.0,19363.0,0,
2023-08-31,19363.0,0.0,19363.0,0,
2023-09-01,19363.0,0.0,19363.0,0,
2023-09-03,19363.0,0.0,19363.0,0,
2023-09-04,19363.0,0.0,19363.0,0,
2023-09-05,19363.0,0.0,19363.0,0,
2023-09-06,19363.0,0.0,19363.0,0,
2023-09-07,19363.0,0.0,19363.0,0,
2023-09-08,19363.0,0.0,19363.0,0,
2023-09-10,19363.0,0.0,19363.0,0,
2023-09-11,19363.0,0.0,19363.0,0,
2023-09-12,19363.0,0.0,19363.0,0,
2023-09-13,19363.0,0.0,19363.0,0,
2023-09-14,19363.0,0.0,19363.0,0,
2023-09-15,19363.0,-392.0,18971.0,1,Long
2023-09-17,18969.0,0.0,18969.0,0,
2023-09-18,18969.0,0.0,18969.0,0,
2023-09-19,18969.0,0.0,18969.0,0,
2023-09-20,18969.0,0.0,18969.0,0,
2023-09-21,18969.0,0.0,18969.0,0,
2023-09-22,18969.0,0.0,18969.0,0,
2023-09-24,18969.0,0.0,18969.0,0,
2023-09-25,18969.0,0.0,18969.0,0,
2023-09-26,18969.0,0.0,18969.0,0,
2023-09-27,18969.0,0.0,18969.0,0,
2023-09-28,18969.0,0.0,18969.0,0,
2023-09-29,18969.0,0.0,18969.0,0,
2023-10-01,18969.0,0.0,18969.0,0,
2023-10-02,18969.0,0.0,18969.0,0,
2023-10-03,18969.0,0.0,18969.0,0,
2023-10-04,18969.0,0.0,18969.0,0,
2023-10-05,18969.0,0.0,18969.0,0,
2023-10-06,18969.0,0.0,18969.0,0,
2023-10-08,18969.0,0.0,18969.0,0,
2023-10-09,18969.0,0.0,18969.0,0,
2023-10-10,18969.0,0.0,18969.0,0,
2023-10-11,18969.0,0.0,18969.0,0,
2023-10-12,18969.0,0.0,18969.0,0,
2023-10-13,18969.0,0.0,18969.0,0,
2023-10-15,18969.0,0.0,18969.0,0,
2023-10-16,18969.0,0.0,18969.0,0,
2023-10-17,18969.0,0.0,18969.0,0,
2023-10-18,18969.0,0.0,18969.0,0,
2023-10-19,18969.0,0.0,18969.0,0,
2023-10-20,18969.0,0.0,18969.0,0,
2023-10-22,18969.0,0.0,18969.0,0,
2023-10-23,18969.0,0.0,18969.0,0,
2023-10-24,18969.0,0.0,18969.0,0,
2023-10-25,18969.0,0.0,18969.0,0,
2023-10-26,18969.0,0.0,18969.0,0,
2023-10-27,18969.0,0.0,18969.0,0,
2023-10-29,18969.0,0.0,18969.0,0,
2023-10-30,18969.0,0.0,18969.0,0,
2023-10-31,18969.0,0.0,18969.0,0,
2023-11-01,18969.0,0.0,18969.0,0,
2023-11-02,18969.0,0.0,18969.0,0,
2023-11-03,18969.0,215.0,19184.0,1,Long
2023-11-05,18969.0,210.0,19179.0,1,Long
2023-11-06,18969.0,130.0,19099.0,1,Long
2023-11-07,18969.0,244.0,19213.0,1,Long
2023-11-08,18969.0,225.0,19194.0,1,Long
2023-11-09,18969.0,46.0,19015.0,1,Long
2023-11-10,18969.0,350.0,19319.0,1,Long
2023-11-12,18969.0,264.0,19233.0,1,Long
2023-11-13,18969.0,437.0,19406.0,1,Long
2023-11-14,18969.0,991.0,19960.0,1,Long
2023-11-15,18969.0,1065.0,20034.0,1,Long
2023-11-16,18969.0,1109.0,20078.0,1,Long
2023-11-17,18969.0,1045.0,20014.0,2,Long
2023-11-19,18969.0,1069.0,20038.0,2,Long
2023-11-20,18969.0,1525.0,20494.0,2,Long
2023-11-21,18969.0,1423.0,20392.0,2,Long
2023-11-22,18969.0,1667.0,20636.0,2,Long
2023-11-23,18969.0,1743.0,20712.0,2,Long
2023-11-24,18969.0,1939.0,20908.0,2,Long
2023-11-26,18969.0,1769.0,20738.0,2,Long
2023-11-27,18969.0,1831.0,20800.0,2,Long
2023-11-28,18969.0,2069.0,21038.0,2,Long
2023-11-29,18969.0,2303.0,21272.0,2,Long
2023-11-30,18969.0,3133.0,22102.0,2,Long
2023-12-01,18969.0,3763.0,22732.0,4,Long
2023-12-03,18969.0,3679.0,22648.0,4,Long
2023-12-04,18969.0,3283.0,22252.0,4,Long
2023-12-05,18969.0,3491.0,22460.0,4,Long
2023-12-06,18969.0,2799.0,21768.0,4,Long
2023-12-07,18969.0,3191.0,22160.0,4,Long
2023-12-08,18969.0,3599.0,22568.0,4,Long
2023-12-10,18969.0,5015.0,23984.0,4,Long
2023-12-11,18969.0,5735.0,24704.0,4,Long
2023-12-12,18969.0,6499.0,25468.0,4,Long
2023-12-13,18969.0,8827.0,27796.0,4,Long
2023-12-14,18969.0,9227.0,28196.0,4,Long
2023-12-15,18969.0,9205.0,28174.0,6,Long
2023-12-17,18969.0,9643.0,28612.0,6,Long
2023-12-18,18969.0,9229.0,28198.0,6,Long
2023-12-19,18969.0,10813.0,29782.0,6,Long
2023-12-20,18969.0,8407.0,27376.0,6,Long
2023-12-21,18969.0,8995.0,27964.0,6,Long
2023-12-22,18969.0,9427.0,28396.0,6,Long
2023-12-25,18969.0,9901.0,28870.0,6,Long
2023-12-26,18969.0,10543.0,29512.0,6,Long
2023-12-27,18969.0,11269.0,30238.0,6,Long
2023-12-28,18969.0,11479.0,30448.0,6,Long
2023-12-29,18969.0,10989.0,29958.0,8,Long
2024-01-01,18969.0,11557.0,30526.0,8,Long
2024-01-02,18969.0,11045.0,30014.0,8,Long
2024-01-03,18969.0,9069.0,28038.0,8,Long
2024-01-04,18969.0,9173.0,28142.0,8,Long
2024-01-05,18969.0,8949.0,27918.0,8,Long
2024-01-07,18969.0,7981.0,26950.0,8,Long
2024-01-08,18969.0,10325.0,29294.0,8,Long
2024-01-09,18969.0,8997.0,27966.0,8,Long
2024-01-10,18969.0,11197.0,30166.0,8,Long
2024-01-11,18969.0,10397.0,29366.0,8,Long
2024-01-12,18969.0,9273.0,28242.0,9,Long
2024-01-14,18969.0,9849.0,28818.0,9,Long
2024-01-15,18969.0,8562.0,27531.0,9,Long
2024-01-16,18969.0,6924.0,25893.0,9,Long
2024-01-17,18969.0,6240.0,25209.0,9,Long
2024-01-18,18969.0,8112.0,27081.0,9,Long
2024-01-19,18969.0,11910.0,30879.0,9,Long
2024-01-21,18969.0,12405.0,31374.0,9,Long
2024-01-22,18969.0,13098.0,32067.0,9,Long
2024-01-23,18969.0,12405.0,31374.0,9,Long
2024-01-24,18969.0,11901.0,30870.0,9,Long
2024-01-25,18969.0,12126.0,31095.0,9,Long
2024-01-26,18969.0,13666.0,32635.0,10,Long
2024-01-28,18969.0,13176.0,32145.0,10,Long
2024-01-29,18969.0,15566.0,34535.0,10,Long
2024-01-30,18969.0,17536.0,36505.0,10,Long
2024-01-31,18969.0,14576.0,33545.0,10,Long
2024-02-01,18969.0,17516.0,36485.0,10,Long
2024-02-02,18969.0,18616.0,37585.0,10,Long
2024-02-04,18969.0,17996.0,36965.0,10,Long
2024-02-05,18969.0,15866.0,34835.0,10,Long
2024-02-06,18969.0,17456.0,36425.0,10,Long
2024-02-07,18969.0,19026.0,37995.0,10,Long
2024-02-08,18969.0,19106.0,38075.0,10,Long
2024-02-09,18969.0,18386.0,37355.0,10,Long
2024-02-11,18969.0,18596.0,37565.0,10,Long
2024-02-12,18969.0,19496.0,38465.0,10,Long
2024-02-13,18969.0,14376.0,33345.0,10,Long
2024-02-14,18969.0,16166.0,35135.0,10,Long
2024-02-15,18969.0,19186.0,38155.0,10,Long
2024-02-16,18969.0,17806.0,36775.0,10,Long
2024-02-18,18969.0,18406.0,37375.0,10,Long
2024-02-19,18969.0,17066.0,36035.0,10,Long
2024-02-20,18969.0,17236.0,36205.0,10,Long
2024-02-21,18969.0,18466.0,37435.0,10,Long
2024-02-22,18969.0,22926.0,41895.0,10,Long
2024-02-23,18969.0,22726.0,41695.0,10,Long
2024-02-25,18969.0,22616.0,41585.0,10,Long
2024-02-26,18969.0,22206.0,41175.0,10,Long
2024-02-27,18969.0,21086.0,40055.0,10,Long
2024-02-28,18969.0,21206.0,40175.0,10,Long
2024-02-29,18969.0,21856.0,40825.0,10,Long
2024-03-01,18969.0,22016.0,40985.0,10,Long
2024-03-03,18969.0,22056.0,41025.0,10,Long
2024-03-04,18969.0,20846.0,39815.0,10,Long
2024-03-05,18969.0,17266.0,36235.0,10,Long
2024-03-06,18969.0,17816.0,36785.0,10,Long
2024-03-07,18969.0,19306.0,38275.0,10,Long
2024-03-08,18969.0,19006.0,37975.0,10,Long
2024-03-10,18969.0,22546.0,41515.0,10,Long
2024-03-11,18969.0,23966.0,42935.0,10,Long
2024-03-12,18969.0,25716.0,44685.0,10,Long
2024-03-13,18969.0,26666.0,45635.0,10,Long
2024-03-14,18969.0,24626.0,43595.0,10,Long
2024-03-15,18969.0,22616.0,41585.0,10,Long
2024-03-17,18969.0,22876.0,41845.0,10,Long
2024-03-18,18969.0,23256.0,42225.0,10,Long
2024-03-19,18969.0,26456.0,45425.0,10,Long
2024-03-20,18969.0,31756.0,50725.0,10,Long
2024-03-21,18969.0,33426.0,52395.0,10,Long
2024-03-22,18969.0,29466.0,48435.0,10,Long
2024-03-24,18969.0,29286.0,48255.0,10,Long
2024-03-25,18969.0,28416.0,47385.0,10,Long
2024-03-26,18969.0,29106.0,48075.0,10,Long
2024-03-27,18969.0,32326.0,51295.0,10,Long
2024-03-28,18969.0,32626.0,51595.0,10,Long
2024-03-31,18969.0,34386.0,53355.0,10,Long
2024-04-01,18969.0,28866.0,47835.0,10,Long
2024-04-02,18969.0,25806.0,44775.0,10,Long
2024-04-03,18969.0,26576.0,45545.0,10,Long
2024-04-04,45565.0,0.0,45565.0,0,
2024-04-05,45565.0,0.0,45565.0,0,
2024-04-07,45565.0,0.0,45565.0,0,
2024-04-08,45565.0,0.0,45565.0,0,
2024-04-09,45565.0,0.0,45565.0,0,
2024-04-10,45565.0,0.0,45565.0,0,
2024-04-11,45565.0,0.0,45565.0,0,
2024-04-12,45565.0,0.0,45565.0,0,
2024-04-14,45565.0,0.0,45565.0,0,
2024-04-15,45565.0,0.0,45565.0,0,
2024-04-16,45565.0,0.0,45565.0,0,
2024-04-17,45565.0,0.0,45565.0,0,
2024-04-18,45565.0,0.0,45565.0,0,
2024-04-19,45565.0,0.0,45565.0,0,
2024-04-21,45565.0,0.0,45565.0,0,
2024-04-22,45565.0,0.0,45565.0,0,
2024-04-23,45565.0,0.0,45565.0,0,
2024-04-24,45565.0,0.0,45565.0,0,
2024-04-25,45565.0,0.0,45565.0,0,
2024-04-26,45565.0,0.0,45565.0,0,
2024-04-28,45565.0,0.0,45565.0,0,
2024-04-29,45565.0,0.0,45565.0,0,
2024-04-30,45565.0,0.0,45565.0,0,
2024-05-01,45565.0,0.0,45565.0,0,
2024-05-02,45565.0,0.0,45565.0,0,
2024-05-03,45565.0,0.0,45565.0,0,
2024-05-05,45565.0,0.0,45565.0,0,
2024-05-06,45565.0,0.0,45565.0,0,
2024-05-07,45565.0,0.0,45565.0,0,
2024-05-08,45565.0,0.0,45565.0,0,
2024-05-09,45565.0,0.0,45565.0,0,
2024-05-10,45565.0,48.0,45613.0,1,Long
2024-05-12,45565.0,71.0,45636.0,1,Long
2024-05-13,45565.0,-18.0,45547.0,1,Long
2024-05-14,45545.0,0.0,45545.0,0,
2024-05-15,45545.0,406.0,45951.0,1,Long
2024-05-16,45545.0,270.0,45815.0,1,Long
2024-05-17,45545.0,417.0,45962.0,1,Long
2024-05-19,45545.0,455.0,46000.0,1,Long
2024-05-20,45545.0,229.0,45774.0,1,Long
2024-05-21,45545.0,297.0,45842.0,1,Long
2024-05-22,45545.0,135.0,45680.0,1,Long
2024-05-23,45680.0,0.0,45680.0,0,
2024-05-24,45680.0,0.0,45680.0,0,
2024-05-26,45680.0,0.0,45680.0,0,
2024-05-27,45680.0,0.0,45680.0,0,
2024-05-28,45680.0,0.0,45680.0,0,
2024-05-29,45680.0,0.0,45680.0,0,
2024-05-30,45680.0,0.0,45680.0,0,
2024-05-31,45680.0,0.0,45680.0,0,
2024-06-02,45680.0,0.0,45680.0,0,
2024-06-03,45680.0,0.0,45680.0,0,
2024-06-04,45680.0,0.0,45680.0,0,
2024-06-05,45680.0,0.0,45680.0,0,
2024-06-06,45680.0,0.0,45680.0,0,
2024-06-07,45680.0,0.0,45680.0,0,
2024-06-09,45680.0,0.0,45680.0,0,
2024-06-10,45680.0,0.0,45680.0,0,
2024-06-11,45680.0,0.0,45680.0,0,
2024-06-12,45680.0,0.0,45680.0,0,
2024-06-13,45680.0,0.0,45680.0,0,
2024-06-14,45680.0,0.0,45680.0,0,
2024-06-16,45680.0,0.0,45680.0,0,
2024-06-17,45680.0,0.0,45680.0,0,
2024-06-18,45680.0,-9.0,45671.0,1,Long
2024-06-19,45673.0,0.0,45673.0,0,
2024-06-20,45673.0,0.0,45673.0,0,
2024-06-21,45673.0,6.0,45679.0,1,Long
2024-06-23,45673.0,-76.0,45597.0,1,Long
2024-06-24,45673.0,337.0,46010.0,1,Long
2024-06-25,45673.0,-64.0,45609.0,1,Long
2024-06-26,45673.0,-159.0,45514.0,1,Long
2024-06-27,45673.0,-25.0,45648.0,1,Long
2024-06-28,45673.0,-51.0,45622.0,1,Long
2024-06-30,45673.0,-57.0,45616.0,1,Long
2024-07-01,45673.0,-130.0,45543.0,1,Long
2024-07-02,45673.0,63.0,45736.0,1,Long
2024-07-03,45673.0,54.0,45727.0,1,Long
2024-07-04,45673.0,102.0,45775.0,1,Long
2024-07-05,45673.0,42.0,45715.0,2,Long
2024-07-07,45673.0,-2.0,45671.0,2,Long
2024-07-08,45673.0,180.0,45853.0,2,Long
2024-07-09,45673.0,-110.0,45563.0,2,Long
2024-07-10,45673.0,808.0,46481.0,2,Long
2024-07-11,45673.0,948.0,46621.0,2,Long
2024-07-12,45673.0,1382.0,47055.0,2,Long
2024-07-14,45673.0,1466.0,47139.0,2,Long
2024-07-15,45673.0,1868.0,47541.0,2,Long
2024-07-16,45673.0,3306.0,48979.0,2,Long
2024-07-17,45673.0,3918.0,49591.0,2,Long
2024-07-18,45673.0,2690.0,48363.0,2,Long
2024-07-19,45673.0,1852.0,47525.0,4,Long
2024-07-21,45673.0,1980.0,47653.0,4,Long
2024-07-22,45673.0,2260.0,47933.0,4,Long
2024-07-23,45673.0,1744.0,47417.0,4,Long
2024-07-24,47429.0,0.0,47429.0,0,
2024-07-25,47429.0,0.0,47429.0,0,
2024-07-26,47429.0,0.0,47429.0,0,
2024-07-28,47429.0,0.0,47429.0,0,
2024-07-29,47429.0,0.0,47429.0,0,
2024-07-30,47429.0,0.0,47429.0,0,
2024-07-31,47429.0,0.0,47429.0,0,
2024-08-01,47429.0,0.0,47429.0,0,
2024-08-02,47429.0,0.0,47429.0,0,
2024-08-04,47429.0,0.0,47429.0,0,
2024-08-05,47429.0,0.0,47429.0,0,
2024-08-06,47429.0,0.0,47429.0,0,
2024-08-07,47429.0,0.0,47429.0,0,
2024-08-08,47429.0,0.0,47429.0,0,
2024-08-09,47429.0,0.0,47429.0,0,
2024-08-11,47429.0,0.0,47429.0,0,
2024-08-12,47429.0,0.0,47429.0,0,
2024-08-13,47429.0,0.0,47429.0,0,
2024-08-14,47429.0,0.0,47429.0,0,
2024-08-15,47429.0,0.0,47429.0,0,
2024-08-16,47429.0,58.0,47487.0,1,Long
2024-08-18,47429.0,65.0,47494.0,1,Long
2024-08-19,47429.0,256.0,47685.0,1,Long
2024-08-20,47429.0,258.0,47687.0,1,Long
2024-08-21,47429.0,224.0,47653.0,1,Long
2024-08-22,47429.0,153.0,47582.0,1,Long
2024-08-23,47429.0,525.0,47954.0,1,Long
2024-08-25,47429.0,490.0,47919.0,1,Long
2024-08-26,47429.0,566.0,47995.0,1,Long
2024-08-27,47429.0,609.0,48038.0,1,Long
2024-08-28,47429.0,526.0,47955.0,1,Long
2024-08-29,47429.0,701.0,48130.0,1,Long
2024-08-30,47429.0,991.0,48420.0,2,Long
2024-09-01,47429.0,953.0,48382.0,2,Long
2024-09-02,47429.0,871.0,48300.0,2,Long
2024-09-03,47429.0,-509.0,46920.0,2,Long
2024-09-04,47429.0,-255.0,47174.0,2,Long
2024-09-05,47429.0,-583.0,46846.0,2,Long
2024-09-06,46840.0,0.0,46840.0,0,
2024-09-08,46840.0,0.0,46840.0,0,
2024-09-09,46840.0,0.0,46840.0,0,
2024-09-10,46840.0,0.0,46840.0,0,
2024-09-11,46840.0,0.0,46840.0,0,
2024-09-12,46840.0,0.0,46840.0,0,
2024-09-13,46840.0,0.0,46840.0,0,
2024-09-15,46840.0,0.0,46840.0,0,
2024-09-16,46840.0,0.0,46840.0,0,
2024-09-17,46840.0,50.0,46890.0,1,Long
2024-09-18,46840.0,159.0,46999.0,1,Long
2024-09-19,46840.0,411.0,47251.0,1,Long
2024-09-20,46840.0,412.0,47252.0,1,Long
2024-09-22,46840.0,483.0,47323.0,1,Long
2024-09-23,46840.0,400.0,47240.0,1,Long
2024-09-24,46840.0,484.0,47324.0,1,Long
2024-09-25,46840.0,350.0,47190.0,1,Long
2024-09-26,46840.0,512.0,47352.0,1,Long
2024-09-27,46840.0,540.0,47380.0,2,Long
2024-09-29,46840.0,646.0,47486.0,2,Long
2024-09-30,46840.0,558.0,47398.0,2,Long
2024-10-01,46840.0,132.0,46972.0,2,Long
2024-10-02,46840.0,218.0,47058.0,2,Long
2024-10-03,46840.0,-82.0,46758.0,2,Long
2024-10-04,46840.0,558.0,47398.0,2,Long
2024-10-06,46840.0,566.0,47406.0,2,Long
2024-10-07,46840.0,-278.0,46562.0,2,Long
2024-10-08,46840.0,-38.0,46802.0,2,Long
2024-10-09,46840.0,962.0,47802.0,2,Long
2024-10-10,46840.0,810.0,47650.0,2,Long
2024-10-11,46840.0,1360.0,48200.0,4,Long
2024-10-13,46840.0,1520.0,48360.0,4,Long
2024-10-14,46840.0,2624.0,49464.0,4,Long
2024-10-15,46840.0,1004.0,47844.0,4,Long
2024-10-16,46840.0,2076.0,48916.0,4,Long
2024-10-17,46840.0,2864.0,49704.0,4,Long
2024-10-18,46840.0,3080.0,49920.0,4,Long
2024-10-20,46840.0,3128.0,49968.0,4,Long
2024-10-21,46840.0,1396.0,48236.0,4,Long
2024-10-22,46840.0,1084.0,47924.0,4,Long
2024-10-23,46840.0,-364.0,46476.0,4,Long
2024-10-24,46840.0,-720.0,46120.0,4,Long
2024-10-25,46132.0,0.0,46132.0,0,
2024-10-27,46132.0,0.0,46132.0,0,
2024-10-28,46132.0,0.0,46132.0,0,
2024-10-29,46132.0,0.0,46132.0,0,
2024-10-30,46132.0,0.0,46132.0,0,
2024-10-31,46132.0,0.0,46132.0,0,
2024-11-01,46132.0,0.0,46132.0,0,
2024-11-03,46132.0,0.0,46132.0,0,
2024-11-04,46132.0,0.0,46132.0,0,
2024-11-05,46132.0,0.0,46132.0,0,
2024-11-06,46132.0,0.0,46132.0,0,
2024-11-07,46132.0,-112.0,46020.0,1,Long
2024-11-08,46020.0,0.0,46020.0,0,
2024-11-10,46020.0,22.0,46042.0,1,Long
2024-11-11,46020.0,238.0,46258.0,1,Long
2024-11-12,46020.0,-136.0,45884.0,1,Long
2024-11-13,46020.0,-71.0,45949.0,1,Long
2024-11-14,46020.0,-356.0,45664.0,1,Long
2024-11-15,45665.0,0.0,45665.0,0,
2024-11-17,45665.0,0.0,45665.0,0,
2024-11-18,45665.0,0.0,45665.0,0,
2024-11-19,45665.0,0.0,45665.0,0,
2024-11-20,45665.0,0.0,45665.0,0,
2024-11-21,45665.0,0.0,45665.0,0,
2024-11-22,45665.0,0.0,45665.0,0,
2024-11-24,45665.0,150.0,45815.0,1,Long
2024-11-25,45665.0,338.0,46003.0,1,Long
2024-11-26,45665.0,480.0,46145.0,1,Long
2024-11-27,45665.0,387.0,46052.0,1,Long
2024-11-28,45665.0,469.0,46134.0,1,Long
2024-11-29,45665.0,559.0,46224.0,1,Long
2024-12-01,45665.0,479.0,46144.0,1,Long
2024-12-02,45665.0,401.0,46066.0,1,Long
2024-12-03,45665.0,446.0,46111.0,1,Long
2024-12-04,45665.0,591.0,46256.0,1,Long
2024-12-05,45665.0,329.0,45994.0,1,Long
2024-12-06,45665.0,177.0,45842.0,2,Long
2024-12-08,45665.0,135.0,45800.0,2,Long
2024-12-09,45665.0,-285.0,45380.0,2,Long
2024-12-10,45665.0,-561.0,45104.0,2,Long
2024-12-11,45665.0,-941.0,44724.0,2,Long
2024-12-12,45665.0,-1239.0,44426.0,2,Long
2024-12-13,44428.0,0.0,44428.0,0,
2024-12-15,44428.0,0.0,44428.0,0,
2024-12-16,44428.0,0.0,44428.0,0,
2024-12-17,44428.0,0.0,44428.0,0,
2024-12-18,44428.0,0.0,44428.0,0,
2024-12-19,44428.0,0.0,44428.0,0,
2024-12-20,44428.0,0.0,44428.0,0,
2024-12-22,44428.0,0.0,44428.0,0,
2024-12-23,44428.0,0.0,44428.0,0,
2024-12-24,44428.0,0.0,44428.0,0,
2024-12-25,44428.0,0.0,44428.0,0,
2024-12-26,44428.0,0.0,44428.0,0,
2024-12-27,44428.0,0.0,44428.0,0,
2024-12-29,44428.0,0.0,44428.0,0,
2024-12-30,44428.0,0.0,44428.0,0,
2024-12-31,44428.0,0.0,44428.0,0,
2025-01-01,44428.0,0.0,44428.0,0,
2025-01-02,44428.0,0.0,44428.0,0,
2025-01-03,44428.0,0.0,44428.0,0,
2025-01-05,44428.0,0.0,44428.0,0,
2025-01-06,44428.0,0.0,44428.0,0,
2025-01-07,44428.0,0.0,44428.0,0,
2025-01-08,44428.0,0.0,44428.0,0,
2025-01-09,44428.0,0.0,44428.0,0,
2025-01-10,44428.0,0.0,44428.0,0,
2025-01-12,44428.0,0.0,44428.0,0,
2025-01-13,44428.0,0.0,44428.0,0,
2025-01-14,44428.0,0.0,44428.0,0,
2025-01-15,44428.0,0.0,44428.0,0,
2025-01-16,44428.0,-71.0,44357.0,1,Long
2025-01-17,44362.0,0.0,44362.0,0,
2025-01-19,44362.0,26.0,44388.0,1,Long
2025-01-20,44362.0,135.0,44497.0,1,Long
2025-01-21,44362.0,582.0,44944.0,1,Long
2025-01-22,44362.0,659.0,45021.0,1,Long
2025-01-23,44362.0,1041.0,45403.0,1,Long
2025-01-24,44362.0,906.0,45268.0,1,Long
2025-01-26,44362.0,747.0,45109.0,1,Long
2025-01-27,44362.0,1147.0,45509.0,1,Long
2025-01-28,44362.0,1341.0,45703.0,1,Long
2025-01-29,44362.0,1298.0,45660.0,1,Long
2025-01-30,44362.0,1412.0,45774.0,1,Long
2025-01-31,44362.0,961.0,45323.0,2,Long
2025-02-02,44362.0,-399.0,43963.0,2,Long
2025-02-03,44362.0,745.0,45107.0,2,Long
2025-02-04,44362.0,751.0,45113.0,2,Long
2025-02-05,44362.0,1739.0,46101.0,2,Long
2025-02-06,44362.0,1223.0,45585.0,2,Long
2025-02-07,44362.0,399.0,44761.0,2,Long
2025-02-09,44362.0,541.0,44903.0,2,Long
2025-02-10,44362.0,585.0,44947.0,2,Long
2025-02-11,44362.0,929.0,45291.0,2,Long
2025-02-12,44362.0,649.0,45011.0,2,Long
2025-02-13,44362.0,1291.0,45653.0,2,Long
2025-02-14,44362.0,909.0,45271.0,4,Long
2025-02-16,44362.0,1065.0,45427.0,4,Long
2025-02-17,44362.0,1085.0,45447.0,4,Long
2025-02-18,44362.0,1097.0,45459.0,4,Long
2025-02-19,44362.0,813.0,45175.0,4,Long
2025-02-20,44362.0,-595.0,43767.0,4,Long
2025-02-21,43775.0,0.0,43775.0,0,
2025-02-23,43775.0,0.0,43775.0,0,
2025-02-24,43775.0,0.0,43775.0,0,
2025-02-25,43775.0,0.0,43775.0,0,
2025-02-26,43775.0,0.0,43775.0,0,
2025-02-27,43775.0,0.0,43775.0,0,
2025-02-28,43775.0,0.0,43775.0,0,
2025-03-02,43775.0,0.0,43775.0,0,
2025-03-03,43775.0,0.0,43775.0,0,
2025-03-04,43775.0,0.0,43775.0,0,
2025-03-05,43775.0,0.0,43775.0,0,
2025-03-06,43775.0,0.0,43775.0,0,
2025-03-07,43775.0,0.0,43775.0,0,
2025-03-09,43775.0,0.0,43775.0,0,
2025-03-10,43775.0,0.0,43775.0,0,
2025-03-11,43775.0,0.0,43775.0,0,
2025-03-12,43775.0,0.0,43775.0,0,
2025-03-13,43775.0,0.0,43775.0,0,
2025-03-14,43775.0,0.0,43775.0,0,
2025-03-16,43775.0,0.0,43775.0,0,
2025-03-17,43775.0,0.0,43775.0,0,
2025-03-18,43775.0,0.0,43775.0,0,
2025-03-19,43775.0,0.0,43775.0,0,
2025-03-20,43775.0,0.0,43775.0,0,
2025-03-21,43775.0,0.0,43775.0,0,
2025-03-23,43775.0,0.0,43775.0,0,
2025-03-24,43775.0,0.0,43775.0,0,
2025-03-25,43775.0,0.0,43775.0,0,
2025-03-26,43775.0,0.0,43775.0,0,
2025-03-27,43775.0,0.0,43775.0,0,
2025-03-28,43775.0,0.0,43775.0,0,
2025-03-30,43775.0,0.0,43775.0,0,
2025-03-31,43775.0,0.0,43775.0,0,
2025-04-01,43775.0,0.0,43775.0,0,
2025-04-02,43775.0,0.0,43775.0,0,
2025-04-03,43775.0,0.0,43775.0,0,
2025-04-04,43775.0,0.0,43775.0,0,
2025-04-06,43775.0,0.0,43775.0,0,
2025-04-07,43775.0,0.0,43775.0,0,
2025-04-08,43775.0,0.0,43775.0,0,
2025-04-09,43775.0,0.0,43775.0,0,
2025-04-10,43775.0,-1046.0,42729.0,1,Long
2025-04-11,42732.0,0.0,42732.0,0,
2025-04-13,42732.0,0.0,42732.0,0,
2025-04-14,42732.0,0.0,42732.0,0,
2025-04-15,42732.0,0.0,42732.0,0,
2025-04-16,42732.0,0.0,42732.0,0,
2025-04-17,42732.0,0.0,42732.0,0,
2025-04-20,42732.0,0.0,42732.0,0,
2025-04-21,42732.0,0.0,42732.0,0,
2025-04-22,42732.0,0.0,42732.0,0,
2025-04-23,42732.0,0.0,42732.0,0,
2025-04-24,42732.0,0.0,42732.0,0,
2025-04-25,42732.0,0.0,42732.0,0,
2025-04-27,42732.0,0.0,42732.0,0,
2025-04-28,42732.0,0.0,42732.0,0,
2025-04-29,42732.0,0.0,42732.0,0,
2025-04-30,42732.0,0.0,42732.0,0,
2025-05-01,42732.0,196.0,42928.0,1,Long
2025-05-02,42732.0,430.0,43162.0,1,Long
2025-05-04,42732.0,149.0,42881.0,1,Long
2025-05-05,42732.0,287.0,43019.0,1,Long
2025-05-06,42732.0,134.0,42866.0,1,Long
2025-05-07,42732.0,434.0,43166.0,1,Long
2025-05-08,42732.0,469.0,43201.0,1,Long
2025-05-09,42732.0,405.0,43137.0,2,Long
2025-05-11,42732.0,1235.0,43967.0,2,Long
2025-05-12,42732.0,2423.0,45155.0,2,Long
2025-05-13,42732.0,2135.0,44867.0,2,Long
2025-05-14,42732.0,1573.0,44305.0,2,Long
2025-05-15,42732.0,2447.0,45179.0,2,Long
2025-05-16,42732.0,2747.0,45479.0,2,Long
2025-05-18,42732.0,2473.0,45205.0,2,Long
2025-05-19,42732.0,3323.0,46055.0,2,Long
2025-05-20,42732.0,2973.0,45705.0,2,Long
2025-05-21,42732.0,1553.0,44285.0,2,Long
2025-05-22,42732.0,1579.0,44311.0,2,Long
2025-05-23,42732.0,899.0,43631.0,4,Long
2025-05-25,42732.0,2383.0,45115.0,4,Long
2025-05-26,42732.0,2207.0,44939.0,4,Long
2025-05-27,42732.0,3759.0,46491.0,4,Long
2025-05-28,42732.0,5015.0,47747.0,4,Long
2025-05-29,42732.0,3087.0,45819.0,4,Long
2025-05-30,42732.0,3315.0,46047.0,4,Long
2025-06-01,42732.0,2771.0,45503.0,4,Long
2025-06-02,42732.0,3103.0,45835.0,4,Long
2025-06-03,42732.0,4487.0,47219.0,4,Long
2025-06-04,42732.0,4127.0,46859.0,4,Long
2025-06-05,42732.0,4167.0,46899.0,4,Long
2025-06-06,42732.0,5573.0,48305.0,6,Long
2025-06-08,42732.0,5045.0,47777.0,6,Long
2025-06-09,42732.0,6107.0,48839.0,6,Long
2025-06-10,42732.0,5465.0,48197.0,6,Long
2025-06-11,42732.0,5123.0,47855.0,6,Long
2025-06-12,42732.0,3059.0,45791.0,6,Long
2025-06-13,42732.0,1643.0,44375.0,6,Long
2025-06-15,42732.0,3863.0,46595.0,6,Long
2025-06-16,42732.0,4955.0,47687.0,6,Long
2025-06-17,42732.0,3929.0,46661.0,6,Long
2025-06-18,42732.0,3341.0,46073.0,6,Long
2025-06-19,42732.0,2963.0,45695.0,6,Long
2025-06-20,42732.0,4185.0,46917.0,8,Long
2025-06-22,42732.0,2689.0,45421.0,8,Long
2025-06-23,42732.0,8601.0,51333.0,8,Long
2025-06-24,42732.0,10977.0,53709.0,8,Long
2025-06-25,42732.0,10337.0,53069.0,8,Long
2025-06-26,42732.0,13985.0,56717.0,8,Long
2025-06-27,42732.0,17585.0,60317.0,8,Long
2025-06-29,42732.0,18577.0,61309.0,8,Long
2025-06-30,42732.0,18433.0,61165.0,8,Long
2025-07-01,42732.0,22561.0,65293.0,8,Long
2025-07-02,42732.0,22041.0,64773.0,8,Long
2025-07-03,42732.0,23513.0,66245.0,8,Long
2025-07-04,42732.0,22337.0,65069.0,9,Long
2025-07-06,42732.0,23543.0,66275.0,9,Long
2025-07-07,42732.0,20438.0,63170.0,9,Long
2025-07-08,42732.0,18953.0,61685.0,9,Long
2025-07-09,42732.0,20276.0,63008.0,9,Long
2025-07-10,42732.0,21707.0,64439.0,9,Long
2025-07-11,42732.0,19799.0,62531.0,9,Long
2025-07-13,42732.0,18413.0,61145.0,9,Long
2025-07-14,42732.0,20690.0,63422.0,9,Long
2025-07-15,42732.0,16298.0,59030.0,9,Long
2025-07-16,42732.0,18242.0,60974.0,9,Long
2025-07-17,42732.0,21941.0,64673.0,9,Long
2025-07-18,42732.0,19593.0,62325.0,10,Long
2025-07-20,42732.0,19953.0,62685.0,10,Long
2025-07-21,42732.0,20143.0,62875.0,10,Long
2025-07-22,42732.0,22463.0,65195.0,10,Long
2025-07-23,42732.0,25063.0,67795.0,10,Long
2025-07-24,42732.0,24513.0,67245.0,10,Long
2025-07-25,42732.0,25083.0,67815.0,10,Long
2025-07-27,42732.0,26813.0,69545.0,10,Long
2025-07-28,42732.0,24743.0,67475.0,10,Long
2025-07-29,42732.0,22713.0,65445.0,10,Long
2025-07-30,42732.0,21773.0,64505.0,10,Long
2025-07-31,42732.0,16663.0,59395.0,10,Long
2025-08-01,59365.0,0.0,59365.0,0,
2025-08-03,59365.0,0.0,59365.0,0,
2025-08-04,59365.0,0.0,59365.0,0,
2025-08-05,59365.0,0.0,59365.0,0,
2025-08-06,59365.0,0.0,59365.0,0,
2025-08-07,59365.0,0.0,59365.0,0,
2025-08-08,59365.0,0.0,59365.0,0,
2025-08-10,59365.0,0.0,59365.0,0,
2025-08-11,59365.0,0.0,59365.0,0,
2025-08-12,59365.0,0.0,59365.0,0,
2025-08-13,59365.0,0.0,59365.0,0,
2025-08-14,59365.0,0.0,59365.0,0,
2025-08-15,59365.0,-275.0,59090.0,1,Long
2025-08-17,59096.0,0.0,59096.0,0,
2025-08-18,59096.0,0.0,59096.0,0,
2025-08-19,59096.0,0.0,59096.0,0,
2025-08-20,59096.0,0.0,59096.0,0,
2025-08-21,59096.0,0.0,59096.0,0,
2025-08-22,59096.0,0.0,59096.0,0,
2025-08-24,59096.0,-61.0,59035.0,1,Long
2025-08-25,59096.0,-432.0,58664.0,1,Long
2025-08-26,59096.0,-194.0,58902.0,1,Long
2025-08-27,59096.0,0.0,59096.0,1,Long
2025-08-28,59096.0,-86.0,59010.0,1,Long
2025-08-29,59096.0,-94.0,59002.0,1,Long
2025-08-31,59096.0,-125.0,58971.0,1,Long
2025-09-01,59096.0,-134.0,58962.0,1,Long
2025-09-02,59096.0,-515.0,58581.0,1,Long
2025-09-03,58579.0,0.0,58579.0,0,
2025-09-04,58579.0,0.0,58579.0,0,
2025-09-05,58579.0,-236.0,58343.0,1,Long
2025-09-07,58579.0,-195.0,58384.0,1,Long
2025-09-08,58579.0,-77.0,58502.0,1,Long
2025-09-09,58579.0,10.0,58589.0,1,Long
2025-09-10,58579.0,-129.0,58450.0,1,Long
2025-09-11,58579.0,449.0,59028.0,1,Long
2025-09-12,58579.0,155.0,58734.0,1,Long
2025-09-14,58579.0,514.0,59093.0,1,Long
2025-09-15,58579.0,585.0,59164.0,1,Long
2025-09-16,58579.0,388.0,58967.0,1,Long
2025-09-17,58579.0,801.0,59380.0,1,Long
2025-09-18,58579.0,862.0,59441.0,1,Long
2025-09-19,58579.0,830.0,59409.0,2,Long
2025-09-21,58579.0,814.0,59393.0,2,Long
2025-09-22,58579.0,1058.0,59637.0,2,Long
2025-09-23,58579.0,978.0,59557.0,2,Long
2025-09-24,58579.0,676.0,59255.0,2,Long
2025-09-25,58579.0,162.0,58741.0,2,Long
2025-09-26,58579.0,728.0,59307.0,2,Long
2025-09-28,58579.0,956.0,59535.0,2,Long
2025-09-29,58579.0,818.0,59397.0,2,Long
2025-09-30,58579.0,608.0,59187.0,2,Long
2025-10-01,58579.0,1036.0,59615.0,2,Long
2025-10-02,58579.0,1384.0,59963.0,2,Long
2025-10-03,58579.0,1596.0,60175.0,4,Long
2025-10-05,58579.0,1948.0,60527.0,4,Long
2025-10-06,58579.0,896.0,59475.0,4,Long
2025-10-07,58579.0,1060.0,59639.0,4,Long
2025-10-08,58579.0,692.0,59271.0,4,Long
2025-10-09,58579.0,8.0,58587.0,4,Long
2025-10-10,58591.0,0.0,58591.0,0,
2025-10-12,58591.0,0.0,58591.0,0,
2025-10-13,58591.0,0.0,58591.0,0,
2025-10-14,58591.0,0.0,58591.0,0,
2025-10-15,58591.0,0.0,58591.0,0,
2025-10-16,58591.0,0.0,58591.0,0,
2025-10-17,58591.0,0.0,58591.0,0,
2025-10-19,58591.0,0.0,58591.0,0,
2025-10-20,58591.0,0.0,58591.0,0,
2025-10-21,58591.0,0.0,58591.0,0,
2025-10-22,58591.0,0.0,58591.0,0,
2025-10-23,58591.0,0.0,58591.0,0,
2025-10-24,58591.0,0.0,58591.0,0,
2025-10-26,58591.0,-11.0,58580.0,1,Long
2025-10-27,58581.0,0.0,58581.0,0,
2025-10-28,58581.0,130.0,58711.0,1,Long
2025-10-29,58581.0,166.0,58747.0,1,Long
2025-10-30,58581.0,-12.0,58569.0,1,Long
2025-10-31,58581.0,16.0,58597.0,1,Long
2025-11-02,58581.0,59.0,58640.0,1,Long
2025-11-03,58581.0,-409.0,58172.0,1,Long
2025-11-04,58175.0,0.0,58175.0,0,
2025-11-05,58175.0,0.0,58175.0,0,
2025-11-06,58175.0,0.0,58175.0,0,
2025-11-07,58175.0,0.0,58175.0,0,
2025-11-09,58175.0,0.0,58175.0,0,
2025-11-10,58175.0,0.0,58175.0,0,
2025-11-11,58175.0,0.0,58175.0,0,
2025-11-12,58175.0,409.0,58584.0,1,Long
2025-11-13,58175.0,-518.0,57657.0,1,Long
2025-11-14,57660.0,0.0,57660.0,0,
2025-11-16,57660.0,0.0,57660.0,0,
2025-11-17,57660.0,0.0,57660.0,0,
2025-11-18,57660.0,0.0,57660.0,0,
2025-11-19,57660.0,0.0,57660.0,0,
2025-11-20,57660.0,0.0,57660.0,0,
2025-11-21,57660.0,0.0,57660.0,0,
2025-11-23,57660.0,0.0,57660.0,0,
2025-11-24,57660.0,0.0,57660.0,0,
2025-11-25,57660.0,0.0,57660.0,0,
2025-11-26,57660.0,0.0,57660.0,0,
2025-11-27,57660.0,0.0,57660.0,0,
2025-11-28,57660.0,0.0,57660.0,0,
2025-11-30,57660.0,0.0,57660.0,0,
2025-12-01,57660.0,0.0,57660.0,0,
2025-12-02,57660.0,0.0,57660.0,0,
2025-12-03,57660.0,0.0,57660.0,0,
2025-12-04,57660.0,-79.0,57581.0,1,Long
2025-12-05,57582.0,0.0,57582.0,0,
2025-12-07,57582.0,0.0,57582.0,0,
2025-12-08,57582.0,0.0,57582.0,0,
2025-12-09,57582.0,0.0,57582.0,0,
2025-12-10,57582.0,0.0,57582.0,0,
2025-12-11,57582.0,0.0,57582.0,0,
2025-12-12,57582.0,-328.0,57254.0,1,Long
2025-12-14,57582.0,178.0,57760.0,1,Long
2025-12-15,57582.0,-121.0,57461.0,1,Long
2025-12-16,57582.0,-428.0,57154.0,1,Long
2025-12-17,57582.0,-632.0,56950.0,1,Long
2025-12-18,57582.0,-613.0,56969.0,1,Long
2025-12-19,57582.0,-356.0,57226.0,1,Long
2025-12-21,57582.0,-346.0,57236.0,1,Long
2025-12-22,57582.0,-203.0,57379.0,1,Long
2025-12-23,57582.0,-123.0,57459.0,1,Long
2025-12-24,57582.0,174.0,57756.0,1,Long
2025-12-25,57582.0,189.0,57771.0,1,Long
2025-12-26,57582.0,181.0,57763.0,2,Long
2025-12-28,57582.0,161.0,57743.0,2,Long
2025-12-29,57582.0,-319.0,57263.0,2,Long
2025-12-30,57582.0,-573.0,57009.0,2,Long
2025-12-31,57582.0,-1143.0,56439.0,2,Long
2026-01-01,57582.0,-929.0,56653.0,2,Long
2026-01-02,57582.0,-633.0,56949.0,2,Long
2026-01-04,57582.0,-567.0,57015.0,2,Long
2026-01-05,57582.0,661.0,58243.0,2,Long
2026-01-06,57582.0,1763.0,59345.0,2,Long
2026-01-07,57582.0,481.0,58063.0,2,Long
2026-01-08,57582.0,1169.0,58751.0,2,Long
2026-01-09,57582.0,1633.0,59215.0,4,Long
2026-01-11,57582.0,613.0,58195.0,4,Long
2026-01-12,57582.0,1897.0,59479.0,4,Long
2026-01-13,57582.0,-195.0,57387.0,4,Long
2026-01-14,57582.0,-91.0,57491.0,4,Long
2026-01-15,57582.0,1685.0,59267.0,4,Long
2026-01-16,57582.0,921.0,58503.0,4,Long
2026-01-18,57582.0,-595.0,56987.0,4,Long
2026-01-19,57582.0,-979.0,56603.0,4,Long
2026-01-20,57582.0,-2243.0,55339.0,4,Long
2026-01-21,57582.0,125.0,57707.0,4,Long
2026-01-22,57582.0,1085.0,58667.0,4,Long
2026-01-23,57582.0,-777.0,56805.0,6,Long
2026-01-25,57582.0,-1041.0,56541.0,6,Long
2026-01-26,57582.0,1251.0,58833.0,6,Long
2026-01-27,57582.0,-981.0,56601.0,6,Long
2026-01-28,57582.0,-1107.0,56475.0,6,Long
2026-01-29,57582.0,-1983.0,55599.0,6,Long
2026-01-30,57582.0,-1965.0,55617.0,6,Long
2026-02-01,57582.0,-3957.0,53625.0,6,Long
2026-02-02,57582.0,1551.0,59133.0,6,Long
2026-02-03,57582.0,561.0,58143.0,6,Long
2026-02-04,57582.0,1341.0,58923.0,6,Long
2026-02-05,57582.0,-2607.0,54975.0,6,Long
2026-02-06,57582.0,5373.0,62955.0,8,Long
2026-02-08,57582.0,6013.0,63595.0,8,Long
2026-02-09,57582.0,5653.0,63235.0,8,Long
2026-02-10,57582.0,6901.0,64483.0,8,Long
2026-02-11,57582.0,6565.0,64147.0,8,Long
2026-02-12,57582.0,-259.0,57323.0,8,Long
2026-02-13,57582.0,-43.0,57539.0,8,Long
2026-02-15,57582.0,885.0,58467.0,8,Long
2026-02-16,57582.0,-827.0,56755.0,8,Long
2026-02-17,57582.0,949.0,58531.0,8,Long
2026-02-18,57582.0,1349.0,58931.0,8,Long
2026-02-19,57582.0,-91.0,57491.0,8,Long
2026-02-20,57582.0,1240.0,58822.0,9,Long
2026-02-22,57582.0,-1667.0,55915.0,9,Long
2026-02-23,57582.0,-5465.0,52117.0,9,Long
2026-02-24,57582.0,-2792.0,54790.0,9,Long
2026-02-25,57582.0,-875.0,56707.0,9,Long
2026-02-26,57582.0,-2243.0,55339.0,9,Long
2026-02-27,57582.0,-5717.0,51865.0,9,Long
2026-03-01,48346.0,0.0,48346.0,0,
2026-03-02,48346.0,0.0,48346.0,0,
2026-03-03,48346.0,0.0,48346.0,0,
2026-03-04,48346.0,0.0,48346.0,0,
2026-03-05,48346.0,0.0,48346.0,0,
2026-03-06,48346.0,0.0,48346.0,0,
2026-03-08,48346.0,0.0,48346.0,0,
