date,realized_points,open_unrealized_points,total_equity_points,open_units,direction
2019-05-05,0.0,0.0,0.0,0,
2019-05-06,0.0,0.0,0.0,0,
2019-05-07,0.0,0.0,0.0,0,
2019-05-08,0.0,0.0,0.0,0,
2019-05-09,0.0,0.0,0.0,0,
2019-05-10,0.0,0.0,0.0,0,
2019-05-12,0.0,0.0,0.0,0,
2019-05-13,0.0,0.0,0.0,0,
2019-05-14,0.0,0.0,0.0,0,
2019-05-15,0.0,0.0,0.0,0,
2019-05-16,0.0,0.0,0.0,0,
2019-05-17,0.0,0.0,0.0,0,
2019-05-19,0.0,0.0,0.0,0,
2019-05-20,0.0,0.0,0.0,0,
2019-05-21,0.0,0.0,0.0,0,
2019-05-22,0.0,0.0,0.0,0,
2019-05-23,0.0,0.0,0.0,0,
2019-05-24,0.0,0.0,0.0,0,
2019-05-26,0.0,0.0,0.0,0,
2019-05-27,0.0,0.0,0.0,0,
2019-05-28,0.0,0.0,0.0,0,
2019-05-29,0.0,0.0,0.0,0,
2019-05-30,0.0,0.0,0.0,0,
2019-05-31,0.0,0.0,0.0,0,
2019-06-02,0.0,0.0,0.0,0,
2019-06-03,0.0,0.0,0.0,0,
2019-06-04,0.0,0.0,0.0,0,
2019-06-05,0.0,164.0,164.0,1,Long
2019-06-06,0.0,377.0,377.0,1,Long
2019-06-07,0.0,632.0,632.0,1,Long
2019-06-09,0.0,669.0,669.0,1,Long
2019-06-10,0.0,730.0,730.0,1,Long
2019-06-11,0.0,651.0,651.0,1,Long
2019-06-12,0.0,569.0,569.0,1,Long
2019-06-13,0.0,753.0,753.0,1,Long
2019-06-14,0.0,725.0,725.0,2,Long
2019-06-16,0.0,851.0,851.0,2,Long
2019-06-17,0.0,725.0,725.0,2,Long
2019-06-18,0.0,1497.0,1497.0,2,Long
2019-06-19,0.0,1693.0,1693.0,2,Long
2019-06-20,0.0,1889.0,1889.0,2,Long
2019-06-21,0.0,1817.0,1817.0,2,Long
2019-06-23,0.0,1997.0,1997.0,2,Long
2019-06-24,0.0,1875.0,1875.0,2,Long
2019-06-25,0.0,1583.0,1583.0,2,Long
2019-06-26,0.0,1677.0,1677.0,2,Long
2019-06-27,0.0,1623.0,1623.0,2,Long
2019-06-28,0.0,1941.0,1941.0,4,Long
2019-06-30,0.0,2561.0,2561.0,4,Long
2019-07-01,0.0,2241.0,2241.0,4,Long
2019-07-02,0.0,2393.0,2393.0,4,Long
2019-07-03,0.0,3157.0,3157.0,4,Long
2019-07-04,0.0,3297.0,3297.0,4,Long
2019-07-05,0.0,2941.0,2941.0,4,Long
2019-07-07,0.0,2653.0,2653.0,4,Long
2019-07-08,0.0,2093.0,2093.0,4,Long
2019-07-09,0.0,2421.0,2421.0,4,Long
2019-07-10,0.0,3001.0,3001.0,4,Long
2019-07-11,0.0,3985.0,3985.0,4,Long
2019-07-12,0.0,4609.0,4609.0,6,Long
2019-07-14,0.0,4759.0,4759.0,6,Long
2019-07-15,0.0,4861.0,4861.0,6,Long
2019-07-16,0.0,4753.0,4753.0,6,Long
2019-07-17,0.0,3643.0,3643.0,6,Long
2019-07-18,0.0,4591.0,4591.0,6,Long
2019-07-19,0.0,3205.0,3205.0,6,Long
2019-07-21,0.0,3535.0,3535.0,6,Long
2019-07-22,0.0,3991.0,3991.0,6,Long
2019-07-23,0.0,4753.0,4753.0,6,Long
2019-07-24,0.0,4417.0,4417.0,6,Long
2019-07-25,0.0,3613.0,3613.0,6,Long
2019-07-26,0.0,3513.0,3513.0,8,Long
2019-07-28,0.0,3369.0,3369.0,8,Long
2019-07-29,0.0,4225.0,4225.0,8,Long
2019-07-30,0.0,4281.0,4281.0,8,Long
2019-07-31,0.0,1417.0,1417.0,8,Long
2019-08-01,1401.0,0.0,1401.0,0,
2019-08-02,1401.0,0.0,1401.0,0,
2019-08-04,1401.0,0.0,1401.0,0,
2019-08-05,1401.0,0.0,1401.0,0,
2019-08-06,1401.0,0.0,1401.0,0,
2019-08-07,1401.0,0.0,1401.0,0,
2019-08-08,1401.0,0.0,1401.0,0,
2019-08-09,1401.0,0.0,1401.0,0,
2019-08-11,1401.0,0.0,1401.0,0,
2019-08-12,1401.0,0.0,1401.0,0,
2019-08-13,1401.0,0.0,1401.0,0,
2019-08-14,1401.0,0.0,1401.0,0,
2019-08-15,1401.0,0.0,1401.0,0,
2019-08-16,1401.0,0.0,1401.0,0,
2019-08-18,1401.0,0.0,1401.0,0,
2019-08-19,1401.0,0.0,1401.0,0,
2019-08-20,1401.0,0.0,1401.0,0,
2019-08-21,1401.0,0.0,1401.0,0,
2019-08-22,1401.0,0.0,1401.0,0,
2019-08-23,1401.0,0.0,1401.0,0,
2019-08-25,1401.0,0.0,1401.0,0,
2019-08-26,1401.0,0.0,1401.0,0,
2019-08-27,1401.0,0.0,1401.0,0,
2019-08-28,1401.0,0.0,1401.0,0,
2019-08-29,1401.0,0.0,1401.0,0,
2019-08-30,1401.0,0.0,1401.0,0,
2019-09-01,1401.0,0.0,1401.0,0,
2019-09-02,1401.0,0.0,1401.0,0,
2019-09-03,1401.0,0.0,1401.0,0,
2019-09-04,1401.0,462.0,1863.0,1,Long
2019-09-05,1401.0,588.0,1989.0,1,Long
2019-09-06,1401.0,656.0,2057.0,1,Long
2019-09-08,1401.0,665.0,2066.0,1,Long
2019-09-09,1401.0,643.0,2044.0,1,Long
2019-09-10,1401.0,717.0,2118.0,1,Long
2019-09-11,1401.0,1100.0,2501.0,1,Long
2019-09-12,1401.0,1048.0,2449.0,1,Long
2019-09-13,1401.0,1024.0,2425.0,2,Long
2019-09-15,1401.0,754.0,2155.0,2,Long
2019-09-16,1401.0,706.0,2107.0,2,Long
2019-09-17,1401.0,724.0,2125.0,2,Long
2019-09-18,1401.0,718.0,2119.0,2,Long
2019-09-19,1401.0,772.0,2173.0,2,Long
2019-09-20,1401.0,356.0,1757.0,2,Long
2019-09-22,1401.0,558.0,1959.0,2,Long
2019-09-23,1401.0,634.0,2035.0,2,Long
2019-09-24,1401.0,334.0,1735.0,2,Long
2019-09-25,1401.0,452.0,1853.0,2,Long
2019-09-26,1401.0,268.0,1669.0,2,Long
2019-09-27,1401.0,398.0,1799.0,4,Long
2019-09-29,1401.0,646.0,2047.0,4,Long
2019-09-30,1401.0,1018.0,2419.0,4,Long
2019-10-01,1401.0,-626.0,775.0,4,Long
2019-10-02,775.0,0.0,775.0,0,
2019-10-03,775.0,0.0,775.0,0,
2019-10-04,775.0,0.0,775.0,0,
2019-10-06,775.0,0.0,775.0,0,
2019-10-07,775.0,0.0,775.0,0,
2019-10-08,775.0,0.0,775.0,0,
2019-10-09,775.0,0.0,775.0,0,
2019-10-10,775.0,0.0,775.0,0,
2019-10-11,775.0,0.0,775.0,0,
2019-10-13,775.0,0.0,775.0,0,
2019-10-14,775.0,0.0,775.0,0,
2019-10-15,775.0,127.0,902.0,1,Long
2019-10-16,775.0,125.0,900.0,1,Long
2019-10-17,775.0,169.0,944.0,1,Long
2019-10-18,775.0,-33.0,742.0,1,Long
2019-10-20,705.0,0.0,705.0,0,
2019-10-21,705.0,29.0,734.0,1,Long
2019-10-22,705.0,-116.0,589.0,1,Long
2019-10-23,593.0,0.0,593.0,0,
2019-10-24,593.0,-38.0,555.0,1,Long
2019-10-25,557.0,0.0,557.0,0,
2019-10-27,557.0,26.0,583.0,1,Long
2019-10-28,557.0,118.0,675.0,1,Long
2019-10-29,557.0,90.0,647.0,1,Long
2019-10-30,557.0,224.0,781.0,1,Long
2019-10-31,557.0,107.0,664.0,1,Long
2019-11-01,557.0,336.0,893.0,1,Long
2019-11-03,557.0,392.0,949.0,1,Long
2019-11-04,557.0,504.0,1061.0,1,Long
2019-11-05,557.0,480.0,1037.0,1,Long
2019-11-06,557.0,482.0,1039.0,1,Long
2019-11-07,557.0,685.0,1242.0,1,Long
2019-11-08,557.0,740.0,1297.0,2,Long
2019-11-10,557.0,558.0,1115.0,2,Long
2019-11-11,557.0,722.0,1279.0,2,Long
2019-11-12,557.0,626.0,1183.0,2,Long
2019-11-13,557.0,934.0,1491.0,2,Long
2019-11-14,557.0,1132.0,1689.0,2,Long
2019-11-15,557.0,1372.0,1929.0,2,Long
2019-11-17,557.0,1346.0,1903.0,2,Long
2019-11-18,557.0,1516.0,2073.0,2,Long
2019-11-19,557.0,1166.0,1723.0,2,Long
2019-11-20,557.0,918.0,1475.0,2,Long
2019-11-21,557.0,1018.0,1575.0,2,Long
2019-11-22,557.0,1256.0,1813.0,4,Long
2019-11-24,557.0,1532.0,2089.0,4,Long
2019-11-25,557.0,2064.0,2621.0,4,Long
2019-11-26,557.0,2348.0,2905.0,4,Long
2019-11-27,557.0,2096.0,2653.0,4,Long
2019-11-28,557.0,2076.0,2633.0,4,Long
2019-11-29,557.0,2084.0,2641.0,4,Long
2019-12-01,557.0,2444.0,3001.0,4,Long
2019-12-02,557.0,1144.0,1701.0,4,Long
2019-12-03,1697.0,0.0,1697.0,0,
2019-12-04,1697.0,0.0,1697.0,0,
2019-12-05,1697.0,0.0,1697.0,0,
2019-12-06,1697.0,0.0,1697.0,0,
2019-12-08,1697.0,0.0,1697.0,0,
2019-12-09,1697.0,0.0,1697.0,0,
2019-12-10,1697.0,0.0,1697.0,0,
2019-12-11,1697.0,0.0,1697.0,0,
2019-12-12,1697.0,304.0,2001.0,1,Long
2019-12-13,1697.0,228.0,1925.0,1,Long
2019-12-15,1697.0,235.0,1932.0,1,Long
2019-12-16,1697.0,307.0,2004.0,1,Long
2019-12-17,1697.0,335.0,2032.0,1,Long
2019-12-18,1697.0,316.0,2013.0,1,Long
2019-12-19,1697.0,452.0,2149.0,1,Long
2019-12-20,1697.0,514.0,2211.0,2,Long
2019-12-22,1697.0,564.0,2261.0,2,Long
2019-12-23,1697.0,692.0,2389.0,2,Long
2019-12-24,1697.0,588.0,2285.0,2,Long
2019-12-25,1697.0,654.0,2351.0,2,Long
2019-12-26,1697.0,916.0,2613.0,2,Long
2019-12-27,1697.0,778.0,2475.0,2,Long
2019-12-29,1697.0,878.0,2575.0,2,Long
2019-12-30,1697.0,516.0,2213.0,2,Long
2019-12-31,1697.0,678.0,2375.0,2,Long
2020-01-01,1697.0,764.0,2461.0,2,Long
2020-01-02,1697.0,906.0,2603.0,2,Long
2020-01-03,1697.0,790.0,2487.0,4,Long
2020-01-05,1697.0,474.0,2171.0,4,Long
2020-01-06,1697.0,1230.0,2927.0,4,Long
2020-01-07,1697.0,-234.0,1463.0,4,Long
2020-01-08,1697.0,1558.0,3255.0,4,Long
2020-01-09,1697.0,2370.0,4067.0,4,Long
2020-01-10,1697.0,1446.0,3143.0,4,Long
2020-01-12,1697.0,1770.0,3467.0,4,Long
2020-01-13,1697.0,1858.0,3555.0,4,Long
2020-01-14,1697.0,1810.0,3507.0,4,Long
2020-01-15,1697.0,2626.0,4323.0,4,Long
2020-01-16,1697.0,3466.0,5163.0,4,Long
2020-01-17,1697.0,3432.0,5129.0,6,Long
2020-01-19,1697.0,3594.0,5291.0,6,Long
2020-01-20,1697.0,2880.0,4577.0,6,Long
2020-01-21,1697.0,3492.0,5189.0,6,Long
2020-01-22,1697.0,2382.0,4079.0,6,Long
2020-01-23,1697.0,2802.0,4499.0,6,Long
2020-01-24,1697.0,1236.0,2933.0,6,Long
2020-01-26,1697.0,-156.0,1541.0,6,Long
2020-01-27,1559.0,0.0,1559.0,0,
2020-01-28,1559.0,0.0,1559.0,0,
2020-01-29,1559.0,0.0,1559.0,0,
2020-01-30,1559.0,0.0,1559.0,0,
2020-01-31,1559.0,0.0,1559.0,0,
2020-02-02,1559.0,0.0,1559.0,0,
2020-02-03,1559.0,0.0,1559.0,0,
2020-02-04,1559.0,0.0,1559.0,0,
2020-02-05,1559.0,675.0,2234.0,1,Long
2020-02-06,1559.0,519.0,2078.0,1,Long
2020-02-07,1559.0,272.0,1831.0,1,Long
2020-02-09,1559.0,274.0,1833.0,1,Long
2020-02-10,1559.0,566.0,2125.0,1,Long
2020-02-11,1559.0,531.0,2090.0,1,Long
2020-02-12,1559.0,652.0,2211.0,1,Long
2020-02-13,1559.0,722.0,2281.0,1,Long
2020-02-14,1559.0,669.0,2228.0,2,Long
2020-02-16,1559.0,749.0,2308.0,2,Long
2020-02-17,1559.0,503.0,2062.0,2,Long
2020-02-18,1559.0,479.0,2038.0,2,Long
2020-02-19,1559.0,469.0,2028.0,2,Long
2020-02-20,1559.0,51.0,1610.0,2,Long
2020-02-21,1559.0,-157.0,1402.0,2,Long
2020-02-23,1559.0,-943.0,616.0,2,Long
2020-02-24,618.0,0.0,618.0,0,
2020-02-25,618.0,0.0,618.0,0,
2020-02-26,618.0,0.0,618.0,0,
2020-02-27,618.0,0.0,618.0,0,
2020-03-01,618.0,0.0,618.0,0,
2020-03-02,618.0,0.0,618.0,0,
2020-03-03,618.0,0.0,618.0,0,
2020-03-04,618.0,0.0,618.0,0,
2020-03-05,618.0,0.0,618.0,0,
2020-03-06,618.0,0.0,618.0,0,
2020-03-08,618.0,0.0,618.0,0,
2020-03-09,618.0,0.0,618.0,0,
2020-03-10,618.0,0.0,618.0,0,
2020-03-11,618.0,0.0,618.0,0,
2020-03-12,618.0,0.0,618.0,0,
2020-03-13,618.0,0.0,618.0,0,
2020-03-15,618.0,0.0,618.0,0,
2020-03-16,618.0,0.0,618.0,0,
2020-03-17,618.0,0.0,618.0,0,
2020-03-18,618.0,0.0,618.0,0,
2020-03-19,618.0,0.0,618.0,0,
2020-03-20,618.0,0.0,618.0,0,
2020-03-22,618.0,0.0,618.0,0,
2020-03-23,618.0,0.0,618.0,0,
2020-03-24,618.0,0.0,618.0,0,
2020-03-25,618.0,0.0,618.0,0,
2020-03-26,618.0,0.0,618.0,0,
2020-03-27,618.0,0.0,618.0,0,
2020-03-29,618.0,0.0,618.0,0,
2020-03-30,618.0,0.0,618.0,0,
2020-03-31,618.0,0.0,618.0,0,
2020-04-01,618.0,0.0,618.0,0,
2020-04-02,618.0,0.0,618.0,0,
2020-04-03,618.0,0.0,618.0,0,
2020-04-05,618.0,0.0,618.0,0,
2020-04-06,618.0,691.0,1309.0,1,Long
2020-04-07,618.0,857.0,1475.0,1,Long
2020-04-08,618.0,1625.0,2243.0,1,Long
2020-04-09,618.0,2035.0,2653.0,1,Long
2020-04-12,618.0,1649.0,2267.0,1,Long
2020-04-13,618.0,1975.0,2593.0,1,Long
2020-04-14,618.0,2111.0,2729.0,1,Long
2020-04-15,618.0,1620.0,2238.0,1,Long
2020-04-16,618.0,2594.0,3212.0,1,Long
2020-04-17,618.0,2502.0,3120.0,1,Long
2020-04-19,618.0,2499.0,3117.0,1,Long
2020-04-20,618.0,1627.0,2245.0,1,Long
2020-04-21,618.0,1319.0,1937.0,1,Long
2020-04-22,618.0,1615.0,2233.0,1,Long
2020-04-23,618.0,1601.0,2219.0,1,Long
2020-04-24,618.0,1944.0,2562.0,2,Long
2020-04-26,618.0,2246.0,2864.0,2,Long
2020-04-27,618.0,2512.0,3130.0,2,Long
2020-04-28,618.0,3170.0,3788.0,2,Long
2020-04-29,618.0,4074.0,4692.0,2,Long
2020-04-30,618.0,2520.0,3138.0,2,Long
2020-05-01,618.0,1842.0,2460.0,2,Long
2020-05-03,618.0,1624.0,2242.0,2,Long
2020-05-04,618.0,2150.0,2768.0,2,Long
2020-05-05,618.0,2216.0,2834.0,2,Long
2020-05-06,618.0,1936.0,2554.0,2,Long
2020-05-07,618.0,2922.0,3540.0,2,Long
2020-05-08,618.0,3402.0,4020.0,4,Long
2020-05-10,618.0,3970.0,4588.0,4,Long
2020-05-11,618.0,2018.0,2636.0,4,Long
2020-05-12,618.0,654.0,1272.0,4,Long
2020-05-13,618.0,-1094.0,-476.0,4,Long
2020-05-14,618.0,370.0,988.0,4,Long
2020-05-15,618.0,502.0,1120.0,4,Long
2020-05-17,618.0,1366.0,1984.0,4,Long
2020-05-18,618.0,4030.0,4648.0,4,Long
2020-05-19,618.0,3454.0,4072.0,4,Long
2020-05-20,618.0,3702.0,4320.0,4,Long
2020-05-21,618.0,3102.0,3720.0,4,Long
2020-05-22,618.0,4170.0,4788.0,6,Long
2020-05-24,618.0,4452.0,5070.0,6,Long
2020-05-25,618.0,6450.0,7068.0,6,Long
2020-05-26,618.0,8424.0,9042.0,6,Long
2020-05-27,618.0,11106.0,11724.0,6,Long
2020-05-28,618.0,9420.0,10038.0,6,Long
2020-05-29,618.0,10368.0,10986.0,6,Long
2020-05-31,618.0,9504.0,10122.0,6,Long
2020-06-01,618.0,9522.0,10140.0,6,Long
2020-06-02,618.0,12198.0,12816.0,6,Long
2020-06-03,618.0,14580.0,15198.0,6,Long
2020-06-04,618.0,15792.0,16410.0,6,Long
2020-06-05,618.0,19766.0,20384.0,8,Long
2020-06-07,618.0,20374.0,20992.0,8,Long
2020-06-08,618.0,23470.0,24088.0,8,Long
2020-06-09,618.0,22694.0,23312.0,8,Long
2020-06-10,618.0,16358.0,16976.0,8,Long
2020-06-11,16968.0,0.0,16968.0,0,
2020-06-12,16968.0,0.0,16968.0,0,
2020-06-14,16968.0,0.0,16968.0,0,
2020-06-15,16968.0,0.0,16968.0,0,
2020-06-16,16968.0,0.0,16968.0,0,
2020-06-17,16968.0,0.0,16968.0,0,
2020-06-18,16968.0,0.0,16968.0,0,
2020-06-19,16968.0,0.0,16968.0,0,
2020-06-21,16968.0,0.0,16968.0,0,
2020-06-22,16968.0,0.0,16968.0,0,
2020-06-23,16968.0,0.0,16968.0,0,
2020-06-24,16968.0,0.0,16968.0,0,
2020-06-25,16968.0,0.0,16968.0,0,
2020-06-26,16968.0,0.0,16968.0,0,
2020-06-28,16968.0,0.0,16968.0,0,
2020-06-29,16968.0,0.0,16968.0,0,
2020-06-30,16968.0,0.0,16968.0,0,
2020-07-01,16968.0,0.0,16968.0,0,
2020-07-02,16968.0,0.0,16968.0,0,
2020-07-03,16968.0,0.0,16968.0,0,
2020-07-05,16968.0,0.0,16968.0,0,
2020-07-06,16968.0,0.0,16968.0,0,
2020-07-07,16968.0,0.0,16968.0,0,
2020-07-08,16968.0,0.0,16968.0,0,
2020-07-09,16968.0,0.0,16968.0,0,
2020-07-10,16968.0,0.0,16968.0,0,
2020-07-12,16968.0,0.0,16968.0,0,
2020-07-13,16968.0,0.0,16968.0,0,
2020-07-14,16968.0,0.0,16968.0,0,
2020-07-15,16968.0,0.0,16968.0,0,
2020-07-16,16968.0,0.0,16968.0,0,
2020-07-17,16968.0,0.0,16968.0,0,
2020-07-19,16968.0,0.0,16968.0,0,
2020-07-20,16968.0,0.0,16968.0,0,
2020-07-21,16968.0,0.0,16968.0,0,
2020-07-22,16968.0,0.0,16968.0,0,
2020-07-23,16968.0,0.0,16968.0,0,
2020-07-24,16968.0,0.0,16968.0,0,
2020-07-26,16968.0,0.0,16968.0,0,
2020-07-27,16968.0,0.0,16968.0,0,
2020-07-28,16968.0,0.0,16968.0,0,
2020-07-29,16968.0,0.0,16968.0,0,
2020-07-30,16968.0,0.0,16968.0,0,
2020-07-31,16968.0,0.0,16968.0,0,
2020-08-02,16968.0,0.0,16968.0,0,
2020-08-03,16968.0,0.0,16968.0,0,
2020-08-04,16968.0,0.0,16968.0,0,
2020-08-05,16968.0,328.0,17296.0,1,Long
2020-08-06,16968.0,389.0,17357.0,1,Long
2020-08-07,16968.0,594.0,17562.0,1,Long
2020-08-09,16968.0,646.0,17614.0,1,Long
2020-08-10,16968.0,1018.0,17986.0,1,Long
2020-08-11,16968.0,908.0,17876.0,1,Long
2020-08-12,16968.0,1108.0,18076.0,1,Long
2020-08-13,16968.0,1091.0,18059.0,1,Long
2020-08-14,16968.0,1085.0,18053.0,2,Long
2020-08-16,16968.0,1287.0,18255.0,2,Long
2020-08-17,16968.0,1011.0,17979.0,2,Long
2020-08-18,16968.0,989.0,17957.0,2,Long
2020-08-19,16968.0,441.0,17409.0,2,Long
2020-08-20,16968.0,963.0,17931.0,2,Long
2020-08-21,16968.0,1201.0,18169.0,2,Long
2020-08-23,16968.0,1339.0,18307.0,2,Long
2020-08-24,16968.0,2271.0,19239.0,2,Long
2020-08-25,16968.0,1801.0,18769.0,2,Long
2020-08-26,16968.0,2003.0,18971.0,2,Long
2020-08-27,16968.0,2847.0,19815.0,2,Long
2020-08-28,16968.0,2629.0,19597.0,4,Long
2020-08-30,16968.0,3209.0,20177.0,4,Long
2020-08-31,16968.0,1881.0,18849.0,4,Long
2020-09-01,16968.0,2905.0,19873.0,4,Long
2020-09-02,16968.0,4497.0,21465.0,4,Long
2020-09-03,16968.0,1173.0,18141.0,4,Long
2020-09-04,16968.0,381.0,17349.0,4,Long
2020-09-06,16968.0,665.0,17633.0,4,Long
2020-09-07,16968.0,1221.0,18189.0,4,Long
2020-09-08,18193.0,0.0,18193.0,0,
2020-09-09,18193.0,0.0,18193.0,0,
2020-09-10,18193.0,0.0,18193.0,0,
2020-09-11,18193.0,0.0,18193.0,0,
2020-09-13,18193.0,0.0,18193.0,0,
2020-09-14,18193.0,0.0,18193.0,0,
2020-09-15,18193.0,0.0,18193.0,0,
2020-09-16,18193.0,0.0,18193.0,0,
2020-09-17,18193.0,0.0,18193.0,0,
2020-09-18,18193.0,0.0,18193.0,0,
2020-09-20,18193.0,0.0,18193.0,0,
2020-09-21,18193.0,0.0,18193.0,0,
2020-09-22,18193.0,0.0,18193.0,0,
2020-09-23,18193.0,0.0,18193.0,0,
2020-09-24,18193.0,0.0,18193.0,0,
2020-09-25,18193.0,0.0,18193.0,0,
2020-09-27,18193.0,0.0,18193.0,0,
2020-09-28,18193.0,0.0,18193.0,0,
2020-09-29,18193.0,0.0,18193.0,0,
2020-09-30,18193.0,0.0,18193.0,0,
2020-10-01,18193.0,0.0,18193.0,0,
2020-10-02,18193.0,0.0,18193.0,0,
2020-10-04,18193.0,0.0,18193.0,0,
2020-10-05,18193.0,0.0,18193.0,0,
2020-10-06,18193.0,0.0,18193.0,0,
2020-10-07,18193.0,0.0,18193.0,0,
2020-10-08,18193.0,184.0,18377.0,1,Long
2020-10-09,18193.0,289.0,18482.0,1,Long
2020-10-11,18193.0,252.0,18445.0,1,Long
2020-10-12,18193.0,432.0,18625.0,1,Long
2020-10-13,18193.0,393.0,18586.0,1,Long
2020-10-14,18193.0,40.0,18233.0,1,Long
2020-10-15,18193.0,119.0,18312.0,1,Long
2020-10-16,18193.0,51.0,18244.0,2,Long
2020-10-18,18193.0,339.0,18532.0,2,Long
2020-10-19,18193.0,-401.0,17792.0,2,Long
2020-10-20,17792.0,0.0,17792.0,0,
2020-10-21,17792.0,-426.0,17366.0,1,Long
2020-10-22,17365.0,0.0,17365.0,0,
2020-10-23,17365.0,-87.0,17278.0,1,Long
2020-10-25,17243.0,0.0,17243.0,0,
2020-10-26,17243.0,0.0,17243.0,0,
2020-10-27,17243.0,0.0,17243.0,0,
2020-10-28,17243.0,0.0,17243.0,0,
2020-10-29,17243.0,0.0,17243.0,0,
2020-10-30,17243.0,0.0,17243.0,0,
2020-11-01,17243.0,0.0,17243.0,0,
2020-11-02,17243.0,0.0,17243.0,0,
2020-11-03,17243.0,0.0,17243.0,0,
2020-11-04,17243.0,505.0,17748.0,1,Long
2020-11-05,17243.0,700.0,17943.0,1,Long
2020-11-06,17243.0,848.0,18091.0,1,Long
2020-11-08,17243.0,1156.0,18399.0,1,Long
2020-11-09,17243.0,1392.0,18635.0,1,Long
2020-11-10,17243.0,1956.0,19199.0,1,Long
2020-11-11,17243.0,1638.0,18881.0,1,Long
2020-11-12,17243.0,1542.0,18785.0,1,Long
2020-11-13,17243.0,1954.0,19197.0,2,Long
2020-11-15,17243.0,2426.0,19669.0,2,Long
2020-11-16,17243.0,2692.0,19935.0,2,Long
2020-11-17,17243.0,2466.0,19709.0,2,Long
2020-11-18,17243.0,1862.0,19105.0,2,Long
2020-11-19,17243.0,1646.0,18889.0,2,Long
2020-11-20,17243.0,1476.0,18719.0,2,Long
2020-11-22,17243.0,1722.0,18965.0,2,Long
2020-11-23,17243.0,2770.0,20013.0,2,Long
2020-11-24,17243.0,3218.0,20461.0,2,Long
2020-11-25,17243.0,2816.0,20059.0,2,Long
2020-11-26,17243.0,2718.0,19961.0,2,Long
2020-11-27,17243.0,2906.0,20149.0,4,Long
2020-11-29,17243.0,2070.0,19313.0,4,Long
2020-11-30,17243.0,2802.0,20045.0,4,Long
2020-12-01,17243.0,2110.0,19353.0,4,Long
2020-12-02,17243.0,2662.0,19905.0,4,Long
2020-12-03,17243.0,3298.0,20541.0,4,Long
2020-12-04,17243.0,3938.0,21181.0,4,Long
2020-12-06,17243.0,3902.0,21145.0,4,Long
2020-12-07,17243.0,3310.0,20553.0,4,Long
2020-12-08,17243.0,4422.0,21665.0,4,Long
2020-12-09,17243.0,3706.0,20949.0,4,Long
2020-12-10,17243.0,3370.0,20613.0,4,Long
2020-12-11,17243.0,3210.0,20453.0,6,Long
2020-12-13,17243.0,4224.0,21467.0,6,Long
2020-12-14,17243.0,2214.0,19457.0,6,Long
2020-12-15,17243.0,4026.0,21269.0,6,Long
2020-12-16,17243.0,4380.0,21623.0,6,Long
2020-12-17,17243.0,4170.0,21413.0,6,Long
2020-12-18,17243.0,5160.0,22403.0,6,Long
2020-12-20,17243.0,4248.0,21491.0,6,Long
2020-12-21,17243.0,3450.0,20693.0,6,Long
2020-12-22,17243.0,2766.0,20009.0,6,Long
2020-12-23,17243.0,4062.0,21305.0,6,Long
2020-12-24,17243.0,4074.0,21317.0,6,Long
2020-12-27,17243.0,4920.0,22163.0,6,Long
2020-12-28,17243.0,6210.0,23453.0,6,Long
2020-12-29,17243.0,5358.0,22601.0,6,Long
2020-12-30,17243.0,5346.0,22589.0,6,Long
2020-12-31,17243.0,6432.0,23675.0,6,Long
2021-01-03,17243.0,6468.0,23711.0,6,Long
2021-01-04,17243.0,3918.0,21161.0,6,Long
2021-01-05,17243.0,4824.0,22067.0,6,Long
2021-01-06,17243.0,8538.0,25781.0,6,Long
2021-01-07,17243.0,9990.0,27233.0,6,Long
2021-01-08,17243.0,9674.0,26917.0,8,Long
2021-01-10,17243.0,7890.0,25133.0,8,Long
2021-01-11,17243.0,8626.0,25869.0,8,Long
2021-01-12,17243.0,9818.0,27061.0,8,Long
2021-01-13,17243.0,10186.0,27429.0,8,Long
2021-01-14,17243.0,7818.0,25061.0,8,Long
2021-01-15,17243.0,6498.0,23741.0,8,Long
2021-01-17,17243.0,6946.0,24189.0,8,Long
2021-01-18,17243.0,8586.0,25829.0,8,Long
2021-01-19,17243.0,7970.0,25213.0,8,Long
2021-01-20,17243.0,10666.0,27909.0,8,Long
2021-01-21,17243.0,9410.0,26653.0,8,Long
2021-01-22,17243.0,8646.0,25889.0,9,Long
2021-01-24,17243.0,9447.0,26690.0,9,Long
2021-01-25,17243.0,6801.0,24044.0,9,Long
2021-01-26,17243.0,7395.0,24638.0,9,Long
2021-01-27,17243.0,1887.0,19130.0,9,Long
2021-01-28,17243.0,2589.0,19832.0,9,Long
2021-01-29,19814.0,0.0,19814.0,0,
2021-01-31,19814.0,0.0,19814.0,0,
2021-02-01,19814.0,0.0,19814.0,0,
2021-02-02,19814.0,0.0,19814.0,0,
2021-02-03,19814.0,0.0,19814.0,0,
2021-02-04,19814.0,0.0,19814.0,0,
2021-02-05,19814.0,71.0,19885.0,1,Long
2021-02-07,19814.0,185.0,19999.0,1,Long
2021-02-08,19814.0,257.0,20071.0,1,Long
2021-02-09,19814.0,361.0,20175.0,1,Long
2021-02-10,19814.0,368.0,20182.0,1,Long
2021-02-11,19814.0,311.0,20125.0,1,Long
2021-02-12,19814.0,411.0,20225.0,1,Long
2021-02-14,19814.0,535.0,20349.0,1,Long
2021-02-15,19814.0,647.0,20461.0,1,Long
2021-02-16,19814.0,451.0,20265.0,1,Long
2021-02-17,19814.0,524.0,20338.0,1,Long
2021-02-18,19814.0,344.0,20158.0,1,Long
2021-02-19,19814.0,379.0,20193.0,2,Long
2021-02-21,19814.0,337.0,20151.0,2,Long
2021-02-22,19814.0,713.0,20527.0,2,Long
2021-02-23,19814.0,381.0,20195.0,2,Long
2021-02-24,19814.0,1545.0,21359.0,2,Long
2021-02-25,19814.0,33.0,19847.0,2,Long
2021-02-26,19814.0,-675.0,19139.0,2,Long
2021-02-28,19287.0,0.0,19287.0,0,
2021-03-01,19287.0,295.0,19582.0,1,Long
2021-03-02,19287.0,352.0,19639.0,1,Long
2021-03-03,19287.0,6.0,19293.0,1,Long
2021-03-04,19287.0,-316.0,18971.0,1,Long
2021-03-05,18971.0,0.0,18971.0,0,
2021-03-07,18971.0,-88.0,18883.0,1,Long
2021-03-08,18971.0,420.0,19391.0,1,Long
2021-03-09,18971.0,239.0,19210.0,1,Long
2021-03-10,18971.0,850.0,19821.0,1,Long
2021-03-11,18971.0,1026.0,19997.0,1,Long
2021-03-12,18971.0,1127.0,20098.0,1,Long
2021-03-14,18971.0,1178.0,20149.0,1,Long
2021-03-15,18971.0,1251.0,20222.0,1,Long
2021-03-16,18971.0,1135.0,20106.0,1,Long
2021-03-17,18971.0,1418.0,20389.0,1,Long
2021-03-18,18971.0,1247.0,20218.0,1,Long
2021-03-19,18971.0,846.0,19817.0,2,Long
2021-03-21,18971.0,680.0,19651.0,2,Long
2021-03-22,18971.0,996.0,19967.0,2,Long
2021-03-23,18971.0,438.0,19409.0,2,Long
2021-03-24,18971.0,652.0,19623.0,2,Long
2021-03-25,18971.0,1006.0,19977.0,2,Long
2021-03-26,18971.0,1746.0,20717.0,2,Long
2021-03-28,18971.0,1544.0,20515.0,2,Long
2021-03-29,18971.0,2014.0,20985.0,2,Long
2021-03-30,18971.0,1724.0,20695.0,2,Long
2021-03-31,18971.0,1550.0,20521.0,2,Long
2021-04-01,18971.0,1892.0,20863.0,2,Long
2021-04-02,18971.0,2268.0,21239.0,4,Long
2021-04-04,18971.0,2428.0,21399.0,4,Long
2021-04-05,18971.0,2720.0,21691.0,4,Long
2021-04-06,18971.0,2792.0,21763.0,4,Long
2021-04-07,18971.0,2928.0,21899.0,4,Long
2021-04-08,18971.0,3000.0,21971.0,4,Long
2021-04-09,18971.0,3956.0,22927.0,4,Long
2021-04-11,18971.0,3748.0,22719.0,4,Long
2021-04-12,18971.0,4008.0,22979.0,4,Long
2021-04-13,18971.0,3528.0,22499.0,4,Long
2021-04-14,18971.0,4132.0,23103.0,4,Long
2021-04-15,18971.0,4968.0,23939.0,4,Long
2021-04-16,18971.0,5496.0,24467.0,6,Long
2021-04-18,18971.0,5082.0,24053.0,6,Long
2021-04-19,18971.0,5442.0,24413.0,6,Long
2021-04-20,18971.0,3186.0,22157.0,6,Long
2021-04-21,18971.0,5046.0,24017.0,6,Long
2021-04-22,18971.0,3678.0,22649.0,6,Long
2021-04-23,18971.0,4638.0,23609.0,6,Long
2021-04-25,18971.0,5052.0,24023.0,6,Long
2021-04-26,18971.0,4590.0,23561.0,6,Long
2021-04-27,18971.0,4206.0,23177.0,6,Long
2021-04-28,18971.0,4020.0,22991.0,6,Long
2021-04-29,18971.0,4548.0,23519.0,6,Long
2021-04-30,18971.0,4006.0,22977.0,8,Long
2021-05-02,18971.0,4782.0,23753.0,8,Long
2021-05-03,18971.0,5294.0,24265.0,8,Long
2021-05-04,18971.0,6478.0,25449.0,8,Long
2021-05-05,18971.0,6542.0,25513.0,8,Long
2021-05-06,18971.0,9270.0,28241.0,8,Long
2021-05-07,18971.0,11198.0,30169.0,8,Long
2021-05-09,18971.0,11806.0,30777.0,8,Long
2021-05-10,18971.0,10262.0,29233.0,8,Long
2021-05-11,18971.0,5142.0,24113.0,8,Long
2021-05-12,24105.0,0.0,24105.0,0,
2021-05-13,24105.0,0.0,24105.0,0,
2021-05-14,24105.0,0.0,24105.0,0,
2021-05-16,24105.0,0.0,24105.0,0,
2021-05-17,24105.0,0.0,24105.0,0,
2021-05-18,24105.0,0.0,24105.0,0,
2021-05-19,24105.0,0.0,24105.0,0,
2021-05-20,24105.0,0.0,24105.0,0,
2021-05-21,24105.0,0.0,24105.0,0,
2021-05-23,24105.0,0.0,24105.0,0,
2021-05-24,24105.0,0.0,24105.0,0,
2021-05-25,24105.0,0.0,24105.0,0,
2021-05-26,24105.0,0.0,24105.0,0,
2021-05-27,24105.0,0.0,24105.0,0,
2021-05-28,24105.0,0.0,24105.0,0,
2021-05-30,24105.0,0.0,24105.0,0,
2021-05-31,24105.0,0.0,24105.0,0,
2021-06-01,24105.0,0.0,24105.0,0,
2021-06-02,24105.0,0.0,24105.0,0,
2021-06-03,24105.0,0.0,24105.0,0,
2021-06-04,24105.0,0.0,24105.0,0,
2021-06-06,24105.0,0.0,24105.0,0,
2021-06-07,24105.0,0.0,24105.0,0,
2021-06-08,24105.0,0.0,24105.0,0,
2021-06-09,24105.0,0.0,24105.0,0,
2021-06-10,24105.0,0.0,24105.0,0,
2021-06-11,24105.0,0.0,24105.0,0,
2021-06-13,24105.0,0.0,24105.0,0,
2021-06-14,24105.0,0.0,24105.0,0,
2021-06-15,24105.0,0.0,24105.0,0,
2021-06-16,24105.0,0.0,24105.0,0,
2021-06-17,24105.0,0.0,24105.0,0,
2021-06-18,24105.0,0.0,24105.0,0,
2021-06-20,24105.0,0.0,24105.0,0,
2021-06-21,24105.0,0.0,24105.0,0,
2021-06-22,24105.0,0.0,24105.0,0,
2021-06-23,24105.0,0.0,24105.0,0,
2021-06-24,24105.0,368.0,24473.0,1,Long
2021-06-25,24105.0,513.0,24618.0,1,Long
2021-06-27,24105.0,487.0,24592.0,1,Long
2021-06-28,24105.0,267.0,24372.0,1,Long
2021-06-29,24105.0,356.0,24461.0,1,Long
2021-06-30,24105.0,598.0,24703.0,1,Long
2021-07-01,24105.0,686.0,24791.0,1,Long
2021-07-02,24105.0,738.0,24843.0,2,Long
2021-07-04,24105.0,690.0,24795.0,2,Long
2021-07-05,24105.0,902.0,25007.0,2,Long
2021-07-06,24105.0,328.0,24433.0,2,Long
2021-07-07,24105.0,410.0,24515.0,2,Long
2021-07-08,24105.0,-126.0,23979.0,2,Long
2021-07-09,24105.0,962.0,25067.0,2,Long
2021-07-11,24105.0,836.0,24941.0,2,Long
2021-07-12,24105.0,1192.0,25297.0,2,Long
2021-07-13,24105.0,936.0,25041.0,2,Long
2021-07-14,24105.0,972.0,25077.0,2,Long
2021-07-15,24105.0,1188.0,25293.0,2,Long
2021-07-16,24105.0,602.0,24707.0,4,Long
2021-07-18,24105.0,26.0,24131.0,4,Long
2021-07-19,24105.0,-2026.0,22079.0,4,Long
2021-07-20,24105.0,-14.0,24091.0,4,Long
2021-07-21,24105.0,1258.0,25363.0,4,Long
2021-07-22,24105.0,1426.0,25531.0,4,Long
2021-07-23,24105.0,2054.0,26159.0,4,Long
2021-07-25,24105.0,1574.0,25679.0,4,Long
2021-07-26,24105.0,2306.0,26411.0,4,Long
2021-07-27,24105.0,1890.0,25995.0,4,Long
2021-07-28,24105.0,1678.0,25783.0,4,Long
2021-07-29,24105.0,1866.0,25971.0,4,Long
2021-07-30,24105.0,1982.0,26087.0,6,Long
2021-08-01,24105.0,2654.0,26759.0,6,Long
2021-08-02,24105.0,1538.0,25643.0,6,Long
2021-08-03,24105.0,2546.0,26651.0,6,Long
2021-08-04,24105.0,1244.0,25349.0,6,Long
2021-08-05,24105.0,2246.0,26351.0,6,Long
2021-08-06,24105.0,3320.0,27425.0,6,Long
2021-08-08,24105.0,3038.0,27143.0,6,Long
2021-08-09,24105.0,2384.0,26489.0,6,Long
2021-08-10,24105.0,3584.0,27689.0,6,Long
2021-08-11,24105.0,5096.0,29201.0,6,Long
2021-08-12,24105.0,5180.0,29285.0,6,Long
2021-08-13,24105.0,5180.0,29285.0,8,Long
2021-08-15,24105.0,4260.0,28365.0,8,Long
2021-08-16,24105.0,5428.0,29533.0,8,Long
2021-08-17,24105.0,4060.0,28165.0,8,Long
2021-08-18,24105.0,932.0,25037.0,8,Long
2021-08-19,24105.0,196.0,24301.0,8,Long
2021-08-20,24105.0,2420.0,26525.0,8,Long
2021-08-22,24105.0,3484.0,27589.0,8,Long
2021-08-23,24105.0,4724.0,28829.0,8,Long
2021-08-24,24105.0,4100.0,28205.0,8,Long
2021-08-25,24105.0,4548.0,28653.0,8,Long
2021-08-26,24105.0,3596.0,27701.0,8,Long
2021-08-27,24105.0,5246.0,29351.0,9,Long
2021-08-29,24105.0,5399.0,29504.0,9,Long
2021-08-30,24105.0,5120.0,29225.0,9,Long
2021-08-31,24105.0,5408.0,29513.0,9,Long
2021-09-01,24105.0,3752.0,27857.0,9,Long
2021-09-02,24105.0,5849.0,29954.0,9,Long
2021-09-03,24105.0,4598.0,28703.0,9,Long
2021-09-05,24105.0,4679.0,28784.0,9,Long
2021-09-06,24105.0,5156.0,29261.0,9,Long
2021-09-07,24105.0,2267.0,26372.0,9,Long
2021-09-08,24105.0,764.0,24869.0,9,Long
2021-09-09,24105.0,1160.0,25265.0,9,Long
2021-09-10,24203.0,0.0,24203.0,0,
2021-09-12,24203.0,0.0,24203.0,0,
2021-09-13,24203.0,0.0,24203.0,0,
2021-09-14,24203.0,0.0,24203.0,0,
2021-09-15,24203.0,0.0,24203.0,0,
2021-09-16,24203.0,0.0,24203.0,0,
2021-09-17,24203.0,0.0,24203.0,0,
2021-09-19,24203.0,0.0,24203.0,0,
2021-09-20,24203.0,0.0,24203.0,0,
2021-09-21,24203.0,0.0,24203.0,0,
2021-09-22,24203.0,0.0,24203.0,0,
2021-09-23,24203.0,0.0,24203.0,0,
2021-09-24,24203.0,0.0,24203.0,0,
2021-09-26,24203.0,0.0,24203.0,0,
2021-09-27,24203.0,0.0,24203.0,0,
2021-09-28,24203.0,0.0,24203.0,0,
2021-09-29,24203.0,0.0,24203.0,0,
2021-09-30,24203.0,0.0,24203.0,0,
2021-10-01,24203.0,0.0,24203.0,0,
2021-10-03,24203.0,0.0,24203.0,0,
2021-10-04,24203.0,0.0,24203.0,0,
2021-10-05,24203.0,0.0,24203.0,0,
2021-10-06,24203.0,0.0,24203.0,0,
2021-10-07,24203.0,0.0,24203.0,0,
2021-10-08,24203.0,0.0,24203.0,0,
2021-10-10,24203.0,0.0,24203.0,0,
2021-10-11,24203.0,0.0,24203.0,0,
2021-10-12,24203.0,0.0,24203.0,0,
2021-10-13,24203.0,0.0,24203.0,0,
2021-10-14,24203.0,528.0,24731.0,1,Long
2021-10-15,24203.0,827.0,25030.0,1,Long
2021-10-17,24203.0,823.0,25026.0,1,Long
2021-10-18,24203.0,756.0,24959.0,1,Long
2021-10-19,24203.0,973.0,25176.0,1,Long
2021-10-20,24203.0,1071.0,25274.0,1,Long
2021-10-21,24203.0,1154.0,25357.0,1,Long
2021-10-22,24203.0,1069.0,25272.0,2,Long
2021-10-24,24203.0,1207.0,25410.0,2,Long
2021-10-25,24203.0,1417.0,25620.0,2,Long
2021-10-26,24203.0,1361.0,25564.0,2,Long
2021-10-27,24203.0,965.0,25168.0,2,Long
2021-10-28,24203.0,1255.0,25458.0,2,Long
2021-10-29,24203.0,1563.0,25766.0,2,Long
2021-10-31,24203.0,1647.0,25850.0,2,Long
2021-11-01,24203.0,1521.0,25724.0,2,Long
2021-11-02,24203.0,1867.0,26070.0,2,Long
2021-11-03,24203.0,2099.0,26302.0,2,Long
2021-11-04,24203.0,2053.0,26256.0,2,Long
2021-11-05,24203.0,2327.0,26530.0,4,Long
2021-11-07,24203.0,2375.0,26578.0,4,Long
2021-11-08,24203.0,2527.0,26730.0,4,Long
2021-11-09,24203.0,1995.0,26198.0,4,Long
2021-11-10,24203.0,1475.0,25678.0,4,Long
2021-11-11,24203.0,1175.0,25378.0,4,Long
2021-11-12,24203.0,1763.0,25966.0,4,Long
2021-11-14,24203.0,1691.0,25894.0,4,Long
2021-11-15,24203.0,1691.0,25894.0,4,Long
2021-11-16,24203.0,1919.0,26122.0,4,Long
2021-11-17,24203.0,1131.0,25334.0,4,Long
2021-11-18,24203.0,1379.0,25582.0,4,Long
2021-11-19,24203.0,75.0,24278.0,6,Long
2021-11-21,24203.0,525.0,24728.0,6,Long
2021-11-22,24203.0,195.0,24398.0,6,Long
2021-11-23,24203.0,693.0,24896.0,6,Long
2021-11-24,24203.0,1773.0,25976.0,6,Long
2021-11-25,25982.0,0.0,25982.0,0,
2021-11-26,25982.0,0.0,25982.0,0,
2021-11-28,25982.0,0.0,25982.0,0,
2021-11-29,25982.0,0.0,25982.0,0,
2021-11-30,25982.0,0.0,25982.0,0,
2021-12-01,25982.0,0.0,25982.0,0,
2021-12-02,25982.0,0.0,25982.0,0,
2021-12-03,25982.0,0.0,25982.0,0,
2021-12-05,25982.0,0.0,25982.0,0,
2021-12-06,25982.0,0.0,25982.0,0,
2021-12-07,25982.0,450.0,26432.0,1,Long
2021-12-08,25982.0,327.0,26309.0,1,Long
2021-12-09,25982.0,387.0,26369.0,1,Long
2021-12-10,25982.0,529.0,26511.0,1,Long
2021-12-12,25982.0,644.0,26626.0,1,Long
2021-12-13,25982.0,228.0,26210.0,1,Long
2021-12-14,25982.0,148.0,26130.0,1,Long
2021-12-15,25982.0,513.0,26495.0,1,Long
2021-12-16,25982.0,413.0,26395.0,1,Long
2021-12-17,25982.0,-20.0,25962.0,1,Long
2021-12-19,25879.0,0.0,25879.0,0,
2021-12-20,25879.0,0.0,25879.0,0,
2021-12-21,25879.0,0.0,25879.0,0,
2021-12-22,25879.0,269.0,26148.0,1,Long
2021-12-23,25879.0,468.0,26347.0,1,Long
2021-12-26,25879.0,453.0,26332.0,1,Long
2021-12-27,25879.0,766.0,26645.0,1,Long
2021-12-28,25879.0,917.0,26796.0,1,Long
2021-12-29,25879.0,987.0,26866.0,1,Long
2021-12-30,25879.0,843.0,26722.0,1,Long
2021-12-31,25879.0,877.0,26756.0,1,Long
2022-01-02,25879.0,967.0,26846.0,1,Long
2022-01-03,25879.0,1125.0,27004.0,1,Long
2022-01-04,25879.0,1221.0,27100.0,1,Long
2022-01-05,25879.0,798.0,26677.0,1,Long
2022-01-06,25879.0,819.0,26698.0,1,Long
2022-01-07,25879.0,704.0,26583.0,2,Long
2022-01-09,25879.0,678.0,26557.0,2,Long
2022-01-10,25879.0,362.0,26241.0,2,Long
2022-01-11,25879.0,796.0,26675.0,2,Long
2022-01-12,25879.0,708.0,26587.0,2,Long
2022-01-13,25879.0,492.0,26371.0,2,Long
2022-01-14,25879.0,126.0,26005.0,2,Long
2022-01-16,25879.0,-60.0,25819.0,2,Long
2022-01-17,25879.0,-106.0,25773.0,2,Long
2022-01-18,25781.0,0.0,25781.0,0,
2022-01-19,25781.0,0.0,25781.0,0,
2022-01-20,25781.0,0.0,25781.0,0,
2022-01-21,25781.0,0.0,25781.0,0,
2022-01-23,25781.0,0.0,25781.0,0,
2022-01-24,25781.0,0.0,25781.0,0,
2022-01-25,25781.0,0.0,25781.0,0,
2022-01-26,25781.0,0.0,25781.0,0,
2022-01-27,25781.0,0.0,25781.0,0,
2022-01-28,25781.0,0.0,25781.0,0,
2022-01-30,25781.0,0.0,25781.0,0,
2022-01-31,25781.0,0.0,25781.0,0,
2022-02-01,25781.0,0.0,25781.0,0,
2022-02-02,25781.0,210.0,25991.0,1,Long
2022-02-03,25781.0,-103.0,25678.0,1,Long
2022-02-04,25677.0,0.0,25677.0,0,
2022-02-06,25677.0,0.0,25677.0,0,
2022-02-07,25677.0,0.0,25677.0,0,
2022-02-08,25677.0,0.0,25677.0,0,
2022-02-09,25677.0,163.0,25840.0,1,Long
2022-02-10,25677.0,-560.0,25117.0,1,Long
2022-02-11,25118.0,0.0,25118.0,0,
2022-02-13,25118.0,0.0,25118.0,0,
2022-02-14,25118.0,0.0,25118.0,0,
2022-02-15,25118.0,0.0,25118.0,0,
2022-02-16,25118.0,0.0,25118.0,0,
2022-02-17,25118.0,0.0,25118.0,0,
2022-02-18,25118.0,0.0,25118.0,0,
2022-02-20,25118.0,0.0,25118.0,0,
2022-02-21,25118.0,0.0,25118.0,0,
2022-02-22,25118.0,0.0,25118.0,0,
2022-02-23,25118.0,0.0,25118.0,0,
2022-02-24,25118.0,0.0,25118.0,0,
2022-02-25,25118.0,0.0,25118.0,0,
2022-02-27,25118.0,0.0,25118.0,0,
2022-02-28,25118.0,0.0,25118.0,0,
2022-03-01,25118.0,0.0,25118.0,0,
2022-03-02,25118.0,0.0,25118.0,0,
2022-03-03,25118.0,0.0,25118.0,0,
2022-03-04,25118.0,0.0,25118.0,0,
2022-03-06,25118.0,0.0,25118.0,0,
2022-03-07,25118.0,0.0,25118.0,0,
2022-03-08,25118.0,0.0,25118.0,0,
2022-03-09,25118.0,0.0,25118.0,0,
2022-03-10,25118.0,0.0,25118.0,0,
2022-03-11,25118.0,0.0,25118.0,0,
2022-03-13,25118.0,0.0,25118.0,0,
2022-03-14,25118.0,0.0,25118.0,0,
2022-03-15,25118.0,0.0,25118.0,0,
2022-03-16,25118.0,0.0,25118.0,0,
2022-03-17,25118.0,0.0,25118.0,0,
2022-03-18,25118.0,0.0,25118.0,0,
2022-03-20,25118.0,0.0,25118.0,0,
2022-03-21,25118.0,0.0,25118.0,0,
2022-03-22,25118.0,0.0,25118.0,0,
2022-03-23,25118.0,0.0,25118.0,0,
2022-03-24,25118.0,0.0,25118.0,0,
2022-03-25,25118.0,0.0,25118.0,0,
2022-03-27,25118.0,0.0,25118.0,0,
2022-03-28,25118.0,220.0,25338.0,1,Long
2022-03-29,25118.0,482.0,25600.0,1,Long
2022-03-30,25118.0,491.0,25609.0,1,Long
2022-03-31,25118.0,75.0,25193.0,1,Long
2022-04-01,25118.0,51.0,25169.0,1,Long
2022-04-03,25118.0,59.0,25177.0,1,Long
2022-04-04,25118.0,126.0,25244.0,1,Long
2022-04-05,25118.0,-149.0,24969.0,1,Long
2022-04-06,24971.0,0.0,24971.0,0,
2022-04-07,24971.0,0.0,24971.0,0,
2022-04-08,24971.0,0.0,24971.0,0,
2022-04-10,24971.0,0.0,24971.0,0,
2022-04-11,24971.0,0.0,24971.0,0,
2022-04-12,24971.0,0.0,24971.0,0,
2022-04-13,24971.0,0.0,24971.0,0,
2022-04-14,24971.0,0.0,24971.0,0,
2022-04-17,24971.0,0.0,24971.0,0,
2022-04-18,24971.0,0.0,24971.0,0,
2022-04-19,24971.0,0.0,24971.0,0,
2022-04-20,24971.0,356.0,25327.0,1,Long
2022-04-21,24971.0,-220.0,24751.0,1,Long
2022-04-22,24752.0,0.0,24752.0,0,
2022-04-24,24752.0,0.0,24752.0,0,
2022-04-25,24752.0,0.0,24752.0,0,
2022-04-26,24752.0,0.0,24752.0,0,
2022-04-27,24752.0,0.0,24752.0,0,
2022-04-28,24752.0,0.0,24752.0,0,
2022-04-29,24752.0,0.0,24752.0,0,
2022-05-01,24752.0,0.0,24752.0,0,
2022-05-02,24752.0,0.0,24752.0,0,
2022-05-03,24752.0,0.0,24752.0,0,
2022-05-04,24752.0,0.0,24752.0,0,
2022-05-05,24752.0,0.0,24752.0,0,
2022-05-06,24752.0,0.0,24752.0,0,
2022-05-08,24752.0,0.0,24752.0,0,
2022-05-09,24752.0,0.0,24752.0,0,
2022-05-10,24752.0,0.0,24752.0,0,
2022-05-11,24752.0,0.0,24752.0,0,
2022-05-12,24752.0,0.0,24752.0,0,
2022-05-13,24752.0,0.0,24752.0,0,
2022-05-15,24752.0,0.0,24752.0,0,
2022-05-16,24752.0,0.0,24752.0,0,
2022-05-17,24752.0,0.0,24752.0,0,
2022-05-18,24752.0,0.0,24752.0,0,
2022-05-19,24752.0,0.0,24752.0,0,
2022-05-20,24752.0,0.0,24752.0,0,
2022-05-22,24752.0,0.0,24752.0,0,
2022-05-23,24752.0,0.0,24752.0,0,
2022-05-24,24752.0,0.0,24752.0,0,
2022-05-25,24752.0,0.0,24752.0,0,
2022-05-26,24752.0,0.0,24752.0,0,
2022-05-27,24752.0,705.0,25457.0,1,Long
2022-05-29,24752.0,684.0,25436.0,1,Long
2022-05-30,24752.0,648.0,25400.0,1,Long
2022-05-31,24752.0,607.0,25359.0,1,Long
2022-06-01,24752.0,248.0,25000.0,1,Long
2022-06-02,24752.0,701.0,25453.0,1,Long
2022-06-03,24752.0,372.0,25124.0,1,Long
2022-06-05,24752.0,480.0,25232.0,1,Long
2022-06-06,24752.0,234.0,24986.0,1,Long
2022-06-07,24752.0,534.0,25286.0,1,Long
2022-06-08,24752.0,353.0,25105.0,1,Long
2022-06-09,24752.0,-222.0,24530.0,1,Long
2022-06-10,24500.0,0.0,24500.0,0,
2022-06-12,24500.0,0.0,24500.0,0,
2022-06-13,24500.0,0.0,24500.0,0,
2022-06-14,24500.0,0.0,24500.0,0,
2022-06-15,24500.0,0.0,24500.0,0,
2022-06-16,24500.0,0.0,24500.0,0,
2022-06-17,24500.0,0.0,24500.0,0,
2022-06-19,24500.0,0.0,24500.0,0,
2022-06-20,24500.0,0.0,24500.0,0,
2022-06-21,24500.0,0.0,24500.0,0,
2022-06-22,24500.0,0.0,24500.0,0,
2022-06-23,24500.0,0.0,24500.0,0,
2022-06-24,24500.0,0.0,24500.0,0,
2022-06-26,24500.0,0.0,24500.0,0,
2022-06-27,24500.0,0.0,24500.0,0,
2022-06-28,24500.0,0.0,24500.0,0,
2022-06-29,24500.0,0.0,24500.0,0,
2022-06-30,24500.0,0.0,24500.0,0,
2022-07-01,24500.0,0.0,24500.0,0,
2022-07-03,24500.0,0.0,24500.0,0,
2022-07-04,24500.0,0.0,24500.0,0,
2022-07-05,24500.0,0.0,24500.0,0,
2022-07-06,24500.0,0.0,24500.0,0,
2022-07-07,24500.0,0.0,24500.0,0,
2022-07-08,24500.0,0.0,24500.0,0,
2022-07-10,24500.0,0.0,24500.0,0,
2022-07-11,24500.0,0.0,24500.0,0,
2022-07-12,24500.0,0.0,24500.0,0,
2022-07-13,24500.0,0.0,24500.0,0,
2022-07-14,24500.0,0.0,24500.0,0,
2022-07-15,24500.0,0.0,24500.0,0,
2022-07-17,24500.0,0.0,24500.0,0,
2022-07-18,24500.0,0.0,24500.0,0,
2022-07-19,24500.0,883.0,25383.0,1,Long
2022-07-20,24500.0,743.0,25243.0,1,Long
2022-07-21,24500.0,898.0,25398.0,1,Long
2022-07-22,24500.0,789.0,25289.0,1,Long
2022-07-24,24500.0,778.0,25278.0,1,Long
2022-07-25,24500.0,783.0,25283.0,1,Long
2022-07-26,24500.0,765.0,25265.0,1,Long
2022-07-27,24500.0,1049.0,25549.0,1,Long
2022-07-28,24500.0,1429.0,25929.0,1,Long
2022-07-29,24500.0,1689.0,26189.0,2,Long
2022-07-31,24500.0,1415.0,25915.0,2,Long
2022-08-01,24500.0,1405.0,25905.0,2,Long
2022-08-02,24500.0,943.0,25443.0,2,Long
2022-08-03,24500.0,1575.0,26075.0,2,Long
2022-08-04,24500.0,1607.0,26107.0,2,Long
2022-08-05,24500.0,1501.0,26001.0,2,Long
2022-08-07,24500.0,1511.0,26011.0,2,Long
2022-08-08,24500.0,1819.0,26319.0,2,Long
2022-08-09,24500.0,1525.0,26025.0,2,Long
2022-08-10,24500.0,2791.0,27291.0,2,Long
2022-08-11,24500.0,2753.0,27253.0,2,Long
2022-08-12,24500.0,3553.0,28053.0,4,Long
2022-08-14,24500.0,3281.0,27781.0,4,Long
2022-08-15,24500.0,4173.0,28673.0,4,Long
2022-08-16,24500.0,5185.0,29685.0,4,Long
2022-08-17,24500.0,4453.0,28953.0,4,Long
2022-08-18,24500.0,4433.0,28933.0,4,Long
2022-08-19,24500.0,3477.0,27977.0,4,Long
2022-08-21,24500.0,2997.0,27497.0,4,Long
2022-08-22,24500.0,1101.0,25601.0,4,Long
2022-08-23,25605.0,0.0,25605.0,0,
2022-08-24,25605.0,0.0,25605.0,0,
2022-08-25,25605.0,0.0,25605.0,0,
2022-08-26,25605.0,0.0,25605.0,0,
2022-08-28,25605.0,0.0,25605.0,0,
2022-08-29,25605.0,0.0,25605.0,0,
2022-08-30,25605.0,0.0,25605.0,0,
2022-08-31,25605.0,0.0,25605.0,0,
2022-09-01,25605.0,0.0,25605.0,0,
2022-09-02,25605.0,0.0,25605.0,0,
2022-09-04,25605.0,0.0,25605.0,0,
2022-09-05,25605.0,0.0,25605.0,0,
2022-09-06,25605.0,0.0,25605.0,0,
2022-09-07,25605.0,0.0,25605.0,0,
2022-09-08,25605.0,0.0,25605.0,0,
2022-09-09,25605.0,0.0,25605.0,0,
2022-09-11,25605.0,0.0,25605.0,0,
2022-09-12,25605.0,0.0,25605.0,0,
2022-09-13,25605.0,0.0,25605.0,0,
2022-09-14,25605.0,0.0,25605.0,0,
2022-09-15,25605.0,0.0,25605.0,0,
2022-09-16,25605.0,0.0,25605.0,0,
2022-09-18,25605.0,0.0,25605.0,0,
2022-09-19,25605.0,0.0,25605.0,0,
2022-09-20,25605.0,0.0,25605.0,0,
2022-09-21,25605.0,0.0,25605.0,0,
2022-09-22,25605.0,0.0,25605.0,0,
2022-09-23,25605.0,0.0,25605.0,0,
2022-09-25,25605.0,0.0,25605.0,0,
2022-09-26,25605.0,0.0,25605.0,0,
2022-09-27,25605.0,0.0,25605.0,0,
2022-09-28,25605.0,0.0,25605.0,0,
2022-09-29,25605.0,0.0,25605.0,0,
2022-09-30,25605.0,0.0,25605.0,0,
2022-10-02,25605.0,0.0,25605.0,0,
2022-10-03,25605.0,0.0,25605.0,0,
2022-10-04,25605.0,0.0,25605.0,0,
2022-10-05,25605.0,0.0,25605.0,0,
2022-10-06,25605.0,0.0,25605.0,0,
2022-10-07,25605.0,0.0,25605.0,0,
2022-10-09,25605.0,0.0,25605.0,0,
2022-10-10,25605.0,0.0,25605.0,0,
2022-10-11,25605.0,0.0,25605.0,0,
2022-10-12,25605.0,0.0,25605.0,0,
2022-10-13,25605.0,0.0,25605.0,0,
2022-10-14,25605.0,0.0,25605.0,0,
2022-10-16,25605.0,0.0,25605.0,0,
2022-10-17,25605.0,763.0,26368.0,1,Long
2022-10-18,25605.0,905.0,26510.0,1,Long
2022-10-19,25605.0,542.0,26147.0,1,Long
2022-10-20,25605.0,490.0,26095.0,1,Long
2022-10-21,25605.0,1358.0,26963.0,1,Long
2022-10-23,25605.0,1297.0,26902.0,1,Long
2022-10-24,25605.0,1715.0,27320.0,1,Long
2022-10-25,25605.0,1978.0,27583.0,1,Long
2022-10-26,25605.0,2226.0,27831.0,1,Long
2022-10-27,25605.0,2276.0,27881.0,1,Long
2022-10-28,25605.0,3277.0,28882.0,2,Long
2022-10-30,25605.0,3061.0,28666.0,2,Long
2022-10-31,25605.0,3065.0,28670.0,2,Long
2022-11-01,25605.0,2751.0,28356.0,2,Long
2022-11-02,25605.0,1773.0,27378.0,2,Long
2022-11-03,25605.0,1291.0,26896.0,2,Long
2022-11-04,25605.0,2051.0,27656.0,2,Long
2022-11-06,25605.0,2071.0,27676.0,2,Long
2022-11-07,25605.0,2989.0,28594.0,2,Long
2022-11-08,25605.0,3627.0,29232.0,2,Long
2022-11-09,25605.0,2457.0,28062.0,2,Long
2022-11-10,25605.0,4885.0,30490.0,2,Long
2022-11-11,25605.0,4713.0,30318.0,4,Long
2022-11-13,25605.0,4433.0,30038.0,4,Long
2022-11-14,25605.0,4357.0,29962.0,4,Long
2022-11-15,25605.0,3857.0,29462.0,4,Long
2022-11-16,25605.0,4049.0,29654.0,4,Long
2022-11-17,25605.0,3789.0,29394.0,4,Long
2022-11-18,25605.0,4733.0,30338.0,4,Long
2022-11-20,25605.0,4473.0,30078.0,4,Long
2022-11-21,25605.0,4689.0,30294.0,4,Long
2022-11-22,25605.0,6169.0,31774.0,4,Long
2022-11-23,25605.0,6709.0,32314.0,4,Long
2022-11-24,25605.0,6657.0,32262.0,4,Long
2022-11-25,25605.0,7185.0,32790.0,6,Long
2022-11-27,25605.0,6105.0,31710.0,6,Long
2022-11-28,25605.0,4539.0,30144.0,6,Long
2022-11-29,25605.0,4293.0,29898.0,6,Long
2022-11-30,25605.0,8553.0,34158.0,6,Long
2022-12-01,25605.0,7209.0,32814.0,6,Long
2022-12-02,25605.0,7269.0,32874.0,6,Long
2022-12-04,25605.0,7521.0,33126.0,6,Long
2022-12-05,25605.0,5067.0,30672.0,6,Long
2022-12-06,25605.0,3039.0,28644.0,6,Long
2022-12-07,25605.0,2547.0,28152.0,6,Long
2022-12-08,25605.0,4017.0,29622.0,6,Long
2022-12-09,25605.0,1667.0,27272.0,8,Long
2022-12-11,25605.0,3635.0,29240.0,8,Long
2022-12-12,25605.0,7971.0,33576.0,8,Long
2022-12-13,25605.0,9675.0,35280.0,8,Long
2022-12-14,25605.0,7867.0,33472.0,8,Long
2022-12-15,25605.0,979.0,26584.0,8,Long
2022-12-16,26600.0,0.0,26600.0,0,
2022-12-18,26600.0,0.0,26600.0,0,
2022-12-19,26600.0,0.0,26600.0,0,
2022-12-20,26600.0,0.0,26600.0,0,
2022-12-21,26600.0,0.0,26600.0,0,
2022-12-22,26600.0,0.0,26600.0,0,
2022-12-23,26600.0,0.0,26600.0,0,
2022-12-26,26600.0,0.0,26600.0,0,
2022-12-27,26600.0,0.0,26600.0,0,
2022-12-28,26600.0,0.0,26600.0,0,
2022-12-29,26600.0,0.0,26600.0,0,
2022-12-30,26600.0,0.0,26600.0,0,
2023-01-02,26600.0,0.0,26600.0,0,
2023-01-03,26600.0,0.0,26600.0,0,
2023-01-04,26600.0,0.0,26600.0,0,
2023-01-05,26600.0,0.0,26600.0,0,
2023-01-06,26600.0,0.0,26600.0,0,
2023-01-08,26600.0,0.0,26600.0,0,
2023-01-09,26600.0,0.0,26600.0,0,
2023-01-10,26600.0,0.0,26600.0,0,
2023-01-11,26600.0,0.0,26600.0,0,
2023-01-12,26600.0,0.0,26600.0,0,
2023-01-13,26600.0,0.0,26600.0,0,
2023-01-15,26600.0,0.0,26600.0,0,
2023-01-16,26600.0,0.0,26600.0,0,
2023-01-17,26600.0,0.0,26600.0,0,
2023-01-18,26600.0,0.0,26600.0,0,
2023-01-19,26600.0,0.0,26600.0,0,
2023-01-20,26600.0,0.0,26600.0,0,
2023-01-22,26600.0,0.0,26600.0,0,
2023-01-23,26600.0,0.0,26600.0,0,
2023-01-24,26600.0,0.0,26600.0,0,
2023-01-25,26600.0,0.0,26600.0,0,
2023-01-26,26600.0,0.0,26600.0,0,
2023-01-27,26600.0,0.0,26600.0,0,
2023-01-29,26600.0,0.0,26600.0,0,
2023-01-30,26600.0,0.0,26600.0,0,
2023-01-31,26600.0,0.0,26600.0,0,
2023-02-01,26600.0,0.0,26600.0,0,
2023-02-02,26600.0,0.0,26600.0,0,
2023-02-03,26600.0,0.0,26600.0,0,
2023-02-05,26600.0,0.0,26600.0,0,
2023-02-06,26600.0,0.0,26600.0,0,
2023-02-07,26600.0,0.0,26600.0,0,
2023-02-08,26600.0,0.0,26600.0,0,
2023-02-09,26600.0,0.0,26600.0,0,
2023-02-10,26600.0,0.0,26600.0,0,
2023-02-12,26600.0,0.0,26600.0,0,
2023-02-13,26600.0,0.0,26600.0,0,
2023-02-14,26600.0,0.0,26600.0,0,
2023-02-15,26600.0,0.0,26600.0,0,
2023-02-16,26600.0,0.0,26600.0,0,
2023-02-17,26600.0,0.0,26600.0,0,
2023-02-19,26600.0,0.0,26600.0,0,
2023-02-20,26600.0,0.0,26600.0,0,
2023-02-21,26600.0,0.0,26600.0,0,
2023-02-22,26600.0,0.0,26600.0,0,
2023-02-23,26600.0,0.0,26600.0,0,
2023-02-24,26600.0,0.0,26600.0,0,
2023-02-26,26600.0,0.0,26600.0,0,
2023-02-27,26600.0,0.0,26600.0,0,
2023-02-28,26600.0,0.0,26600.0,0,
2023-03-01,26600.0,0.0,26600.0,0,
2023-03-02,26600.0,0.0,26600.0,0,
2023-03-03,26600.0,0.0,26600.0,0,
2023-03-05,26600.0,0.0,26600.0,0,
2023-03-06,26600.0,0.0,26600.0,0,
2023-03-07,26600.0,0.0,26600.0,0,
2023-03-08,26600.0,0.0,26600.0,0,
2023-03-09,26600.0,0.0,26600.0,0,
2023-03-10,26600.0,0.0,26600.0,0,
2023-03-12,26600.0,0.0,26600.0,0,
2023-03-13,26600.0,0.0,26600.0,0,
2023-03-14,26600.0,0.0,26600.0,0,
2023-03-15,26600.0,0.0,26600.0,0,
2023-03-16,26600.0,0.0,26600.0,0,
2023-03-17,26600.0,0.0,26600.0,0,
2023-03-19,26600.0,0.0,26600.0,0,
2023-03-20,26600.0,0.0,26600.0,0,
2023-03-21,26600.0,0.0,26600.0,0,
2023-03-22,26600.0,0.0,26600.0,0,
2023-03-23,26600.0,0.0,26600.0,0,
2023-03-24,26600.0,0.0,26600.0,0,
2023-03-26,26600.0,0.0,26600.0,0,
2023-03-27,26600.0,0.0,26600.0,0,
2023-03-28,26600.0,0.0,26600.0,0,
2023-03-29,26600.0,0.0,26600.0,0,
2023-03-30,26600.0,0.0,26600.0,0,
2023-03-31,26600.0,427.0,27027.0,1,Long
2023-04-02,26600.0,353.0,26953.0,1,Long
2023-04-03,26600.0,682.0,27282.0,1,Long
2023-04-04,26600.0,498.0,27098.0,1,Long
2023-04-05,26600.0,498.0,27098.0,1,Long
2023-04-06,26600.0,515.0,27115.0,1,Long
2023-04-07,26600.0,616.0,27216.0,1,Long
2023-04-09,26600.0,576.0,27176.0,1,Long
2023-04-10,26600.0,692.0,27292.0,1,Long
2023-04-11,26600.0,768.0,27368.0,1,Long
2023-04-12,26600.0,701.0,27301.0,1,Long
2023-04-13,26600.0,1041.0,27641.0,1,Long
2023-04-14,26600.0,1045.0,27645.0,2,Long
2023-04-16,26600.0,1049.0,27649.0,2,Long
2023-04-17,26600.0,1101.0,27701.0,2,Long
2023-04-18,26600.0,999.0,27599.0,2,Long
2023-04-19,26600.0,897.0,27497.0,2,Long
2023-04-20,26600.0,665.0,27265.0,2,Long
2023-04-21,26600.0,715.0,27315.0,2,Long
2023-04-23,26600.0,541.0,27141.0,2,Long
2023-04-24,26600.0,759.0,27359.0,2,Long
2023-04-25,26600.0,231.0,26831.0,2,Long
2023-04-26,26600.0,-243.0,26357.0,2,Long
2023-04-27,26600.0,627.0,27227.0,2,Long
2023-04-28,26600.0,1467.0,28067.0,4,Long
2023-04-30,26600.0,1451.0,28051.0,4,Long
2023-05-01,26600.0,1199.0,27799.0,4,Long
2023-05-02,26600.0,-93.0,26507.0,4,Long
2023-05-03,26600.0,-1285.0,25315.0,4,Long
2023-05-04,25315.0,0.0,25315.0,0,
2023-05-05,25315.0,0.0,25315.0,0,
2023-05-07,25315.0,0.0,25315.0,0,
2023-05-08,25315.0,0.0,25315.0,0,
2023-05-09,25315.0,0.0,25315.0,0,
2023-05-10,25315.0,0.0,25315.0,0,
2023-05-11,25315.0,0.0,25315.0,0,
2023-05-12,25315.0,0.0,25315.0,0,
2023-05-14,25315.0,0.0,25315.0,0,
2023-05-15,25315.0,0.0,25315.0,0,
2023-05-16,25315.0,0.0,25315.0,0,
2023-05-17,25315.0,0.0,25315.0,0,
2023-05-18,25315.0,0.0,25315.0,0,
2023-05-19,25315.0,0.0,25315.0,0,
2023-05-21,25315.0,0.0,25315.0,0,
2023-05-22,25315.0,0.0,25315.0,0,
2023-05-23,25315.0,0.0,25315.0,0,
2023-05-24,25315.0,0.0,25315.0,0,
2023-05-25,25315.0,0.0,25315.0,0,
2023-05-26,25315.0,0.0,25315.0,0,
2023-05-28,25315.0,0.0,25315.0,0,
2023-05-29,25315.0,0.0,25315.0,0,
2023-05-30,25315.0,0.0,25315.0,0,
2023-05-31,25315.0,0.0,25315.0,0,
2023-06-01,25315.0,0.0,25315.0,0,
2023-06-02,25315.0,658.0,25973.0,1,Long
2023-06-04,25315.0,673.0,25988.0,1,Long
2023-06-05,25315.0,456.0,25771.0,1,Long
2023-06-06,25315.0,473.0,25788.0,1,Long
2023-06-07,25315.0,503.0,25818.0,1,Long
2023-06-08,25315.0,662.0,25977.0,1,Long
2023-06-09,25315.0,729.0,26044.0,1,Long
2023-06-11,25315.0,749.0,26064.0,1,Long
2023-06-12,25315.0,1249.0,26564.0,1,Long
2023-06-13,25315.0,1288.0,26603.0,1,Long
2023-06-14,25315.0,1106.0,26421.0,1,Long
2023-06-15,25315.0,1537.0,26852.0,1,Long
2023-06-16,25315.0,1381.0,26696.0,2,Long
2023-06-18,25315.0,1277.0,26592.0,2,Long
2023-06-19,25315.0,1147.0,26462.0,2,Long
2023-06-20,25315.0,889.0,26204.0,2,Long
2023-06-21,25315.0,645.0,25960.0,2,Long
2023-06-22,25315.0,331.0,25646.0,2,Long
2023-06-23,25315.0,123.0,25438.0,2,Long
2023-06-25,25315.0,287.0,25602.0,2,Long
2023-06-26,25315.0,245.0,25560.0,2,Long
2023-06-27,25315.0,537.0,25852.0,2,Long
2023-06-28,25315.0,443.0,25758.0,2,Long
2023-06-29,25315.0,865.0,26180.0,2,Long
2023-06-30,25315.0,1271.0,26586.0,4,Long
2023-07-02,25315.0,1387.0,26702.0,4,Long
2023-07-03,25315.0,1395.0,26710.0,4,Long
2023-07-04,25315.0,1223.0,26538.0,4,Long
2023-07-05,25315.0,431.0,25746.0,4,Long
2023-07-06,25315.0,-645.0,24670.0,4,Long
2023-07-07,25315.0,-1297.0,24018.0,4,Long
2023-07-09,25315.0,-1613.0,23702.0,4,Long
2023-07-10,25315.0,-545.0,24770.0,4,Long
2023-07-11,25315.0,607.0,25922.0,4,Long
2023-07-12,25315.0,1287.0,26602.0,4,Long
2023-07-13,25315.0,979.0,26294.0,4,Long
2023-07-14,25315.0,1439.0,26754.0,6,Long
2023-07-16,25315.0,1421.0,26736.0,6,Long
2023-07-17,25315.0,2003.0,27318.0,6,Long
2023-07-18,25315.0,4433.0,29748.0,6,Long
2023-07-19,25315.0,5003.0,30318.0,6,Long
2023-07-20,25315.0,6179.0,31494.0,6,Long
2023-07-21,25315.0,5783.0,31098.0,6,Long
2023-07-23,25315.0,5765.0,31080.0,6,Long
2023-07-24,25315.0,6893.0,32208.0,6,Long
2023-07-25,25315.0,6923.0,32238.0,6,Long
2023-07-26,25315.0,7649.0,32964.0,6,Long
2023-07-27,25315.0,6155.0,31470.0,6,Long
2023-07-28,25315.0,6969.0,32284.0,8,Long
2023-07-30,25315.0,6569.0,31884.0,8,Long
2023-07-31,25315.0,7905.0,33220.0,8,Long
2023-08-01,25315.0,7481.0,32796.0,8,Long
2023-08-02,25315.0,6089.0,31404.0,8,Long
2023-08-03,25315.0,5321.0,30636.0,8,Long
2023-08-04,25315.0,3513.0,28828.0,8,Long
2023-08-06,25315.0,4385.0,29700.0,8,Long
2023-08-07,25315.0,6297.0,31612.0,8,Long
2023-08-08,25315.0,5409.0,30724.0,8,Long
2023-08-09,25315.0,5049.0,30364.0,8,Long
2023-08-10,25315.0,4377.0,29692.0,8,Long
2023-08-11,25315.0,5318.0,30633.0,9,Long
2023-08-13,25315.0,4517.0,29832.0,9,Long
2023-08-14,25315.0,5516.0,30831.0,9,Long
2023-08-15,25315.0,2159.0,27474.0,9,Long
2023-08-16,27483.0,0.0,27483.0,0,
2023-08-17,27483.0,0.0,27483.0,0,
2023-08-18,27483.0,0.0,27483.0,0,
2023-08-20,27483.0,0.0,27483.0,0,
2023-08-21,27483.0,0.0,27483.0,0,
2023-08-22,27483.0,0.0,27483.0,0,
2023-08-23,27483.0,0.0,27483.0,0,
2023-08-24,27483.0,0.0,27483.0,0,
2023-08-25,27483.0,0.0,27483.0,0,
2023-08-27,27483.0,0.0,27483.0,0,
2023-08-28,27483.0,0.0,27483.0,0,
2023-08-29,27483.0,0.0,27483.0,0,
2023-08-30,27483.0,0.0,27483.0,0,
2023-08-31,27483.0,0.0,27483.0,0,
2023-09-01,27483.0,0.0,27483.0,0,
2023-09-03,27483.0,0.0,27483.0,0,
2023-09-04,27483.0,0.0,27483.0,0,
2023-09-05,27483.0,0.0,27483.0,0,
2023-09-06,27483.0,0.0,27483.0,0,
2023-09-07,27483.0,0.0,27483.0,0,
2023-09-08,27483.0,0.0,27483.0,0,
2023-09-10,27483.0,0.0,27483.0,0,
2023-09-11,27483.0,0.0,27483.0,0,
2023-09-12,27483.0,0.0,27483.0,0,
2023-09-13,27483.0,0.0,27483.0,0,
2023-09-14,27483.0,345.0,27828.0,1,Long
2023-09-15,27483.0,-47.0,27436.0,1,Long
2023-09-17,27434.0,0.0,27434.0,0,
2023-09-18,27434.0,0.0,27434.0,0,
2023-09-19,27434.0,0.0,27434.0,0,
2023-09-20,27434.0,0.0,27434.0,0,
2023-09-21,27434.0,0.0,27434.0,0,
2023-09-22,27434.0,0.0,27434.0,0,
2023-09-24,27434.0,0.0,27434.0,0,
2023-09-25,27434.0,0.0,27434.0,0,
2023-09-26,27434.0,0.0,27434.0,0,
2023-09-27,27434.0,0.0,27434.0,0,
2023-09-28,27434.0,0.0,27434.0,0,
2023-09-29,27434.0,0.0,27434.0,0,
2023-10-01,27434.0,0.0,27434.0,0,
2023-10-02,27434.0,0.0,27434.0,0,
2023-10-03,27434.0,0.0,27434.0,0,
2023-10-04,27434.0,0.0,27434.0,0,
2023-10-05,27434.0,0.0,27434.0,0,
2023-10-06,27434.0,0.0,27434.0,0,
2023-10-08,27434.0,0.0,27434.0,0,
2023-10-09,27434.0,0.0,27434.0,0,
2023-10-10,27434.0,0.0,27434.0,0,
2023-10-11,27434.0,0.0,27434.0,0,
2023-10-12,27434.0,0.0,27434.0,0,
2023-10-13,27434.0,0.0,27434.0,0,
2023-10-15,27434.0,0.0,27434.0,0,
2023-10-16,27434.0,0.0,27434.0,0,
2023-10-17,27434.0,0.0,27434.0,0,
2023-10-18,27434.0,0.0,27434.0,0,
2023-10-19,27434.0,0.0,27434.0,0,
2023-10-20,27434.0,0.0,27434.0,0,
2023-10-22,27434.0,0.0,27434.0,0,
2023-10-23,27434.0,0.0,27434.0,0,
2023-10-24,27434.0,0.0,27434.0,0,
2023-10-25,27434.0,0.0,27434.0,0,
2023-10-26,27434.0,0.0,27434.0,0,
2023-10-27,27434.0,0.0,27434.0,0,
2023-10-29,27434.0,0.0,27434.0,0,
2023-10-30,27434.0,0.0,27434.0,0,
2023-10-31,27434.0,0.0,27434.0,0,
2023-11-01,27434.0,0.0,27434.0,0,
2023-11-02,27434.0,576.0,28010.0,1,Long
2023-11-03,27434.0,790.0,28224.0,1,Long
2023-11-05,27434.0,785.0,28219.0,1,Long
2023-11-06,27434.0,705.0,28139.0,1,Long
2023-11-07,27434.0,819.0,28253.0,1,Long
2023-11-08,27434.0,800.0,28234.0,1,Long
2023-11-09,27434.0,621.0,28055.0,1,Long
2023-11-10,27434.0,885.0,28319.0,2,Long
2023-11-12,27434.0,713.0,28147.0,2,Long
2023-11-13,27434.0,1059.0,28493.0,2,Long
2023-11-14,27434.0,2167.0,29601.0,2,Long
2023-11-15,27434.0,2315.0,29749.0,2,Long
2023-11-16,27434.0,2403.0,29837.0,2,Long
2023-11-17,27434.0,2265.0,29699.0,2,Long
2023-11-19,27434.0,2289.0,29723.0,2,Long
2023-11-20,27434.0,2745.0,30179.0,2,Long
2023-11-21,27434.0,2643.0,30077.0,2,Long
2023-11-22,27434.0,2887.0,30321.0,2,Long
2023-11-23,27434.0,2963.0,30397.0,2,Long
2023-11-24,27434.0,3159.0,30593.0,4,Long
2023-11-26,27434.0,2819.0,30253.0,4,Long
2023-11-27,27434.0,2943.0,30377.0,4,Long
2023-11-28,27434.0,3419.0,30853.0,4,Long
2023-11-29,27434.0,3887.0,31321.0,4,Long
2023-11-30,27434.0,5547.0,32981.0,4,Long
2023-12-01,27434.0,6727.0,34161.0,4,Long
2023-12-03,27434.0,6643.0,34077.0,4,Long
2023-12-04,27434.0,6247.0,33681.0,4,Long
2023-12-05,27434.0,6455.0,33889.0,4,Long
2023-12-06,27434.0,5763.0,33197.0,4,Long
2023-12-07,27434.0,6155.0,33589.0,4,Long
2023-12-08,27434.0,6519.0,33953.0,6,Long
2023-12-10,27434.0,8643.0,36077.0,6,Long
2023-12-11,27434.0,9723.0,37157.0,6,Long
2023-12-12,27434.0,10869.0,38303.0,6,Long
2023-12-13,27434.0,14361.0,41795.0,6,Long
2023-12-14,27434.0,14961.0,42395.0,6,Long
2023-12-15,27434.0,14799.0,42233.0,6,Long
2023-12-17,27434.0,15237.0,42671.0,6,Long
2023-12-18,27434.0,14823.0,42257.0,6,Long
2023-12-19,27434.0,16407.0,43841.0,6,Long
2023-12-20,27434.0,14001.0,41435.0,6,Long
2023-12-21,27434.0,14589.0,42023.0,6,Long
2023-12-22,27434.0,15043.0,42477.0,8,Long
2023-12-25,27434.0,15675.0,43109.0,8,Long
2023-12-26,27434.0,16531.0,43965.0,8,Long
2023-12-27,27434.0,17499.0,44933.0,8,Long
2023-12-28,27434.0,17779.0,45213.0,8,Long
2023-12-29,27434.0,17131.0,44565.0,8,Long
2024-01-01,27434.0,17699.0,45133.0,8,Long
2024-01-02,27434.0,17187.0,44621.0,8,Long
2024-01-03,27434.0,15211.0,42645.0,8,Long
2024-01-04,27434.0,15315.0,42749.0,8,Long
2024-01-05,27434.0,15083.0,42517.0,9,Long
2024-01-07,27434.0,13994.0,41428.0,9,Long
2024-01-08,27434.0,16631.0,44065.0,9,Long
2024-01-09,27434.0,15137.0,42571.0,9,Long
2024-01-10,27434.0,17612.0,45046.0,9,Long
2024-01-11,27434.0,16712.0,44146.0,9,Long
2024-01-12,27434.0,15497.0,42931.0,9,Long
2024-01-14,27434.0,16073.0,43507.0,9,Long
2024-01-15,27434.0,14786.0,42220.0,9,Long
2024-01-16,27434.0,13148.0,40582.0,9,Long
2024-01-17,27434.0,12464.0,39898.0,9,Long
2024-01-18,27434.0,14336.0,41770.0,9,Long
2024-01-19,27434.0,18148.0,45582.0,10,Long
2024-01-21,27434.0,18698.0,46132.0,10,Long
2024-01-22,27434.0,19468.0,46902.0,10,Long
2024-01-23,27434.0,18698.0,46132.0,10,Long
2024-01-24,27434.0,18138.0,45572.0,10,Long
2024-01-25,27434.0,18388.0,45822.0,10,Long
2024-01-26,27434.0,20108.0,47542.0,10,Long
2024-01-28,27434.0,19618.0,47052.0,10,Long
2024-01-29,27434.0,22008.0,49442.0,10,Long
2024-01-30,27434.0,23978.0,51412.0,10,Long
2024-01-31,27434.0,21018.0,48452.0,10,Long
2024-02-01,27434.0,23958.0,51392.0,10,Long
2024-02-02,27434.0,25058.0,52492.0,10,Long
2024-02-04,27434.0,24438.0,51872.0,10,Long
2024-02-05,27434.0,22308.0,49742.0,10,Long
2024-02-06,27434.0,23898.0,51332.0,10,Long
2024-02-07,27434.0,25468.0,52902.0,10,Long
2024-02-08,27434.0,25548.0,52982.0,10,Long
2024-02-09,27434.0,24828.0,52262.0,10,Long
2024-02-11,27434.0,25038.0,52472.0,10,Long
2024-02-12,27434.0,25938.0,53372.0,10,Long
2024-02-13,27434.0,20818.0,48252.0,10,Long
2024-02-14,27434.0,22608.0,50042.0,10,Long
2024-02-15,27434.0,25628.0,53062.0,10,Long
2024-02-16,27434.0,24248.0,51682.0,10,Long
2024-02-18,27434.0,24848.0,52282.0,10,Long
2024-02-19,27434.0,23508.0,50942.0,10,Long
2024-02-20,27434.0,23678.0,51112.0,10,Long
2024-02-21,27434.0,24908.0,52342.0,10,Long
2024-02-22,27434.0,29368.0,56802.0,10,Long
2024-02-23,27434.0,29168.0,56602.0,10,Long
2024-02-25,27434.0,29058.0,56492.0,10,Long
2024-02-26,27434.0,28648.0,56082.0,10,Long
2024-02-27,27434.0,27528.0,54962.0,10,Long
2024-02-28,27434.0,27648.0,55082.0,10,Long
2024-02-29,27434.0,28298.0,55732.0,10,Long
2024-03-01,27434.0,28458.0,55892.0,10,Long
2024-03-03,27434.0,28498.0,55932.0,10,Long
2024-03-04,27434.0,27288.0,54722.0,10,Long
2024-03-05,27434.0,23708.0,51142.0,10,Long
2024-03-06,27434.0,24258.0,51692.0,10,Long
2024-03-07,27434.0,25748.0,53182.0,10,Long
2024-03-08,27434.0,25448.0,52882.0,10,Long
2024-03-10,27434.0,28988.0,56422.0,10,Long
2024-03-11,27434.0,30408.0,57842.0,10,Long
2024-03-12,27434.0,32158.0,59592.0,10,Long
2024-03-13,27434.0,33108.0,60542.0,10,Long
2024-03-14,27434.0,31068.0,58502.0,10,Long
2024-03-15,27434.0,29058.0,56492.0,10,Long
2024-03-17,27434.0,29318.0,56752.0,10,Long
2024-03-18,27434.0,29698.0,57132.0,10,Long
2024-03-19,27434.0,32898.0,60332.0,10,Long
2024-03-20,27434.0,38198.0,65632.0,10,Long
2024-03-21,27434.0,39868.0,67302.0,10,Long
2024-03-22,27434.0,35908.0,63342.0,10,Long
2024-03-24,27434.0,35728.0,63162.0,10,Long
2024-03-25,27434.0,34858.0,62292.0,10,Long
2024-03-26,27434.0,35548.0,62982.0,10,Long
2024-03-27,27434.0,38768.0,66202.0,10,Long
2024-03-28,27434.0,39068.0,66502.0,10,Long
2024-03-31,27434.0,40828.0,68262.0,10,Long
2024-04-01,27434.0,35308.0,62742.0,10,Long
2024-04-02,27434.0,32248.0,59682.0,10,Long
2024-04-03,27434.0,33018.0,60452.0,10,Long
2024-04-04,60472.0,0.0,60472.0,0,
2024-04-05,60472.0,0.0,60472.0,0,
2024-04-07,60472.0,0.0,60472.0,0,
2024-04-08,60472.0,0.0,60472.0,0,
2024-04-09,60472.0,0.0,60472.0,0,
2024-04-10,60472.0,0.0,60472.0,0,
2024-04-11,60472.0,0.0,60472.0,0,
2024-04-12,60472.0,0.0,60472.0,0,
2024-04-14,60472.0,0.0,60472.0,0,
2024-04-15,60472.0,0.0,60472.0,0,
2024-04-16,60472.0,0.0,60472.0,0,
2024-04-17,60472.0,0.0,60472.0,0,
2024-04-18,60472.0,0.0,60472.0,0,
2024-04-19,60472.0,0.0,60472.0,0,
2024-04-21,60472.0,0.0,60472.0,0,
2024-04-22,60472.0,0.0,60472.0,0,
2024-04-23,60472.0,0.0,60472.0,0,
2024-04-24,60472.0,0.0,60472.0,0,
2024-04-25,60472.0,0.0,60472.0,0,
2024-04-26,60472.0,0.0,60472.0,0,
2024-04-28,60472.0,0.0,60472.0,0,
2024-04-29,60472.0,0.0,60472.0,0,
2024-04-30,60472.0,0.0,60472.0,0,
2024-05-01,60472.0,0.0,60472.0,0,
2024-05-02,60472.0,0.0,60472.0,0,
2024-05-03,60472.0,0.0,60472.0,0,
2024-05-05,60472.0,0.0,60472.0,0,
2024-05-06,60472.0,0.0,60472.0,0,
2024-05-07,60472.0,0.0,60472.0,0,
2024-05-08,60472.0,0.0,60472.0,0,
2024-05-09,60472.0,402.0,60874.0,1,Long
2024-05-10,60472.0,452.0,60924.0,1,Long
2024-05-12,60472.0,475.0,60947.0,1,Long
2024-05-13,60472.0,386.0,60858.0,1,Long
2024-05-14,60472.0,551.0,61023.0,1,Long
2024-05-15,60472.0,957.0,61429.0,1,Long
2024-05-16,60472.0,821.0,61293.0,1,Long
2024-05-17,60472.0,996.0,61468.0,2,Long
2024-05-19,60472.0,1072.0,61544.0,2,Long
2024-05-20,60472.0,620.0,61092.0,2,Long
2024-05-21,60472.0,756.0,61228.0,2,Long
2024-05-22,60472.0,432.0,60904.0,2,Long
2024-05-23,60904.0,0.0,60904.0,0,
2024-05-24,60904.0,0.0,60904.0,0,
2024-05-26,60904.0,0.0,60904.0,0,
2024-05-27,60904.0,0.0,60904.0,0,
2024-05-28,60904.0,0.0,60904.0,0,
2024-05-29,60904.0,0.0,60904.0,0,
2024-05-30,60904.0,0.0,60904.0,0,
2024-05-31,60904.0,0.0,60904.0,0,
2024-06-02,60904.0,0.0,60904.0,0,
2024-06-03,60904.0,0.0,60904.0,0,
2024-06-04,60904.0,0.0,60904.0,0,
2024-06-05,60904.0,0.0,60904.0,0,
2024-06-06,60904.0,0.0,60904.0,0,
2024-06-07,60904.0,0.0,60904.0,0,
2024-06-09,60904.0,0.0,60904.0,0,
2024-06-10,60904.0,0.0,60904.0,0,
2024-06-11,60904.0,0.0,60904.0,0,
2024-06-12,60904.0,0.0,60904.0,0,
2024-06-13,60904.0,0.0,60904.0,0,
2024-06-14,60904.0,0.0,60904.0,0,
2024-06-16,60904.0,0.0,60904.0,0,
2024-06-17,60904.0,273.0,61177.0,1,Long
2024-06-18,60904.0,266.0,61170.0,1,Long
2024-06-19,60904.0,266.0,61170.0,1,Long
2024-06-20,60904.0,591.0,61495.0,1,Long
2024-06-21,60904.0,596.0,61500.0,1,Long
2024-06-23,60904.0,514.0,61418.0,1,Long
2024-06-24,60904.0,927.0,61831.0,1,Long
2024-06-25,60904.0,526.0,61430.0,1,Long
2024-06-26,60904.0,431.0,61335.0,1,Long
2024-06-27,60904.0,565.0,61469.0,1,Long
2024-06-28,60904.0,644.0,61548.0,2,Long
2024-06-30,60904.0,632.0,61536.0,2,Long
2024-07-01,60904.0,486.0,61390.0,2,Long
2024-07-02,60904.0,872.0,61776.0,2,Long
2024-07-03,60904.0,854.0,61758.0,2,Long
2024-07-04,60904.0,950.0,61854.0,2,Long
2024-07-05,60904.0,908.0,61812.0,2,Long
2024-07-07,60904.0,864.0,61768.0,2,Long
2024-07-08,60904.0,1046.0,61950.0,2,Long
2024-07-09,60904.0,756.0,61660.0,2,Long
2024-07-10,60904.0,1674.0,62578.0,2,Long
2024-07-11,60904.0,1814.0,62718.0,2,Long
2024-07-12,60904.0,2188.0,63092.0,4,Long
2024-07-14,60904.0,2356.0,63260.0,4,Long
2024-07-15,60904.0,3160.0,64064.0,4,Long
2024-07-16,60904.0,6036.0,66940.0,4,Long
2024-07-17,60904.0,7260.0,68164.0,4,Long
2024-07-18,60904.0,4804.0,65708.0,4,Long
2024-07-19,60904.0,3072.0,63976.0,4,Long
2024-07-21,60904.0,3200.0,64104.0,4,Long
2024-07-22,60904.0,3480.0,64384.0,4,Long
2024-07-23,60904.0,2964.0,63868.0,4,Long
2024-07-24,63880.0,0.0,63880.0,0,
2024-07-25,63880.0,0.0,63880.0,0,
2024-07-26,63880.0,0.0,63880.0,0,
2024-07-28,63880.0,0.0,63880.0,0,
2024-07-29,63880.0,0.0,63880.0,0,
2024-07-30,63880.0,0.0,63880.0,0,
2024-07-31,63880.0,0.0,63880.0,0,
2024-08-01,63880.0,0.0,63880.0,0,
2024-08-02,63880.0,0.0,63880.0,0,
2024-08-04,63880.0,0.0,63880.0,0,
2024-08-05,63880.0,0.0,63880.0,0,
2024-08-06,63880.0,0.0,63880.0,0,
2024-08-07,63880.0,0.0,63880.0,0,
2024-08-08,63880.0,0.0,63880.0,0,
2024-08-09,63880.0,0.0,63880.0,0,
2024-08-11,63880.0,0.0,63880.0,0,
2024-08-12,63880.0,0.0,63880.0,0,
2024-08-13,63880.0,0.0,63880.0,0,
2024-08-14,63880.0,0.0,63880.0,0,
2024-08-15,63880.0,558.0,64438.0,1,Long
2024-08-16,63880.0,616.0,64496.0,1,Long
2024-08-18,63880.0,623.0,64503.0,1,Long
2024-08-19,63880.0,814.0,64694.0,1,Long
2024-08-20,63880.0,816.0,64696.0,1,Long
2024-08-21,63880.0,782.0,64662.0,1,Long
2024-08-22,63880.0,711.0,64591.0,1,Long
2024-08-23,63880.0,1094.0,64974.0,2,Long
2024-08-25,63880.0,1024.0,64904.0,2,Long
2024-08-26,63880.0,1176.0,65056.0,2,Long
2024-08-27,63880.0,1262.0,65142.0,2,Long
2024-08-28,63880.0,1096.0,64976.0,2,Long
2024-08-29,63880.0,1446.0,65326.0,2,Long
2024-08-30,63880.0,1828.0,65708.0,2,Long
2024-09-01,63880.0,1790.0,65670.0,2,Long
2024-09-02,63880.0,1708.0,65588.0,2,Long
2024-09-03,63880.0,328.0,64208.0,2,Long
2024-09-04,63880.0,582.0,64462.0,2,Long
2024-09-05,63880.0,254.0,64134.0,2,Long
2024-09-06,64128.0,0.0,64128.0,0,
2024-09-08,64128.0,0.0,64128.0,0,
2024-09-09,64128.0,0.0,64128.0,0,
2024-09-10,64128.0,0.0,64128.0,0,
2024-09-11,64128.0,0.0,64128.0,0,
2024-09-12,64128.0,0.0,64128.0,0,
2024-09-13,64128.0,0.0,64128.0,0,
2024-09-15,64128.0,0.0,64128.0,0,
2024-09-16,64128.0,158.0,64286.0,1,Long
2024-09-17,64128.0,208.0,64336.0,1,Long
2024-09-18,64128.0,317.0,64445.0,1,Long
2024-09-19,64128.0,569.0,64697.0,1,Long
2024-09-20,64128.0,570.0,64698.0,1,Long
2024-09-22,64128.0,641.0,64769.0,1,Long
2024-09-23,64128.0,558.0,64686.0,1,Long
2024-09-24,64128.0,642.0,64770.0,1,Long
2024-09-25,64128.0,508.0,64636.0,1,Long
2024-09-26,64128.0,670.0,64798.0,1,Long
2024-09-27,64128.0,698.0,64826.0,2,Long
2024-09-29,64128.0,804.0,64932.0,2,Long
2024-09-30,64128.0,716.0,64844.0,2,Long
2024-10-01,64128.0,290.0,64418.0,2,Long
2024-10-02,64128.0,376.0,64504.0,2,Long
2024-10-03,64128.0,76.0,64204.0,2,Long
2024-10-04,64128.0,716.0,64844.0,2,Long
2024-10-06,64128.0,724.0,64852.0,2,Long
2024-10-07,64128.0,-120.0,64008.0,2,Long
2024-10-08,64128.0,120.0,64248.0,2,Long
2024-10-09,64128.0,1120.0,65248.0,2,Long
2024-10-10,64128.0,968.0,65096.0,2,Long
2024-10-11,64128.0,1518.0,65646.0,4,Long
2024-10-13,64128.0,1678.0,65806.0,4,Long
2024-10-14,64128.0,2782.0,66910.0,4,Long
2024-10-15,64128.0,1162.0,65290.0,4,Long
2024-10-16,64128.0,2234.0,66362.0,4,Long
2024-10-17,64128.0,3022.0,67150.0,4,Long
2024-10-18,64128.0,3238.0,67366.0,4,Long
2024-10-20,64128.0,3286.0,67414.0,4,Long
2024-10-21,64128.0,1554.0,65682.0,4,Long
2024-10-22,64128.0,1242.0,65370.0,4,Long
2024-10-23,64128.0,-206.0,63922.0,4,Long
2024-10-24,64128.0,-562.0,63566.0,4,Long
2024-10-25,63578.0,0.0,63578.0,0,
2024-10-27,63578.0,0.0,63578.0,0,
2024-10-28,63578.0,0.0,63578.0,0,
2024-10-29,63578.0,0.0,63578.0,0,
2024-10-30,63578.0,0.0,63578.0,0,
2024-10-31,63578.0,0.0,63578.0,0,
2024-11-01,63578.0,0.0,63578.0,0,
2024-11-03,63578.0,0.0,63578.0,0,
2024-11-04,63578.0,0.0,63578.0,0,
2024-11-05,63578.0,0.0,63578.0,0,
2024-11-06,63578.0,1066.0,64644.0,1,Long
2024-11-07,63578.0,955.0,64533.0,1,Long
2024-11-08,63578.0,1199.0,64777.0,1,Long
2024-11-10,63578.0,1235.0,64813.0,1,Long
2024-11-11,63578.0,1451.0,65029.0,1,Long
2024-11-12,63578.0,1077.0,64655.0,1,Long
2024-11-13,63578.0,1142.0,64720.0,1,Long
2024-11-14,63578.0,857.0,64435.0,1,Long
2024-11-15,63578.0,703.0,64281.0,2,Long
2024-11-17,63578.0,677.0,64255.0,2,Long
2024-11-18,63578.0,737.0,64315.0,2,Long
2024-11-19,63578.0,511.0,64089.0,2,Long
2024-11-20,63578.0,529.0,64107.0,2,Long
2024-11-21,63578.0,1513.0,65091.0,2,Long
2024-11-22,63578.0,2427.0,66005.0,2,Long
2024-11-24,63578.0,2827.0,66405.0,2,Long
2024-11-25,63578.0,3203.0,66781.0,2,Long
2024-11-26,63578.0,3487.0,67065.0,2,Long
2024-11-27,63578.0,3301.0,66879.0,2,Long
2024-11-28,63578.0,3465.0,67043.0,2,Long
2024-11-29,63578.0,3645.0,67223.0,4,Long
2024-12-01,63578.0,3325.0,66903.0,4,Long
2024-12-02,63578.0,3013.0,66591.0,4,Long
2024-12-03,63578.0,3193.0,66771.0,4,Long
2024-12-04,63578.0,3773.0,67351.0,4,Long
2024-12-05,63578.0,2725.0,66303.0,4,Long
2024-12-06,63578.0,2189.0,65767.0,4,Long
2024-12-08,63578.0,2105.0,65683.0,4,Long
2024-12-09,63578.0,1265.0,64843.0,4,Long
2024-12-10,63578.0,713.0,64291.0,4,Long
2024-12-11,63578.0,-47.0,63531.0,4,Long
2024-12-12,63578.0,-643.0,62935.0,4,Long
2024-12-13,62939.0,0.0,62939.0,0,
2024-12-15,62939.0,0.0,62939.0,0,
2024-12-16,62939.0,0.0,62939.0,0,
2024-12-17,62939.0,0.0,62939.0,0,
2024-12-18,62939.0,0.0,62939.0,0,
2024-12-19,62939.0,0.0,62939.0,0,
2024-12-20,62939.0,0.0,62939.0,0,
2024-12-22,62939.0,0.0,62939.0,0,
2024-12-23,62939.0,0.0,62939.0,0,
2024-12-24,62939.0,0.0,62939.0,0,
2024-12-25,62939.0,0.0,62939.0,0,
2024-12-26,62939.0,0.0,62939.0,0,
2024-12-27,62939.0,0.0,62939.0,0,
2024-12-29,62939.0,0.0,62939.0,0,
2024-12-30,62939.0,0.0,62939.0,0,
2024-12-31,62939.0,0.0,62939.0,0,
2025-01-01,62939.0,0.0,62939.0,0,
2025-01-02,62939.0,0.0,62939.0,0,
2025-01-03,62939.0,0.0,62939.0,0,
2025-01-05,62939.0,0.0,62939.0,0,
2025-01-06,62939.0,0.0,62939.0,0,
2025-01-07,62939.0,0.0,62939.0,0,
2025-01-08,62939.0,0.0,62939.0,0,
2025-01-09,62939.0,0.0,62939.0,0,
2025-01-10,62939.0,0.0,62939.0,0,
2025-01-12,62939.0,0.0,62939.0,0,
2025-01-13,62939.0,0.0,62939.0,0,
2025-01-14,62939.0,0.0,62939.0,0,
2025-01-15,62939.0,721.0,63660.0,1,Long
2025-01-16,62939.0,650.0,63589.0,1,Long
2025-01-17,62939.0,904.0,63843.0,1,Long
2025-01-19,62939.0,931.0,63870.0,1,Long
2025-01-20,62939.0,1040.0,63979.0,1,Long
2025-01-21,62939.0,1487.0,64426.0,1,Long
2025-01-22,62939.0,1564.0,64503.0,1,Long
2025-01-23,62939.0,1946.0,64885.0,1,Long
2025-01-24,62939.0,1854.0,64793.0,2,Long
2025-01-26,62939.0,1536.0,64475.0,2,Long
2025-01-27,62939.0,2336.0,65275.0,2,Long
2025-01-28,62939.0,2724.0,65663.0,2,Long
2025-01-29,62939.0,2638.0,65577.0,2,Long
2025-01-30,62939.0,2866.0,65805.0,2,Long
2025-01-31,62939.0,2072.0,65011.0,2,Long
2025-02-02,62939.0,712.0,63651.0,2,Long
2025-02-03,62939.0,1856.0,64795.0,2,Long
2025-02-04,62939.0,1862.0,64801.0,2,Long
2025-02-05,62939.0,2850.0,65789.0,2,Long
2025-02-06,62939.0,2334.0,65273.0,2,Long
2025-02-07,62939.0,1484.0,64423.0,4,Long
2025-02-09,62939.0,1768.0,64707.0,4,Long
2025-02-10,62939.0,1856.0,64795.0,4,Long
2025-02-11,62939.0,2544.0,65483.0,4,Long
2025-02-12,62939.0,1984.0,64923.0,4,Long
2025-02-13,62939.0,3268.0,66207.0,4,Long
2025-02-14,62939.0,2368.0,65307.0,4,Long
2025-02-16,62939.0,2524.0,65463.0,4,Long
2025-02-17,62939.0,2544.0,65483.0,4,Long
2025-02-18,62939.0,2556.0,65495.0,4,Long
2025-02-19,62939.0,2272.0,65211.0,4,Long
2025-02-20,62939.0,864.0,63803.0,4,Long
2025-02-21,63811.0,0.0,63811.0,0,
2025-02-23,63811.0,0.0,63811.0,0,
2025-02-24,63811.0,0.0,63811.0,0,
2025-02-25,63811.0,0.0,63811.0,0,
2025-02-26,63811.0,0.0,63811.0,0,
2025-02-27,63811.0,0.0,63811.0,0,
2025-02-28,63811.0,0.0,63811.0,0,
2025-03-02,63811.0,0.0,63811.0,0,
2025-03-03,63811.0,0.0,63811.0,0,
2025-03-04,63811.0,0.0,63811.0,0,
2025-03-05,63811.0,0.0,63811.0,0,
2025-03-06,63811.0,0.0,63811.0,0,
2025-03-07,63811.0,0.0,63811.0,0,
2025-03-09,63811.0,0.0,63811.0,0,
2025-03-10,63811.0,0.0,63811.0,0,
2025-03-11,63811.0,0.0,63811.0,0,
2025-03-12,63811.0,0.0,63811.0,0,
2025-03-13,63811.0,0.0,63811.0,0,
2025-03-14,63811.0,0.0,63811.0,0,
2025-03-16,63811.0,0.0,63811.0,0,
2025-03-17,63811.0,0.0,63811.0,0,
2025-03-18,63811.0,0.0,63811.0,0,
2025-03-19,63811.0,0.0,63811.0,0,
2025-03-20,63811.0,0.0,63811.0,0,
2025-03-21,63811.0,0.0,63811.0,0,
2025-03-23,63811.0,0.0,63811.0,0,
2025-03-24,63811.0,0.0,63811.0,0,
2025-03-25,63811.0,0.0,63811.0,0,
2025-03-26,63811.0,0.0,63811.0,0,
2025-03-27,63811.0,0.0,63811.0,0,
2025-03-28,63811.0,0.0,63811.0,0,
2025-03-30,63811.0,0.0,63811.0,0,
2025-03-31,63811.0,0.0,63811.0,0,
2025-04-01,63811.0,0.0,63811.0,0,
2025-04-02,63811.0,0.0,63811.0,0,
2025-04-03,63811.0,0.0,63811.0,0,
2025-04-04,63811.0,0.0,63811.0,0,
2025-04-06,63811.0,0.0,63811.0,0,
2025-04-07,63811.0,0.0,63811.0,0,
2025-04-08,63811.0,0.0,63811.0,0,
2025-04-09,63811.0,3575.0,67386.0,1,Long
2025-04-10,63811.0,2525.0,66336.0,1,Long
2025-04-11,63811.0,3221.0,67032.0,1,Long
2025-04-13,63811.0,3285.0,67096.0,1,Long
2025-04-14,63811.0,3503.0,67314.0,1,Long
2025-04-15,63811.0,3212.0,67023.0,1,Long
2025-04-16,63811.0,2888.0,66699.0,1,Long
2025-04-17,63811.0,2183.0,65994.0,1,Long
2025-04-20,63811.0,1777.0,65588.0,1,Long
2025-04-21,63811.0,1224.0,65035.0,1,Long
2025-04-22,63811.0,2582.0,66393.0,1,Long
2025-04-23,63811.0,2438.0,66249.0,1,Long
2025-04-24,63811.0,3080.0,66891.0,1,Long
2025-04-25,63811.0,3143.0,66954.0,2,Long
2025-04-27,63811.0,2747.0,66558.0,2,Long
2025-04-28,63811.0,3421.0,67232.0,2,Long
2025-04-29,63811.0,3703.0,67514.0,2,Long
2025-04-30,63811.0,4609.0,68420.0,2,Long
2025-05-01,63811.0,5001.0,68812.0,2,Long
2025-05-02,63811.0,5469.0,69280.0,2,Long
2025-05-04,63811.0,4907.0,68718.0,2,Long
2025-05-05,63811.0,5183.0,68994.0,2,Long
2025-05-06,63811.0,4877.0,68688.0,2,Long
2025-05-07,63811.0,5477.0,69288.0,2,Long
2025-05-08,63811.0,5547.0,69358.0,2,Long
2025-05-09,63811.0,5419.0,69230.0,4,Long
2025-05-11,63811.0,7079.0,70890.0,4,Long
2025-05-12,63811.0,9455.0,73266.0,4,Long
2025-05-13,63811.0,8879.0,72690.0,4,Long
2025-05-14,63811.0,7755.0,71566.0,4,Long
2025-05-15,63811.0,9503.0,73314.0,4,Long
2025-05-16,63811.0,10103.0,73914.0,4,Long
2025-05-18,63811.0,9555.0,73366.0,4,Long
2025-05-19,63811.0,11255.0,75066.0,4,Long
2025-05-20,63811.0,10555.0,74366.0,4,Long
2025-05-21,63811.0,7715.0,71526.0,4,Long
2025-05-22,63811.0,7767.0,71578.0,4,Long
2025-05-23,63811.0,6509.0,70320.0,6,Long
2025-05-25,63811.0,8735.0,72546.0,6,Long
2025-05-26,63811.0,8471.0,72282.0,6,Long
2025-05-27,63811.0,10799.0,74610.0,6,Long
2025-05-28,63811.0,12683.0,76494.0,6,Long
2025-05-29,63811.0,9791.0,73602.0,6,Long
2025-05-30,63811.0,10133.0,73944.0,6,Long
2025-06-01,63811.0,9317.0,73128.0,6,Long
2025-06-02,63811.0,9815.0,73626.0,6,Long
2025-06-03,63811.0,11891.0,75702.0,6,Long
2025-06-04,63811.0,11351.0,75162.0,6,Long
2025-06-05,63811.0,11411.0,75222.0,6,Long
2025-06-06,63811.0,13501.0,77312.0,8,Long
2025-06-08,63811.0,12797.0,76608.0,8,Long
2025-06-09,63811.0,14213.0,78024.0,8,Long
2025-06-10,63811.0,13357.0,77168.0,8,Long
2025-06-11,63811.0,12901.0,76712.0,8,Long
2025-06-12,63811.0,10149.0,73960.0,8,Long
2025-06-13,63811.0,8261.0,72072.0,8,Long
2025-06-15,63811.0,11221.0,75032.0,8,Long
2025-06-16,63811.0,12677.0,76488.0,8,Long
2025-06-17,63811.0,11309.0,75120.0,8,Long
2025-06-18,63811.0,10525.0,74336.0,8,Long
2025-06-19,63811.0,10021.0,73832.0,8,Long
2025-06-20,63811.0,11507.0,75318.0,9,Long
2025-06-22,63811.0,9824.0,73635.0,9,Long
2025-06-23,63811.0,16475.0,80286.0,9,Long
2025-06-24,63811.0,19148.0,82959.0,9,Long
2025-06-25,63811.0,18428.0,82239.0,9,Long
2025-06-26,63811.0,22532.0,86343.0,9,Long
2025-06-27,63811.0,26582.0,90393.0,9,Long
2025-06-29,63811.0,27698.0,91509.0,9,Long
2025-06-30,63811.0,27536.0,91347.0,9,Long
2025-07-01,63811.0,32180.0,95991.0,9,Long
2025-07-02,63811.0,31595.0,95406.0,9,Long
2025-07-03,63811.0,33251.0,97062.0,9,Long
2025-07-04,63811.0,31928.0,95739.0,10,Long
2025-07-06,63811.0,33268.0,97079.0,10,Long
2025-07-07,63811.0,29818.0,93629.0,10,Long
2025-07-08,63811.0,28168.0,91979.0,10,Long
2025-07-09,63811.0,29638.0,93449.0,10,Long
2025-07-10,63811.0,31228.0,95039.0,10,Long
2025-07-11,63811.0,29108.0,92919.0,10,Long
2025-07-13,63811.0,27568.0,91379.0,10,Long
2025-07-14,63811.0,30098.0,93909.0,10,Long
2025-07-15,63811.0,25218.0,89029.0,10,Long
2025-07-16,63811.0,27378.0,91189.0,10,Long
2025-07-17,63811.0,31488.0,95299.0,10,Long
2025-07-18,63811.0,28868.0,92679.0,10,Long
2025-07-20,63811.0,29228.0,93039.0,10,Long
2025-07-21,63811.0,29418.0,93229.0,10,Long
2025-07-22,63811.0,31738.0,95549.0,10,Long
2025-07-23,63811.0,34338.0,98149.0,10,Long
2025-07-24,63811.0,33788.0,97599.0,10,Long
2025-07-25,63811.0,34358.0,98169.0,10,Long
2025-07-27,63811.0,36088.0,99899.0,10,Long
2025-07-28,63811.0,34018.0,97829.0,10,Long
2025-07-29,63811.0,31988.0,95799.0,10,Long
2025-07-30,63811.0,31048.0,94859.0,10,Long
2025-07-31,63811.0,25938.0,89749.0,10,Long
2025-08-01,89719.0,0.0,89719.0,0,
2025-08-03,89719.0,0.0,89719.0,0,
2025-08-04,89719.0,0.0,89719.0,0,
2025-08-05,89719.0,0.0,89719.0,0,
2025-08-06,89719.0,0.0,89719.0,0,
2025-08-07,89719.0,0.0,89719.0,0,
2025-08-08,89719.0,0.0,89719.0,0,
2025-08-10,89719.0,0.0,89719.0,0,
2025-08-11,89719.0,0.0,89719.0,0,
2025-08-12,89719.0,0.0,89719.0,0,
2025-08-13,89719.0,0.0,89719.0,0,
2025-08-14,89719.0,268.0,89987.0,1,Long
2025-08-15,89719.0,-4.0,89715.0,1,Long
2025-08-17,89721.0,0.0,89721.0,0,
2025-08-18,89721.0,-148.0,89573.0,1,Long
2025-08-19,89575.0,0.0,89575.0,0,
2025-08-20,89575.0,0.0,89575.0,0,
2025-08-21,89575.0,0.0,89575.0,0,
2025-08-22,89575.0,0.0,89575.0,0,
2025-08-24,89575.0,-61.0,89514.0,1,Long
2025-08-25,89575.0,-432.0,89143.0,1,Long
2025-08-26,89575.0,-194.0,89381.0,1,Long
2025-08-27,89575.0,0.0,89575.0,1,Long
2025-08-28,89575.0,-86.0,89489.0,1,Long
2025-08-29,89575.0,-94.0,89481.0,1,Long
2025-08-31,89575.0,-125.0,89450.0,1,Long
2025-09-01,89575.0,-134.0,89441.0,1,Long
2025-09-02,89575.0,-515.0,89060.0,1,Long
2025-09-03,89575.0,-461.0,89114.0,1,Long
2025-09-04,89575.0,-27.0,89548.0,1,Long
2025-09-05,89575.0,-253.0,89322.0,2,Long
2025-09-07,89575.0,-171.0,89404.0,2,Long
2025-09-08,89575.0,65.0,89640.0,2,Long
2025-09-09,89575.0,239.0,89814.0,2,Long
2025-09-10,89575.0,-39.0,89536.0,2,Long
2025-09-11,89575.0,1117.0,90692.0,2,Long
2025-09-12,89575.0,529.0,90104.0,2,Long
2025-09-14,89575.0,1247.0,90822.0,2,Long
2025-09-15,89575.0,1389.0,90964.0,2,Long
2025-09-16,89575.0,995.0,90570.0,2,Long
2025-09-17,89575.0,1821.0,91396.0,2,Long
2025-09-18,89575.0,1943.0,91518.0,2,Long
2025-09-19,89575.0,1879.0,91454.0,4,Long
2025-09-21,89575.0,1847.0,91422.0,4,Long
2025-09-22,89575.0,2335.0,91910.0,4,Long
2025-09-23,89575.0,2175.0,91750.0,4,Long
2025-09-24,89575.0,1571.0,91146.0,4,Long
2025-09-25,89575.0,543.0,90118.0,4,Long
2025-09-26,89575.0,1675.0,91250.0,4,Long
2025-09-28,89575.0,2131.0,91706.0,4,Long
2025-09-29,89575.0,1855.0,91430.0,4,Long
2025-09-30,89575.0,1435.0,91010.0,4,Long
2025-10-01,89575.0,2291.0,91866.0,4,Long
2025-10-02,89575.0,2987.0,92562.0,4,Long
2025-10-03,89575.0,3507.0,93082.0,6,Long
2025-10-05,89575.0,4035.0,93610.0,6,Long
2025-10-06,89575.0,2457.0,92032.0,6,Long
2025-10-07,89575.0,2703.0,92278.0,6,Long
2025-10-08,89575.0,2151.0,91726.0,6,Long
2025-10-09,89575.0,1125.0,90700.0,6,Long
2025-10-10,90706.0,0.0,90706.0,0,
2025-10-12,90706.0,0.0,90706.0,0,
2025-10-13,90706.0,0.0,90706.0,0,
2025-10-14,90706.0,0.0,90706.0,0,
2025-10-15,90706.0,0.0,90706.0,0,
2025-10-16,90706.0,0.0,90706.0,0,
2025-10-17,90706.0,0.0,90706.0,0,
2025-10-19,90706.0,0.0,90706.0,0,
2025-10-20,90706.0,0.0,90706.0,0,
2025-10-21,90706.0,0.0,90706.0,0,
2025-10-22,90706.0,0.0,90706.0,0,
2025-10-23,90706.0,0.0,90706.0,0,
2025-10-24,90706.0,413.0,91119.0,1,Long
2025-10-26,90706.0,685.0,91391.0,1,Long
2025-10-27,90706.0,741.0,91447.0,1,Long
2025-10-28,90706.0,871.0,91577.0,1,Long
2025-10-29,90706.0,907.0,91613.0,1,Long
2025-10-30,90706.0,729.0,91435.0,1,Long
2025-10-31,90706.0,757.0,91463.0,1,Long
2025-11-02,90706.0,800.0,91506.0,1,Long
2025-11-03,90706.0,332.0,91038.0,1,Long
2025-11-04,90706.0,267.0,90973.0,1,Long
2025-11-05,90706.0,455.0,91161.0,1,Long
2025-11-06,90706.0,85.0,90791.0,1,Long
2025-11-07,90706.0,358.0,91064.0,2,Long
2025-11-09,90706.0,358.0,91064.0,2,Long
2025-11-10,90706.0,982.0,91688.0,2,Long
2025-11-11,90706.0,2172.0,92878.0,2,Long
2025-11-12,90706.0,2994.0,93700.0,2,Long
2025-11-13,90706.0,1140.0,91846.0,2,Long
2025-11-14,90706.0,588.0,91294.0,2,Long
2025-11-16,90706.0,594.0,91300.0,2,Long
2025-11-17,91300.0,0.0,91300.0,0,
2025-11-18,91300.0,0.0,91300.0,0,
2025-11-19,91300.0,0.0,91300.0,0,
2025-11-20,91300.0,0.0,91300.0,0,
2025-11-21,91300.0,0.0,91300.0,0,
2025-11-23,91300.0,0.0,91300.0,0,
2025-11-24,91300.0,0.0,91300.0,0,
2025-11-25,91300.0,0.0,91300.0,0,
2025-11-26,91300.0,0.0,91300.0,0,
2025-11-27,91300.0,0.0,91300.0,0,
2025-11-28,91300.0,0.0,91300.0,0,
2025-11-30,91300.0,0.0,91300.0,0,
2025-12-01,91300.0,0.0,91300.0,0,
2025-12-02,91300.0,0.0,91300.0,0,
2025-12-03,91300.0,357.0,91657.0,1,Long
2025-12-04,91300.0,281.0,91581.0,1,Long
2025-12-05,91300.0,350.0,91650.0,1,Long
2025-12-07,91300.0,357.0,91657.0,1,Long
2025-12-08,91300.0,140.0,91440.0,1,Long
2025-12-09,91300.0,-18.0,91282.0,1,Long
2025-12-10,91282.0,0.0,91282.0,0,
2025-12-11,91282.0,934.0,92216.0,1,Long
2025-12-12,91282.0,606.0,91888.0,1,Long
2025-12-14,91282.0,1112.0,92394.0,1,Long
2025-12-15,91282.0,813.0,92095.0,1,Long
2025-12-16,91282.0,506.0,91788.0,1,Long
2025-12-17,91282.0,302.0,91584.0,1,Long
2025-12-18,91282.0,321.0,91603.0,1,Long
2025-12-19,91282.0,619.0,91901.0,2,Long
2025-12-21,91282.0,639.0,91921.0,2,Long
2025-12-22,91282.0,925.0,92207.0,2,Long
2025-12-23,91282.0,1085.0,92367.0,2,Long
2025-12-24,91282.0,1679.0,92961.0,2,Long
2025-12-25,91282.0,1709.0,92991.0,2,Long
2025-12-26,91282.0,1649.0,92931.0,2,Long
2025-12-28,91282.0,1629.0,92911.0,2,Long
2025-12-29,91282.0,1149.0,92431.0,2,Long
2025-12-30,91282.0,895.0,92177.0,2,Long
2025-12-31,91282.0,325.0,91607.0,2,Long
2026-01-01,91282.0,539.0,91821.0,2,Long
2026-01-02,91282.0,961.0,92243.0,4,Long
2026-01-04,91282.0,1093.0,92375.0,4,Long
2026-01-05,91282.0,3549.0,94831.0,4,Long
2026-01-06,91282.0,5753.0,97035.0,4,Long
2026-01-07,91282.0,3189.0,94471.0,4,Long
2026-01-08,91282.0,4565.0,95847.0,4,Long
2026-01-09,91282.0,5497.0,96779.0,4,Long
2026-01-11,91282.0,4477.0,95759.0,4,Long
2026-01-12,91282.0,5761.0,97043.0,4,Long
2026-01-13,91282.0,3669.0,94951.0,4,Long
2026-01-14,91282.0,3773.0,95055.0,4,Long
2026-01-15,91282.0,5549.0,96831.0,4,Long
2026-01-16,91282.0,4809.0,96091.0,6,Long
2026-01-18,91282.0,2535.0,93817.0,6,Long
2026-01-19,91282.0,1959.0,93241.0,6,Long
2026-01-20,91282.0,63.0,91345.0,6,Long
2026-01-21,91282.0,3615.0,94897.0,6,Long
2026-01-22,91282.0,5055.0,96337.0,6,Long
2026-01-23,91282.0,2553.0,93835.0,6,Long
2026-01-25,91282.0,2289.0,93571.0,6,Long
2026-01-26,91282.0,4581.0,95863.0,6,Long
2026-01-27,91282.0,2349.0,93631.0,6,Long
2026-01-28,91282.0,2223.0,93505.0,6,Long
2026-01-29,91282.0,1347.0,92629.0,6,Long
2026-01-30,91282.0,1165.0,92447.0,8,Long
2026-02-01,91282.0,-1491.0,89791.0,8,Long
2026-02-02,91282.0,5853.0,97135.0,8,Long
2026-02-03,91282.0,4533.0,95815.0,8,Long
2026-02-04,91282.0,5573.0,96855.0,8,Long
2026-02-05,91282.0,309.0,91591.0,8,Long
2026-02-06,91282.0,10925.0,102207.0,8,Long
2026-02-08,91282.0,11565.0,102847.0,8,Long
2026-02-09,91282.0,11205.0,102487.0,8,Long
2026-02-10,91282.0,12453.0,103735.0,8,Long
2026-02-11,91282.0,12117.0,103399.0,8,Long
2026-02-12,91282.0,5293.0,96575.0,8,Long
2026-02-13,91282.0,5511.0,96793.0,9,Long
2026-02-15,91282.0,6555.0,97837.0,9,Long
2026-02-16,91282.0,4629.0,95911.0,9,Long
2026-02-17,91282.0,6627.0,97909.0,9,Long
2026-02-18,91282.0,7077.0,98359.0,9,Long
2026-02-19,91282.0,5457.0,96739.0,9,Long
2026-02-20,91282.0,6906.0,98188.0,9,Long
2026-02-22,91282.0,3999.0,95281.0,9,Long
2026-02-23,91282.0,201.0,91483.0,9,Long
2026-02-24,91282.0,2874.0,94156.0,9,Long
2026-02-25,91282.0,4791.0,96073.0,9,Long
2026-02-26,91282.0,3423.0,94705.0,9,Long
2026-02-27,91282.0,-97.0,91185.0,10,Long
2026-03-01,87275.0,0.0,87275.0,0,
2026-03-02,87275.0,0.0,87275.0,0,
2026-03-03,87275.0,0.0,87275.0,0,
2026-03-04,87275.0,0.0,87275.0,0,
2026-03-05,87275.0,0.0,87275.0,0,
2026-03-06,87275.0,0.0,87275.0,0,
2026-03-08,87275.0,0.0,87275.0,0,
