date,realized_points,open_unrealized_points,total_equity_points,open_units,direction
2019-05-05,0.0,0.0,0.0,0,
2019-05-06,0.0,0.0,0.0,0,
2019-05-07,0.0,0.0,0.0,0,
2019-05-08,0.0,0.0,0.0,0,
2019-05-09,0.0,0.0,0.0,0,
2019-05-10,0.0,0.0,0.0,0,
2019-05-12,0.0,0.0,0.0,0,
2019-05-13,0.0,0.0,0.0,0,
2019-05-14,0.0,0.0,0.0,0,
2019-05-15,0.0,0.0,0.0,0,
2019-05-16,0.0,0.0,0.0,0,
2019-05-17,0.0,0.0,0.0,0,
2019-05-19,0.0,0.0,0.0,0,
2019-05-20,0.0,0.0,0.0,0,
2019-05-21,0.0,0.0,0.0,0,
2019-05-22,0.0,0.0,0.0,0,
2019-05-23,0.0,0.0,0.0,0,
2019-05-24,0.0,0.0,0.0,0,
2019-05-26,0.0,0.0,0.0,0,
2019-05-27,0.0,0.0,0.0,0,
2019-05-28,0.0,0.0,0.0,0,
2019-05-29,0.0,0.0,0.0,0,
2019-05-30,0.0,0.0,0.0,0,
2019-05-31,0.0,0.0,0.0,0,
2019-06-02,0.0,0.0,0.0,0,
2019-06-03,0.0,0.0,0.0,0,
2019-06-04,0.0,0.0,0.0,0,
2019-06-05,0.0,0.0,0.0,0,
2019-06-06,0.0,0.0,0.0,0,
2019-06-07,0.0,0.0,0.0,0,
2019-06-09,0.0,-5.25,-5.25,1,Long
2019-06-10,-5.25,0.0,-5.25,0,
2019-06-11,-5.25,6.25,1.0,1,Long
2019-06-12,-5.25,-18.0,-23.25,1,Long
2019-06-13,-5.25,-12.25,-17.5,1,Long
2019-06-14,-5.25,-23.75,-29.0,1,Long
2019-06-16,-5.25,18.25,13.0,1,Long
2019-06-17,-5.25,55.0,49.75,1,Long
2019-06-18,-5.25,177.25,172.0,1,Long
2019-06-19,-5.25,219.5,214.25,1,Long
2019-06-20,-5.25,256.0,250.75,1,Long
2019-06-21,-5.25,238.5,233.25,2,Long
2019-06-23,-5.25,286.0,280.75,2,Long
2019-06-24,-5.25,263.5,258.25,2,Long
2019-06-25,-5.25,-2.0,-7.25,2,Long
2019-06-26,-5.25,53.0,47.75,2,Long
2019-06-27,-5.25,137.0,131.75,2,Long
2019-06-28,-5.25,193.5,188.25,2,Long
2019-06-30,-5.25,350.5,345.25,2,Long
2019-07-01,-5.25,300.5,295.25,2,Long
2019-07-02,-5.25,416.5,411.25,2,Long
2019-07-03,-5.25,525.5,520.25,2,Long
2019-07-04,-5.25,554.0,548.75,2,Long
2019-07-05,-5.25,455.0,449.75,4,Long
2019-07-07,-5.25,407.0,401.75,4,Long
2019-07-08,-5.25,212.0,206.75,4,Long
2019-07-09,-5.25,424.0,418.75,4,Long
2019-07-10,-5.25,745.0,739.75,4,Long
2019-07-11,-5.25,723.0,717.75,4,Long
2019-07-12,-5.25,868.0,862.75,4,Long
2019-07-14,-5.25,844.0,838.75,4,Long
2019-07-15,-5.25,1014.0,1008.75,4,Long
2019-07-16,-5.25,802.0,796.75,4,Long
2019-07-17,-5.25,528.0,522.75,4,Long
2019-07-18,-5.25,819.0,813.75,4,Long
2019-07-19,-5.25,312.0,306.75,6,Long
2019-07-21,-5.25,504.0,498.75,6,Long
2019-07-22,-5.25,970.5,965.25,6,Long
2019-07-23,-5.25,1119.0,1113.75,6,Long
2019-07-24,-5.25,1498.5,1493.25,6,Long
2019-07-25,-5.25,1354.5,1349.25,6,Long
2019-07-26,-5.25,1488.0,1482.75,6,Long
2019-07-28,-5.25,1506.0,1500.75,6,Long
2019-07-29,-5.25,1458.0,1452.75,6,Long
2019-07-30,-5.25,1335.0,1329.75,6,Long
2019-07-31,-5.25,423.0,417.75,6,Long
2019-08-01,-5.25,112.5,107.25,6,Long
2019-08-02,113.25,0.0,113.25,0,
2019-08-04,113.25,0.0,113.25,0,
2019-08-05,113.25,0.0,113.25,0,
2019-08-06,113.25,0.0,113.25,0,
2019-08-07,113.25,0.0,113.25,0,
2019-08-08,113.25,0.0,113.25,0,
2019-08-09,113.25,0.0,113.25,0,
2019-08-11,113.25,0.0,113.25,0,
2019-08-12,113.25,0.0,113.25,0,
2019-08-13,113.25,0.0,113.25,0,
2019-08-14,113.25,0.0,113.25,0,
2019-08-15,113.25,0.0,113.25,0,
2019-08-16,113.25,0.0,113.25,0,
2019-08-18,113.25,0.0,113.25,0,
2019-08-19,113.25,0.0,113.25,0,
2019-08-20,113.25,0.0,113.25,0,
2019-08-21,113.25,0.0,113.25,0,
2019-08-22,113.25,0.0,113.25,0,
2019-08-23,113.25,0.0,113.25,0,
2019-08-25,113.25,0.0,113.25,0,
2019-08-26,113.25,0.0,113.25,0,
2019-08-27,113.25,0.0,113.25,0,
2019-08-28,113.25,0.0,113.25,0,
2019-08-29,113.25,0.0,113.25,0,
2019-08-30,113.25,0.0,113.25,0,
2019-09-01,113.25,0.0,113.25,0,
2019-09-02,113.25,0.0,113.25,0,
2019-09-03,113.25,0.0,113.25,0,
2019-09-04,113.25,0.0,113.25,0,
2019-09-05,113.25,0.0,113.25,0,
2019-09-06,113.25,-8.0,105.25,1,Long
2019-09-08,97.75,0.0,97.75,0,
2019-09-09,97.75,0.0,97.75,0,
2019-09-10,97.75,0.0,97.75,0,
2019-09-11,97.75,0.0,97.75,0,
2019-09-12,97.75,-18.75,79.0,1,Long
2019-09-13,97.75,-40.75,57.0,1,Long
2019-09-15,97.75,-112.75,-15.0,1,Long
2019-09-16,-15.0,0.0,-15.0,0,
2019-09-17,-15.0,26.0,11.0,1,Long
2019-09-18,-15.0,20.75,5.75,1,Long
2019-09-19,-15.0,41.75,26.75,1,Long
2019-09-20,-15.0,-53.5,-68.5,1,Long
2019-09-22,-66.5,0.0,-66.5,0,
2019-09-23,-66.5,9.0,-57.5,1,Long
2019-09-24,-66.5,-123.5,-190.0,1,Long
2019-09-25,-190.0,0.0,-190.0,0,
2019-09-26,-190.0,0.0,-190.0,0,
2019-09-27,-190.0,0.0,-190.0,0,
2019-09-29,-190.0,0.0,-190.0,0,
2019-09-30,-190.0,0.0,-190.0,0,
2019-10-01,-190.0,0.0,-190.0,0,
2019-10-02,-190.0,0.0,-190.0,0,
2019-10-03,-190.0,0.0,-190.0,0,
2019-10-04,-190.0,0.0,-190.0,0,
2019-10-06,-190.0,0.0,-190.0,0,
2019-10-07,-190.0,0.0,-190.0,0,
2019-10-08,-190.0,0.0,-190.0,0,
2019-10-09,-190.0,0.0,-190.0,0,
2019-10-10,-190.0,0.0,-190.0,0,
2019-10-11,-190.0,0.0,-190.0,0,
2019-10-13,-190.0,0.0,-190.0,0,
2019-10-14,-190.0,0.0,-190.0,0,
2019-10-15,-190.0,0.0,-190.0,0,
2019-10-16,-190.0,0.0,-190.0,0,
2019-10-17,-190.0,0.0,-190.0,0,
2019-10-18,-190.0,0.0,-190.0,0,
2019-10-20,-190.0,0.0,-190.0,0,
2019-10-21,-190.0,0.0,-190.0,0,
2019-10-22,-190.0,0.0,-190.0,0,
2019-10-23,-190.0,0.0,-190.0,0,
2019-10-24,-190.0,0.0,-190.0,0,
2019-10-25,-190.0,0.0,-190.0,0,
2019-10-27,-190.0,9.0,-181.0,1,Long
2019-10-28,-190.0,64.75,-125.25,1,Long
2019-10-29,-190.0,11.0,-179.0,1,Long
2019-10-30,-190.0,75.25,-114.75,1,Long
2019-10-31,-190.0,41.5,-148.5,1,Long
2019-11-01,-190.0,115.0,-75.0,1,Long
2019-11-03,-190.0,128.75,-61.25,1,Long
2019-11-04,-190.0,191.75,1.75,1,Long
2019-11-05,-190.0,165.25,-24.75,1,Long
2019-11-06,-190.0,155.25,-34.75,1,Long
2019-11-07,-190.0,189.25,-0.75,1,Long
2019-11-08,-190.0,212.0,22.0,2,Long
2019-11-10,-190.0,196.5,6.5,2,Long
2019-11-11,-190.0,180.0,-10.0,2,Long
2019-11-12,-190.0,221.0,31.0,2,Long
2019-11-13,-190.0,220.5,30.5,2,Long
2019-11-14,-190.0,235.0,45.0,2,Long
2019-11-15,-190.0,339.5,149.5,2,Long
2019-11-17,-190.0,312.5,122.5,2,Long
2019-11-18,-190.0,347.5,157.5,2,Long
2019-11-19,-190.0,327.5,137.5,2,Long
2019-11-20,-190.0,232.5,42.5,2,Long
2019-11-21,-190.0,232.0,42.0,2,Long
2019-11-22,-190.0,256.0,66.0,4,Long
2019-11-24,-190.0,355.0,165.0,4,Long
2019-11-25,-190.0,630.0,440.0,4,Long
2019-11-26,-190.0,734.0,544.0,4,Long
2019-11-27,-190.0,830.0,640.0,4,Long
2019-11-28,-190.0,925.0,735.0,4,Long
2019-11-29,-190.0,813.0,623.0,4,Long
2019-12-01,-190.0,852.0,662.0,4,Long
2019-12-02,-190.0,345.0,155.0,4,Long
2019-12-03,-190.0,175.0,-15.0,4,Long
2019-12-04,-190.0,291.0,101.0,4,Long
2019-12-05,-190.0,387.0,197.0,4,Long
2019-12-06,-190.0,741.0,551.0,6,Long
2019-12-08,-190.0,748.5,558.5,6,Long
2019-12-09,-190.0,471.0,281.0,6,Long
2019-12-10,-190.0,487.5,297.5,6,Long
2019-12-11,-190.0,810.0,620.0,6,Long
2019-12-12,-190.0,1333.5,1143.5,6,Long
2019-12-13,-190.0,1455.0,1265.0,6,Long
2019-12-15,-190.0,1534.5,1344.5,6,Long
2019-12-16,-190.0,1914.0,1724.0,6,Long
2019-12-17,-190.0,1941.0,1751.0,6,Long
2019-12-18,-190.0,2053.5,1863.5,6,Long
2019-12-19,-190.0,2401.5,2211.5,6,Long
2019-12-20,-190.0,2583.0,2393.0,8,Long
2019-12-22,-190.0,2679.0,2489.0,8,Long
2019-12-23,-190.0,2735.0,2545.0,8,Long
2019-12-24,-190.0,2741.0,2551.0,8,Long
2019-12-25,-190.0,2743.0,2553.0,8,Long
2019-12-26,-190.0,3365.0,3175.0,8,Long
2019-12-27,-190.0,3131.0,2941.0,8,Long
2019-12-29,-190.0,3283.0,3093.0,8,Long
2019-12-30,-190.0,2781.0,2591.0,8,Long
2019-12-31,-190.0,3073.0,2883.0,8,Long
2020-01-01,-190.0,3109.0,2919.0,8,Long
2020-01-02,-190.0,4091.0,3901.0,8,Long
2020-01-03,-190.0,3383.0,3193.0,9,Long
2020-01-05,-190.0,3092.75,2902.75,9,Long
2020-01-06,-190.0,3731.75,3541.75,9,Long
2020-01-07,-190.0,2858.75,2668.75,9,Long
2020-01-08,-190.0,4658.75,4468.75,9,Long
2020-01-09,-190.0,5230.25,5040.25,9,Long
2020-01-10,-190.0,4895.0,4705.0,9,Long
2020-01-12,-190.0,4978.25,4788.25,9,Long
2020-01-13,-190.0,6035.75,5845.75,9,Long
2020-01-14,-190.0,5369.75,5179.75,9,Long
2020-01-15,-190.0,5759.0,5569.0,9,Long
2020-01-16,-190.0,6402.5,6212.5,9,Long
2020-01-17,-190.0,6632.0,6442.0,10,Long
2020-01-19,-190.0,6767.0,6577.0,10,Long
2020-01-20,-190.0,6619.5,6429.5,10,Long
2020-01-21,-190.0,6702.0,6512.0,10,Long
2020-01-22,-190.0,6744.5,6554.5,10,Long
2020-01-23,-190.0,7619.5,7429.5,10,Long
2020-01-24,-190.0,6292.0,6102.0,10,Long
2020-01-26,-190.0,5064.5,4874.5,10,Long
2020-01-27,-190.0,4707.0,4517.0,10,Long
2020-01-28,-190.0,5919.5,5729.5,10,Long
2020-01-29,-190.0,6137.0,5947.0,10,Long
2020-01-30,-190.0,7099.5,6909.5,10,Long
2020-01-31,-190.0,5044.5,4854.5,10,Long
2020-02-02,-190.0,5122.0,4932.0,10,Long
2020-02-03,-190.0,5817.0,5627.0,10,Long
2020-02-04,-190.0,8299.5,8109.5,10,Long
2020-02-05,-190.0,8729.5,8539.5,10,Long
2020-02-06,-190.0,9587.0,9397.0,10,Long
2020-02-07,-190.0,8919.5,8729.5,10,Long
2020-02-09,-190.0,8482.0,8292.0,10,Long
2020-02-10,-190.0,10172.0,9982.0,10,Long
2020-02-11,-190.0,10332.0,10142.0,10,Long
2020-02-12,-190.0,10684.5,10494.5,10,Long
2020-02-13,-190.0,11017.0,10827.0,10,Long
2020-02-14,-190.0,11227.0,11037.0,10,Long
2020-02-16,-190.0,11559.5,11369.5,10,Long
2020-02-17,-190.0,10947.0,10757.0,10,Long
2020-02-18,-190.0,11562.0,11372.0,10,Long
2020-02-19,-190.0,12369.5,12179.5,10,Long
2020-02-20,-190.0,10647.0,10457.0,10,Long
2020-02-21,-190.0,9482.0,9292.0,10,Long
2020-02-23,8387.0,0.0,8387.0,0,
2020-02-24,8387.0,0.0,8387.0,0,
2020-02-25,8387.0,0.0,8387.0,0,
2020-02-26,8387.0,0.0,8387.0,0,
2020-02-27,8387.0,0.0,8387.0,0,
2020-02-28,8387.0,0.0,8387.0,0,
2020-03-01,8387.0,0.0,8387.0,0,
2020-03-02,8387.0,0.0,8387.0,0,
2020-03-03,8387.0,0.0,8387.0,0,
2020-03-04,8387.0,0.0,8387.0,0,
2020-03-05,8387.0,0.0,8387.0,0,
2020-03-06,8387.0,0.0,8387.0,0,
2020-03-08,8387.0,0.0,8387.0,0,
2020-03-09,8387.0,0.0,8387.0,0,
2020-03-10,8387.0,0.0,8387.0,0,
2020-03-11,8387.0,0.0,8387.0,0,
2020-03-12,8387.0,0.0,8387.0,0,
2020-03-13,8387.0,0.0,8387.0,0,
2020-03-15,8387.0,0.0,8387.0,0,
2020-03-16,8387.0,0.0,8387.0,0,
2020-03-17,8387.0,0.0,8387.0,0,
2020-03-18,8387.0,0.0,8387.0,0,
2020-03-19,8387.0,0.0,8387.0,0,
2020-03-20,8387.0,0.0,8387.0,0,
2020-03-22,8387.0,0.0,8387.0,0,
2020-03-23,8387.0,0.0,8387.0,0,
2020-03-24,8387.0,0.0,8387.0,0,
2020-03-25,8387.0,0.0,8387.0,0,
2020-03-26,8387.0,0.0,8387.0,0,
2020-03-27,8387.0,0.0,8387.0,0,
2020-03-29,8387.0,0.0,8387.0,0,
2020-03-30,8387.0,0.0,8387.0,0,
2020-03-31,8387.0,0.0,8387.0,0,
2020-04-01,8387.0,0.0,8387.0,0,
2020-04-02,8387.0,0.0,8387.0,0,
2020-04-03,8387.0,0.0,8387.0,0,
2020-04-05,8387.0,0.0,8387.0,0,
2020-04-06,8387.0,0.0,8387.0,0,
2020-04-07,8387.0,0.0,8387.0,0,
2020-04-08,8387.0,0.0,8387.0,0,
2020-04-09,8387.0,13.25,8400.25,1,Long
2020-04-12,8387.0,-108.25,8278.75,1,Long
2020-04-13,8278.75,0.0,8278.75,0,
2020-04-14,8278.75,307.25,8586.0,1,Long
2020-04-15,8278.75,166.5,8445.25,1,Long
2020-04-16,8278.75,567.0,8845.75,1,Long
2020-04-17,8278.75,441.75,8720.5,1,Long
2020-04-19,8278.75,380.75,8659.5,1,Long
2020-04-20,8278.75,364.0,8642.75,1,Long
2020-04-21,8278.75,91.75,8370.5,1,Long
2020-04-22,8278.75,250.25,8529.0,1,Long
2020-04-23,8278.75,186.0,8464.75,1,Long
2020-04-24,8278.75,401.0,8679.75,2,Long
2020-04-26,8278.75,373.5,8652.25,2,Long
2020-04-27,8278.75,513.5,8792.25,2,Long
2020-04-28,8278.75,402.0,8680.75,2,Long
2020-04-29,8278.75,1048.5,9327.25,2,Long
2020-04-30,8278.75,543.0,8821.75,2,Long
2020-05-01,8278.75,270.5,8549.25,2,Long
2020-05-03,8278.75,32.5,8311.25,2,Long
2020-05-04,8278.75,514.0,8792.75,2,Long
2020-05-05,8278.75,779.0,9057.75,2,Long
2020-05-06,8278.75,796.0,9074.75,2,Long
2020-05-07,8278.75,1149.0,9427.75,2,Long
2020-05-08,8278.75,1309.0,9587.75,4,Long
2020-05-10,8278.75,1438.0,9716.75,4,Long
2020-05-11,8278.75,1533.0,9811.75,4,Long
2020-05-12,8278.75,481.0,8759.75,4,Long
2020-05-13,8278.75,470.0,8748.75,4,Long
2020-05-14,8278.75,855.0,9133.75,4,Long
2020-05-15,8278.75,903.0,9181.75,4,Long
2020-05-17,8278.75,1083.0,9361.75,4,Long
2020-05-18,8278.75,1801.0,10079.75,4,Long
2020-05-19,8278.75,1697.0,9975.75,4,Long
2020-05-20,8278.75,2367.0,10645.75,4,Long
2020-05-21,8278.75,2035.0,10313.75,4,Long
2020-05-22,8278.75,2115.0,10393.75,6,Long
2020-05-24,8278.75,2314.5,10593.25,6,Long
2020-05-25,8278.75,2640.0,10918.75,6,Long
2020-05-26,8278.75,1945.5,10224.25,6,Long
2020-05-27,8278.75,2232.0,10510.75,6,Long
2020-05-28,8278.75,2088.0,10366.75,6,Long
2020-05-29,8278.75,3112.5,11391.25,6,Long
2020-05-31,8278.75,2622.0,10900.75,6,Long
2020-06-01,8278.75,2973.0,11251.75,6,Long
2020-06-02,8278.75,3628.5,11907.25,6,Long
2020-06-03,8278.75,3759.0,12037.75,6,Long
2020-06-04,8278.75,3291.0,11569.75,6,Long
2020-06-05,8278.75,4423.5,12702.25,8,Long
2020-06-07,8278.75,4929.5,13208.25,8,Long
2020-06-08,8278.75,5003.5,13282.25,8,Long
2020-06-09,8278.75,5877.5,14156.25,8,Long
2020-06-10,8278.75,6311.5,14590.25,8,Long
2020-06-11,8278.75,3393.5,11672.25,8,Long
2020-06-12,8278.75,3101.5,11380.25,8,Long
2020-06-14,8278.75,2269.5,10548.25,8,Long
2020-06-15,8278.75,4885.5,13164.25,8,Long
2020-06-16,8278.75,5835.5,14114.25,8,Long
2020-06-17,8278.75,5559.5,13838.25,8,Long
2020-06-18,8278.75,6129.5,14408.25,8,Long
2020-06-19,8278.75,5359.5,13638.25,9,Long
2020-06-21,8278.75,5184.0,13462.75,9,Long
2020-06-22,8278.75,7386.75,15665.5,9,Long
2020-06-23,8278.75,7665.75,15944.5,9,Long
2020-06-24,8278.75,5800.5,14079.25,9,Long
2020-06-25,8278.75,6995.25,15274.0,9,Long
2020-06-26,8278.75,4635.0,12913.75,9,Long
2020-06-28,8278.75,4482.0,12760.75,9,Long
2020-06-29,8278.75,5973.75,14252.5,9,Long
2020-06-30,8278.75,6351.75,14630.5,9,Long
2020-07-01,8278.75,8464.5,16743.25,9,Long
2020-07-02,8278.75,9189.0,17467.75,9,Long
2020-07-03,8278.75,8966.25,17245.0,10,Long
2020-07-05,8278.75,9643.75,17922.5,10,Long
2020-07-06,8278.75,12113.75,20392.5,10,Long
2020-07-07,8278.75,11216.25,19495.0,10,Long
2020-07-08,8278.75,12538.75,20817.5,10,Long
2020-07-09,8278.75,13256.25,21535.0,10,Long
2020-07-10,8278.75,14141.25,22420.0,10,Long
2020-07-12,8278.75,14481.25,22760.0,10,Long
2020-07-13,8278.75,12168.75,20447.5,10,Long
2020-07-14,8278.75,12888.75,21167.5,10,Long
2020-07-15,8278.75,12186.25,20465.0,10,Long
2020-07-16,8278.75,11381.25,19660.0,10,Long
2020-07-17,8278.75,11948.75,20227.5,10,Long
2020-07-19,8278.75,12188.75,20467.5,10,Long
2020-07-20,8278.75,15211.25,23490.0,10,Long
2020-07-21,8278.75,14446.25,22725.0,10,Long
2020-07-22,8278.75,13943.75,22222.5,10,Long
2020-07-23,8278.75,11541.25,19820.0,10,Long
2020-07-24,8278.75,10343.75,18622.5,10,Long
2020-07-26,8278.75,10103.75,18382.5,10,Long
2020-07-27,8278.75,12698.75,20977.5,10,Long
2020-07-28,8278.75,11353.75,19632.5,10,Long
2020-07-29,8278.75,12508.75,20787.5,10,Long
2020-07-30,8278.75,14768.75,23047.5,10,Long
2020-07-31,8278.75,14868.75,23147.5,10,Long
2020-08-02,8278.75,14831.25,23110.0,10,Long
2020-08-03,8278.75,16078.75,24357.5,10,Long
2020-08-04,8278.75,16451.25,24730.0,10,Long
2020-08-05,8278.75,16606.25,24885.0,10,Long
2020-08-06,8278.75,18238.75,26517.5,10,Long
2020-08-07,8278.75,17023.75,25302.5,10,Long
2020-08-09,8278.75,16786.25,25065.0,10,Long
2020-08-10,8278.75,16453.75,24732.5,10,Long
2020-08-11,8278.75,14941.25,23220.0,10,Long
2020-08-12,8278.75,17031.25,25310.0,10,Long
2020-08-13,8278.75,17766.25,26045.0,10,Long
2020-08-14,8278.75,17171.25,25450.0,10,Long
2020-08-16,8278.75,17328.75,25607.5,10,Long
2020-08-17,8278.75,18763.75,27042.5,10,Long
2020-08-18,8278.75,19878.75,28157.5,10,Long
2020-08-19,8278.75,18618.75,26897.5,10,Long
2020-08-20,8278.75,20708.75,28987.5,10,Long
2020-08-21,8278.75,21343.75,29622.5,10,Long
2020-08-23,8278.75,21548.75,29827.5,10,Long
2020-08-24,8278.75,22181.25,30460.0,10,Long
2020-08-25,8278.75,23181.25,31460.0,10,Long
2020-08-26,8278.75,25391.25,33670.0,10,Long
2020-08-27,8278.75,25406.25,33685.0,10,Long
2020-08-28,8278.75,25751.25,34030.0,10,Long
2020-08-30,8278.75,26191.25,34470.0,10,Long
2020-08-31,8278.75,26966.25,35245.0,10,Long
2020-09-01,8278.75,29318.75,37597.5,10,Long
2020-09-02,8278.75,29931.25,38210.0,10,Long
2020-09-03,38207.5,0.0,38207.5,0,
2020-09-04,38207.5,0.0,38207.5,0,
2020-09-06,38207.5,0.0,38207.5,0,
2020-09-07,38207.5,0.0,38207.5,0,
2020-09-08,38207.5,0.0,38207.5,0,
2020-09-09,38207.5,0.0,38207.5,0,
2020-09-10,38207.5,0.0,38207.5,0,
2020-09-11,38207.5,0.0,38207.5,0,
2020-09-13,38207.5,0.0,38207.5,0,
2020-09-14,38207.5,0.0,38207.5,0,
2020-09-15,38207.5,0.0,38207.5,0,
2020-09-16,38207.5,0.0,38207.5,0,
2020-09-17,38207.5,0.0,38207.5,0,
2020-09-18,38207.5,0.0,38207.5,0,
2020-09-20,38207.5,0.0,38207.5,0,
2020-09-21,38207.5,0.0,38207.5,0,
2020-09-22,38207.5,0.0,38207.5,0,
2020-09-23,38207.5,0.0,38207.5,0,
2020-09-24,38207.5,0.0,38207.5,0,
2020-09-25,38207.5,0.0,38207.5,0,
2020-09-27,38207.5,0.0,38207.5,0,
2020-09-28,38207.5,0.0,38207.5,0,
2020-09-29,38207.5,0.0,38207.5,0,
2020-09-30,38207.5,0.0,38207.5,0,
2020-10-01,38207.5,0.0,38207.5,0,
2020-10-02,38207.5,0.0,38207.5,0,
2020-10-04,38207.5,0.0,38207.5,0,
2020-10-05,38207.5,0.0,38207.5,0,
2020-10-06,38207.5,0.0,38207.5,0,
2020-10-07,38207.5,0.0,38207.5,0,
2020-10-08,38207.5,0.0,38207.5,0,
2020-10-09,38207.5,0.0,38207.5,0,
2020-10-11,38207.5,0.0,38207.5,0,
2020-10-12,38207.5,365.75,38573.25,1,Long
2020-10-13,38207.5,371.25,38578.75,1,Long
2020-10-14,38207.5,217.5,38425.0,1,Long
2020-10-15,38207.5,172.0,38379.5,1,Long
2020-10-16,38207.5,49.75,38257.25,1,Long
2020-10-18,38207.5,129.5,38337.0,1,Long
2020-10-19,38207.5,-28.5,38179.0,1,Long
2020-10-20,38179.25,0.0,38179.25,0,
2020-10-21,38179.25,0.0,38179.25,0,
2020-10-22,38179.25,0.0,38179.25,0,
2020-10-23,38179.25,0.0,38179.25,0,
2020-10-25,38179.25,0.0,38179.25,0,
2020-10-26,38179.25,0.0,38179.25,0,
2020-10-27,38179.25,0.0,38179.25,0,
2020-10-28,38179.25,0.0,38179.25,0,
2020-10-29,38179.25,0.0,38179.25,0,
2020-10-30,38179.25,0.0,38179.25,0,
2020-11-01,38179.25,0.0,38179.25,0,
2020-11-02,38179.25,0.0,38179.25,0,
2020-11-03,38179.25,0.0,38179.25,0,
2020-11-04,38179.25,0.0,38179.25,0,
2020-11-05,38179.25,272.25,38451.5,1,Long
2020-11-06,38179.25,300.25,38479.5,1,Long
2020-11-08,38179.25,438.0,38617.25,1,Long
2020-11-09,38179.25,59.75,38239.0,1,Long
2020-11-10,38179.25,-197.0,37982.25,1,Long
2020-11-11,37981.75,0.0,37981.75,0,
2020-11-12,37981.75,-44.25,37937.5,1,Long
2020-11-13,37981.75,50.5,38032.25,1,Long
2020-11-15,37981.75,149.75,38131.5,1,Long
2020-11-16,37981.75,153.0,38134.75,1,Long
2020-11-17,37981.75,83.5,38065.25,1,Long
2020-11-18,37981.75,-15.25,37966.5,1,Long
2020-11-19,37981.75,41.75,38023.5,1,Long
2020-11-20,37981.75,15.5,37997.25,2,Long
2020-11-22,37981.75,56.0,38037.75,2,Long
2020-11-23,37981.75,97.0,38078.75,2,Long
2020-11-24,37981.75,445.5,38427.25,2,Long
2020-11-25,37981.75,552.5,38534.25,2,Long
2020-11-26,37981.75,502.5,38484.25,2,Long
2020-11-27,37981.75,740.5,38722.25,2,Long
2020-11-29,37981.75,827.0,38808.75,2,Long
2020-11-30,37981.75,891.0,38872.75,2,Long
2020-12-01,37981.75,1095.0,39076.75,2,Long
2020-12-02,37981.75,1125.5,39107.25,2,Long
2020-12-03,37981.75,1163.5,39145.25,2,Long
2020-12-04,37981.75,1213.5,39195.25,4,Long
2020-12-06,37981.75,1351.5,39333.25,4,Long
2020-12-07,37981.75,1473.5,39455.25,4,Long
2020-12-08,37981.75,1761.5,39743.25,4,Long
2020-12-09,37981.75,625.5,38607.25,4,Long
2020-12-10,37981.75,785.5,38767.25,4,Long
2020-12-11,37981.75,638.5,38620.25,4,Long
2020-12-13,37981.75,838.5,38820.25,4,Long
2020-12-14,37981.75,1090.5,39072.25,4,Long
2020-12-15,37981.75,1552.5,39534.25,4,Long
2020-12-16,37981.75,1903.5,39885.25,4,Long
2020-12-17,37981.75,2172.5,40154.25,4,Long
2020-12-18,37981.75,2165.5,40147.25,6,Long
2020-12-20,37981.75,2170.0,40151.75,6,Long
2020-12-21,37981.75,1883.5,39865.25,6,Long
2020-12-22,37981.75,1997.5,39979.25,6,Long
2020-12-23,37981.75,1604.5,39586.25,6,Long
2020-12-24,37981.75,1900.0,39881.75,6,Long
2020-12-27,37981.75,2081.5,40063.25,6,Long
2020-12-28,37981.75,2786.5,40768.25,6,Long
2020-12-29,37981.75,2743.0,40724.75,6,Long
2020-12-30,37981.75,2767.0,40748.75,6,Long
2020-12-31,37981.75,2981.5,40963.25,6,Long
2021-01-03,37981.75,2858.5,40840.25,6,Long
2021-01-04,37981.75,1724.5,39706.25,6,Long
2021-01-05,37981.75,2444.5,40426.25,6,Long
2021-01-06,37981.75,1712.5,39694.25,6,Long
2021-01-07,37981.75,3305.5,41287.25,6,Long
2021-01-08,37981.75,4423.0,42404.75,6,Long
2021-01-10,37981.75,4171.0,42152.75,6,Long
2021-01-11,37981.75,3208.0,41189.75,6,Long
2021-01-12,37981.75,3056.5,41038.25,6,Long
2021-01-13,37981.75,3496.0,41477.75,6,Long
2021-01-14,37981.75,3178.0,41159.75,6,Long
2021-01-15,37981.75,2258.5,40240.25,8,Long
2021-01-17,37981.75,2116.5,40098.25,8,Long
2021-01-18,37981.75,2800.5,40782.25,8,Long
2021-01-19,37981.75,4546.5,42528.25,8,Long
2021-01-20,37981.75,6664.5,44646.25,8,Long
2021-01-21,37981.75,7218.5,45200.25,8,Long
2021-01-22,37981.75,6962.5,44944.25,8,Long
2021-01-24,37981.75,7332.5,45314.25,8,Long
2021-01-25,37981.75,7844.5,45826.25,8,Long
2021-01-26,37981.75,8622.5,46604.25,8,Long
2021-01-27,37981.75,3972.5,41954.25,8,Long
2021-01-28,37981.75,5242.5,43224.25,8,Long
2021-01-29,43226.25,0.0,43226.25,0,
2021-01-31,43226.25,0.0,43226.25,0,
2021-02-01,43226.25,0.0,43226.25,0,
2021-02-02,43226.25,0.0,43226.25,0,
2021-02-03,43226.25,0.0,43226.25,0,
2021-02-04,43226.25,0.0,43226.25,0,
2021-02-05,43226.25,50.75,43277.0,1,Long
2021-02-07,43226.25,85.75,43312.0,1,Long
2021-02-08,43226.25,128.5,43354.75,1,Long
2021-02-09,43226.25,134.5,43360.75,1,Long
2021-02-10,43226.25,100.75,43327.0,1,Long
2021-02-11,43226.25,178.0,43404.25,1,Long
2021-02-12,43226.25,268.75,43495.0,1,Long
2021-02-14,43226.25,272.75,43499.0,1,Long
2021-02-15,43226.25,305.0,43531.25,1,Long
2021-02-16,43226.25,178.5,43404.75,1,Long
2021-02-17,43226.25,150.0,43376.25,1,Long
2021-02-18,43226.25,62.5,43288.75,1,Long
2021-02-19,43226.25,19.0,43245.25,2,Long
2021-02-21,43226.25,59.0,43285.25,2,Long
2021-02-22,43285.25,0.0,43285.25,0,
2021-02-23,43285.25,0.0,43285.25,0,
2021-02-24,43285.25,0.0,43285.25,0,
2021-02-25,43285.25,0.0,43285.25,0,
2021-02-26,43285.25,0.0,43285.25,0,
2021-02-28,43285.25,0.0,43285.25,0,
2021-03-01,43285.25,0.0,43285.25,0,
2021-03-02,43285.25,0.0,43285.25,0,
2021-03-03,43285.25,0.0,43285.25,0,
2021-03-04,43285.25,0.0,43285.25,0,
2021-03-05,43285.25,0.0,43285.25,0,
2021-03-07,43285.25,0.0,43285.25,0,
2021-03-08,43285.25,0.0,43285.25,0,
2021-03-09,43285.25,0.0,43285.25,0,
2021-03-10,43285.25,0.0,43285.25,0,
2021-03-11,43285.25,0.0,43285.25,0,
2021-03-12,43285.25,0.0,43285.25,0,
2021-03-14,43285.25,0.0,43285.25,0,
2021-03-15,43285.25,0.0,43285.25,0,
2021-03-16,43285.25,0.0,43285.25,0,
2021-03-17,43285.25,0.0,43285.25,0,
2021-03-18,43285.25,0.0,43285.25,0,
2021-03-19,43285.25,0.0,43285.25,0,
2021-03-21,43285.25,0.0,43285.25,0,
2021-03-22,43285.25,0.0,43285.25,0,
2021-03-23,43285.25,0.0,43285.25,0,
2021-03-24,43285.25,0.0,43285.25,0,
2021-03-25,43285.25,0.0,43285.25,0,
2021-03-26,43285.25,0.0,43285.25,0,
2021-03-28,43285.25,0.0,43285.25,0,
2021-03-29,43285.25,0.0,43285.25,0,
2021-03-30,43285.25,0.0,43285.25,0,
2021-03-31,43285.25,0.0,43285.25,0,
2021-04-01,43285.25,0.0,43285.25,0,
2021-04-02,43285.25,0.0,43285.25,0,
2021-04-04,43285.25,0.0,43285.25,0,
2021-04-05,43285.25,0.0,43285.25,0,
2021-04-06,43285.25,-21.5,43263.75,1,Long
2021-04-07,43263.25,0.0,43263.25,0,
2021-04-08,43263.25,163.5,43426.75,1,Long
2021-04-09,43263.25,170.25,43433.5,1,Long
2021-04-11,43263.25,140.25,43403.5,1,Long
2021-04-12,43263.25,178.75,43442.0,1,Long
2021-04-13,43263.25,328.25,43591.5,1,Long
2021-04-14,43263.25,173.0,43436.25,1,Long
2021-04-15,43263.25,371.75,43635.0,1,Long
2021-04-16,43263.25,379.75,43643.0,2,Long
2021-04-18,43263.25,317.25,43580.5,2,Long
2021-04-19,43263.25,169.75,43433.0,2,Long
2021-04-20,43263.25,-172.75,43090.5,2,Long
2021-04-21,43263.25,101.75,43365.0,2,Long
2021-04-22,43263.25,-145.75,43117.5,2,Long
2021-04-23,43263.25,146.25,43409.5,2,Long
2021-04-25,43263.25,155.75,43419.0,2,Long
2021-04-26,43263.25,390.25,43653.5,2,Long
2021-04-27,43263.25,261.25,43524.5,2,Long
2021-04-28,43263.25,279.25,43542.5,2,Long
2021-04-29,43263.25,166.75,43430.0,2,Long
2021-04-30,43263.25,83.75,43347.0,4,Long
2021-05-02,43263.25,140.75,43404.0,4,Long
2021-05-03,43263.25,-302.25,42961.0,4,Long
2021-05-04,43263.25,-1280.25,41983.0,4,Long
2021-05-05,41983.0,0.0,41983.0,0,
2021-05-06,41983.0,0.0,41983.0,0,
2021-05-07,41983.0,0.0,41983.0,0,
2021-05-09,41983.0,20.5,42003.5,1,Long
2021-05-10,42003.75,0.0,42003.75,0,
2021-05-11,42003.75,0.0,42003.75,0,
2021-05-12,42003.75,0.0,42003.75,0,
2021-05-13,42003.75,0.0,42003.75,0,
2021-05-14,42003.75,0.0,42003.75,0,
2021-05-16,42003.75,0.0,42003.75,0,
2021-05-17,42003.75,0.0,42003.75,0,
2021-05-18,42003.75,0.0,42003.75,0,
2021-05-19,42003.75,0.0,42003.75,0,
2021-05-20,42003.75,0.0,42003.75,0,
2021-05-21,42003.75,0.0,42003.75,0,
2021-05-23,42003.75,0.0,42003.75,0,
2021-05-24,42003.75,0.0,42003.75,0,
2021-05-25,42003.75,0.0,42003.75,0,
2021-05-26,42003.75,0.0,42003.75,0,
2021-05-27,42003.75,0.0,42003.75,0,
2021-05-28,42003.75,0.0,42003.75,0,
2021-05-30,42003.75,0.0,42003.75,0,
2021-05-31,42003.75,0.0,42003.75,0,
2021-06-01,42003.75,0.0,42003.75,0,
2021-06-02,42003.75,0.0,42003.75,0,
2021-06-03,42003.75,0.0,42003.75,0,
2021-06-04,42003.75,0.0,42003.75,0,
2021-06-06,42003.75,-4.5,41999.25,1,Long
2021-06-07,41999.0,0.0,41999.0,0,
2021-06-08,41999.0,-5.5,41993.5,1,Long
2021-06-09,41999.0,-7.5,41991.5,1,Long
2021-06-10,41999.0,145.25,42144.25,1,Long
2021-06-11,41999.0,162.25,42161.25,1,Long
2021-06-13,41999.0,187.0,42186.0,1,Long
2021-06-14,41999.0,283.75,42282.75,1,Long
2021-06-15,41999.0,208.75,42207.75,1,Long
2021-06-16,41999.0,64.0,42063.0,1,Long
2021-06-17,41999.0,353.0,42352.0,1,Long
2021-06-18,41999.0,151.0,42150.0,2,Long
2021-06-20,41999.0,191.5,42190.5,2,Long
2021-06-21,41999.0,385.0,42384.0,2,Long
2021-06-22,41999.0,660.0,42659.0,2,Long
2021-06-23,41999.0,687.5,42686.5,2,Long
2021-06-24,41999.0,808.0,42807.0,2,Long
2021-06-25,41999.0,777.5,42776.5,2,Long
2021-06-27,41999.0,824.5,42823.5,2,Long
2021-06-28,41999.0,1098.5,43097.5,2,Long
2021-06-29,41999.0,1290.5,43289.5,2,Long
2021-06-30,41999.0,1236.0,43235.0,2,Long
2021-07-01,41999.0,1181.0,43180.0,2,Long
2021-07-02,41999.0,1486.0,43485.0,4,Long
2021-07-04,41999.0,1542.0,43541.0,4,Long
2021-07-05,41999.0,1541.0,43540.0,4,Long
2021-07-06,41999.0,1743.0,43742.0,4,Long
2021-07-07,41999.0,1925.0,43924.0,4,Long
2021-07-08,41999.0,1452.0,43451.0,4,Long
2021-07-09,41999.0,1942.0,43941.0,4,Long
2021-07-11,41999.0,2002.0,44001.0,4,Long
2021-07-12,41999.0,2203.0,44202.0,4,Long
2021-07-13,41999.0,2064.0,44063.0,4,Long
2021-07-14,41999.0,2301.0,44300.0,4,Long
2021-07-15,41999.0,1712.0,43711.0,4,Long
2021-07-16,41999.0,1384.5,43383.5,6,Long
2021-07-18,41999.0,1219.5,43218.5,6,Long
2021-07-19,41999.0,900.0,42899.0,6,Long
2021-07-20,41999.0,1821.0,43820.0,6,Long
2021-07-21,41999.0,2376.0,44375.0,6,Long
2021-07-22,41999.0,3187.5,45186.5,6,Long
2021-07-23,41999.0,3918.0,45917.0,6,Long
2021-07-25,41999.0,4089.0,46088.0,6,Long
2021-07-26,41999.0,4032.0,46031.0,6,Long
2021-07-27,41999.0,2884.5,44883.5,6,Long
2021-07-28,41999.0,3292.5,45291.5,6,Long
2021-07-29,41999.0,2583.0,44582.0,6,Long
2021-07-30,41999.0,3209.5,45208.5,8,Long
2021-08-01,41999.0,3485.5,45484.5,8,Long
2021-08-02,41999.0,3161.5,45160.5,8,Long
2021-08-03,41999.0,3719.5,45718.5,8,Long
2021-08-04,41999.0,4141.5,46140.5,8,Long
2021-08-05,41999.0,4755.5,46754.5,8,Long
2021-08-06,41999.0,4213.5,46212.5,8,Long
2021-08-08,41999.0,3647.5,45646.5,8,Long
2021-08-09,41999.0,4421.5,46420.5,8,Long
2021-08-10,41999.0,3755.5,45754.5,8,Long
2021-08-11,41999.0,3437.5,45436.5,8,Long
2021-08-12,41999.0,4013.5,46012.5,8,Long
2021-08-13,41999.0,4469.5,46468.5,9,Long
2021-08-15,41999.0,4381.75,46380.75,9,Long
2021-08-16,41999.0,4530.25,46529.25,9,Long
2021-08-17,41999.0,2968.75,44967.75,9,Long
2021-08-18,41999.0,1965.25,43964.25,9,Long
2021-08-19,41999.0,2606.5,44605.5,9,Long
2021-08-20,41999.0,4210.75,46209.75,9,Long
2021-08-22,41999.0,4321.0,46320.0,9,Long
2021-08-23,41999.0,6321.25,48320.25,9,Long
2021-08-24,41999.0,6575.5,48574.5,9,Long
2021-08-25,41999.0,6611.5,48610.5,9,Long
2021-08-26,41999.0,5860.0,47859.0,9,Long
2021-08-27,41999.0,7203.0,49202.0,10,Long
2021-08-29,41999.0,7448.0,49447.0,10,Long
2021-08-30,41999.0,8905.5,50904.5,10,Long
2021-08-31,41999.0,8893.0,50892.0,10,Long
2021-09-01,41999.0,9108.0,51107.0,10,Long
2021-09-02,41999.0,8893.0,50892.0,10,Long
2021-09-03,41999.0,9458.0,51457.0,10,Long
2021-09-05,41999.0,9425.5,51424.5,10,Long
2021-09-06,41999.0,9815.5,51814.5,10,Long
2021-09-07,41999.0,9543.0,51542.0,10,Long
2021-09-08,41999.0,8923.0,50922.0,10,Long
2021-09-09,41999.0,8563.0,50562.0,10,Long
2021-09-10,41999.0,7300.5,49299.5,10,Long
2021-09-12,41999.0,7768.0,49767.0,10,Long
2021-09-13,41999.0,7375.5,49374.5,10,Long
2021-09-14,41999.0,6993.0,48992.0,10,Long
2021-09-15,41999.0,7940.5,49939.5,10,Long
2021-09-16,41999.0,7738.0,49737.0,10,Long
2021-09-17,49737.0,0.0,49737.0,0,
2021-09-19,49737.0,0.0,49737.0,0,
2021-09-20,49737.0,0.0,49737.0,0,
2021-09-21,49737.0,0.0,49737.0,0,
2021-09-22,49737.0,0.0,49737.0,0,
2021-09-23,49737.0,0.0,49737.0,0,
2021-09-24,49737.0,0.0,49737.0,0,
2021-09-26,49737.0,0.0,49737.0,0,
2021-09-27,49737.0,0.0,49737.0,0,
2021-09-28,49737.0,0.0,49737.0,0,
2021-09-29,49737.0,0.0,49737.0,0,
2021-09-30,49737.0,0.0,49737.0,0,
2021-10-01,49737.0,0.0,49737.0,0,
2021-10-03,49737.0,0.0,49737.0,0,
2021-10-04,49737.0,0.0,49737.0,0,
2021-10-05,49737.0,0.0,49737.0,0,
2021-10-06,49737.0,0.0,49737.0,0,
2021-10-07,49737.0,0.0,49737.0,0,
2021-10-08,49737.0,0.0,49737.0,0,
2021-10-10,49737.0,0.0,49737.0,0,
2021-10-11,49737.0,0.0,49737.0,0,
2021-10-12,49737.0,0.0,49737.0,0,
2021-10-13,49737.0,0.0,49737.0,0,
2021-10-14,49737.0,0.0,49737.0,0,
2021-10-15,49737.0,0.0,49737.0,0,
2021-10-17,49737.0,0.0,49737.0,0,
2021-10-18,49737.0,0.0,49737.0,0,
2021-10-19,49737.0,117.0,49854.0,1,Long
2021-10-20,49737.0,43.0,49780.0,1,Long
2021-10-21,49737.0,99.5,49836.5,1,Long
2021-10-22,49737.0,31.75,49768.75,1,Long
2021-10-24,49737.0,14.0,49751.0,1,Long
2021-10-25,49737.0,246.75,49983.75,1,Long
2021-10-26,49737.0,267.75,50004.75,1,Long
2021-10-27,49737.0,334.0,50071.0,1,Long
2021-10-28,49737.0,380.0,50117.0,1,Long
2021-10-29,49737.0,644.5,50381.5,2,Long
2021-10-31,49737.0,667.5,50404.5,2,Long
2021-11-01,49737.0,659.0,50396.0,2,Long
2021-11-02,49737.0,792.0,50529.0,2,Long
2021-11-03,49737.0,1278.5,51015.5,2,Long
2021-11-04,49737.0,1587.0,51324.0,2,Long
2021-11-05,49737.0,1593.0,51330.0,2,Long
2021-11-07,49737.0,1531.0,51268.0,2,Long
2021-11-08,49737.0,1528.0,51265.0,2,Long
2021-11-09,49737.0,1278.0,51015.0,2,Long
2021-11-10,49737.0,887.5,50624.5,2,Long
2021-11-11,49737.0,1035.5,50772.5,2,Long
2021-11-12,49737.0,1351.0,51088.0,4,Long
2021-11-14,49737.0,1449.0,51186.0,4,Long
2021-11-15,49737.0,1303.0,51040.0,4,Long
2021-11-16,49737.0,1765.0,51502.0,4,Long
2021-11-17,49737.0,1862.0,51599.0,4,Long
2021-11-18,49737.0,2528.0,52265.0,4,Long
2021-11-19,49737.0,2897.0,52634.0,4,Long
2021-11-21,49737.0,2899.0,52636.0,4,Long
2021-11-22,49737.0,2131.0,51868.0,4,Long
2021-11-23,49737.0,1690.0,51427.0,4,Long
2021-11-24,49737.0,1975.0,51712.0,4,Long
2021-11-25,49737.0,2028.0,51765.0,4,Long
2021-11-26,51762.0,0.0,51762.0,0,
2021-11-28,51762.0,0.0,51762.0,0,
2021-11-29,51762.0,0.0,51762.0,0,
2021-11-30,51762.0,0.0,51762.0,0,
2021-12-01,51762.0,0.0,51762.0,0,
2021-12-02,51762.0,0.0,51762.0,0,
2021-12-03,51762.0,0.0,51762.0,0,
2021-12-05,51762.0,0.0,51762.0,0,
2021-12-06,51762.0,0.0,51762.0,0,
2021-12-07,51762.0,0.0,51762.0,0,
2021-12-08,51762.0,0.0,51762.0,0,
2021-12-09,51762.0,0.0,51762.0,0,
2021-12-10,51762.0,0.0,51762.0,0,
2021-12-12,51762.0,0.0,51762.0,0,
2021-12-13,51762.0,0.0,51762.0,0,
2021-12-14,51762.0,0.0,51762.0,0,
2021-12-15,51762.0,0.0,51762.0,0,
2021-12-16,51762.0,0.0,51762.0,0,
2021-12-17,51762.0,0.0,51762.0,0,
2021-12-19,51762.0,0.0,51762.0,0,
2021-12-20,51762.0,0.0,51762.0,0,
2021-12-21,51762.0,0.0,51762.0,0,
2021-12-22,51762.0,0.0,51762.0,0,
2021-12-23,51762.0,0.0,51762.0,0,
2021-12-26,51762.0,0.0,51762.0,0,
2021-12-27,51762.0,0.0,51762.0,0,
2021-12-28,51762.0,-15.75,51746.25,1,Long
2021-12-29,51745.75,0.0,51745.75,0,
2021-12-30,51745.75,0.0,51745.75,0,
2021-12-31,51745.75,0.0,51745.75,0,
2022-01-02,51745.75,0.0,51745.75,0,
2022-01-03,51745.75,0.0,51745.75,0,
2022-01-04,51745.75,0.0,51745.75,0,
2022-01-05,51745.75,0.0,51745.75,0,
2022-01-06,51745.75,0.0,51745.75,0,
2022-01-07,51745.75,0.0,51745.75,0,
2022-01-09,51745.75,0.0,51745.75,0,
2022-01-10,51745.75,0.0,51745.75,0,
2022-01-11,51745.75,0.0,51745.75,0,
2022-01-12,51745.75,0.0,51745.75,0,
2022-01-13,51745.75,0.0,51745.75,0,
2022-01-14,51745.75,0.0,51745.75,0,
2022-01-16,51745.75,0.0,51745.75,0,
2022-01-17,51745.75,0.0,51745.75,0,
2022-01-18,51745.75,0.0,51745.75,0,
2022-01-19,51745.75,0.0,51745.75,0,
2022-01-20,51745.75,0.0,51745.75,0,
2022-01-21,51745.75,0.0,51745.75,0,
2022-01-23,51745.75,0.0,51745.75,0,
2022-01-24,51745.75,0.0,51745.75,0,
2022-01-25,51745.75,0.0,51745.75,0,
2022-01-26,51745.75,0.0,51745.75,0,
2022-01-27,51745.75,0.0,51745.75,0,
2022-01-28,51745.75,0.0,51745.75,0,
2022-01-30,51745.75,0.0,51745.75,0,
2022-01-31,51745.75,0.0,51745.75,0,
2022-02-01,51745.75,0.0,51745.75,0,
2022-02-02,51745.75,0.0,51745.75,0,
2022-02-03,51745.75,0.0,51745.75,0,
2022-02-04,51745.75,0.0,51745.75,0,
2022-02-06,51745.75,0.0,51745.75,0,
2022-02-07,51745.75,0.0,51745.75,0,
2022-02-08,51745.75,0.0,51745.75,0,
2022-02-09,51745.75,0.0,51745.75,0,
2022-02-10,51745.75,0.0,51745.75,0,
2022-02-11,51745.75,0.0,51745.75,0,
2022-02-13,51745.75,0.0,51745.75,0,
2022-02-14,51745.75,0.0,51745.75,0,
2022-02-15,51745.75,0.0,51745.75,0,
2022-02-16,51745.75,0.0,51745.75,0,
2022-02-17,51745.75,0.0,51745.75,0,
2022-02-18,51745.75,0.0,51745.75,0,
2022-02-20,51745.75,0.0,51745.75,0,
2022-02-21,51745.75,0.0,51745.75,0,
2022-02-22,51745.75,0.0,51745.75,0,
2022-02-23,51745.75,0.0,51745.75,0,
2022-02-24,51745.75,0.0,51745.75,0,
2022-02-25,51745.75,0.0,51745.75,0,
2022-02-27,51745.75,0.0,51745.75,0,
2022-02-28,51745.75,0.0,51745.75,0,
2022-03-01,51745.75,0.0,51745.75,0,
2022-03-02,51745.75,0.0,51745.75,0,
2022-03-03,51745.75,0.0,51745.75,0,
2022-03-04,51745.75,0.0,51745.75,0,
2022-03-06,51745.75,0.0,51745.75,0,
2022-03-07,51745.75,0.0,51745.75,0,
2022-03-08,51745.75,0.0,51745.75,0,
2022-03-09,51745.75,0.0,51745.75,0,
2022-03-10,51745.75,0.0,51745.75,0,
2022-03-11,51745.75,0.0,51745.75,0,
2022-03-13,51745.75,0.0,51745.75,0,
2022-03-14,51745.75,0.0,51745.75,0,
2022-03-15,51745.75,0.0,51745.75,0,
2022-03-16,51745.75,0.0,51745.75,0,
2022-03-17,51745.75,0.0,51745.75,0,
2022-03-18,51745.75,0.0,51745.75,0,
2022-03-20,51745.75,0.0,51745.75,0,
2022-03-21,51745.75,0.0,51745.75,0,
2022-03-22,51745.75,0.0,51745.75,0,
2022-03-23,51745.75,-192.0,51553.75,1,Long
2022-03-24,51554.25,0.0,51554.25,0,
2022-03-25,51554.25,2.25,51556.5,1,Long
2022-03-27,51554.25,-29.25,51525.0,1,Long
2022-03-28,51554.25,222.75,51777.0,1,Long
2022-03-29,51554.25,471.25,52025.5,1,Long
2022-03-30,51554.25,353.5,51907.75,1,Long
2022-03-31,51554.25,162.25,51716.5,1,Long
2022-04-01,51554.25,103.0,51657.25,1,Long
2022-04-03,51554.25,68.5,51622.75,1,Long
2022-04-04,51554.25,401.75,51956.0,1,Long
2022-04-05,51554.25,84.5,51638.75,1,Long
2022-04-06,51554.25,-301.75,51252.5,1,Long
2022-04-07,51252.25,0.0,51252.25,0,
2022-04-08,51252.25,0.0,51252.25,0,
2022-04-10,51252.25,0.0,51252.25,0,
2022-04-11,51252.25,0.0,51252.25,0,
2022-04-12,51252.25,0.0,51252.25,0,
2022-04-13,51252.25,0.0,51252.25,0,
2022-04-14,51252.25,0.0,51252.25,0,
2022-04-17,51252.25,0.0,51252.25,0,
2022-04-18,51252.25,0.0,51252.25,0,
2022-04-19,51252.25,0.0,51252.25,0,
2022-04-20,51252.25,0.0,51252.25,0,
2022-04-21,51252.25,0.0,51252.25,0,
2022-04-22,51252.25,0.0,51252.25,0,
2022-04-24,51252.25,0.0,51252.25,0,
2022-04-25,51252.25,0.0,51252.25,0,
2022-04-26,51252.25,0.0,51252.25,0,
2022-04-27,51252.25,0.0,51252.25,0,
2022-04-28,51252.25,0.0,51252.25,0,
2022-04-29,51252.25,0.0,51252.25,0,
2022-05-01,51252.25,0.0,51252.25,0,
2022-05-02,51252.25,0.0,51252.25,0,
2022-05-03,51252.25,0.0,51252.25,0,
2022-05-04,51252.25,0.0,51252.25,0,
2022-05-05,51252.25,0.0,51252.25,0,
2022-05-06,51252.25,0.0,51252.25,0,
2022-05-08,51252.25,0.0,51252.25,0,
2022-05-09,51252.25,0.0,51252.25,0,
2022-05-10,51252.25,0.0,51252.25,0,
2022-05-11,51252.25,0.0,51252.25,0,
2022-05-12,51252.25,0.0,51252.25,0,
2022-05-13,51252.25,0.0,51252.25,0,
2022-05-15,51252.25,0.0,51252.25,0,
2022-05-16,51252.25,0.0,51252.25,0,
2022-05-17,51252.25,0.0,51252.25,0,
2022-05-18,51252.25,0.0,51252.25,0,
2022-05-19,51252.25,0.0,51252.25,0,
2022-05-20,51252.25,0.0,51252.25,0,
2022-05-22,51252.25,0.0,51252.25,0,
2022-05-23,51252.25,0.0,51252.25,0,
2022-05-24,51252.25,0.0,51252.25,0,
2022-05-25,51252.25,0.0,51252.25,0,
2022-05-26,51252.25,0.0,51252.25,0,
2022-05-27,51252.25,0.0,51252.25,0,
2022-05-29,51252.25,0.0,51252.25,0,
2022-05-30,51252.25,0.0,51252.25,0,
2022-05-31,51252.25,0.0,51252.25,0,
2022-06-01,51252.25,0.0,51252.25,0,
2022-06-02,51252.25,0.0,51252.25,0,
2022-06-03,51252.25,-371.5,50880.75,1,Long
2022-06-05,50878.75,0.0,50878.75,0,
2022-06-06,50878.75,0.0,50878.75,0,
2022-06-07,50878.75,0.0,50878.75,0,
2022-06-08,50878.75,0.0,50878.75,0,
2022-06-09,50878.75,0.0,50878.75,0,
2022-06-10,50878.75,0.0,50878.75,0,
2022-06-12,50878.75,0.0,50878.75,0,
2022-06-13,50878.75,0.0,50878.75,0,
2022-06-14,50878.75,0.0,50878.75,0,
2022-06-15,50878.75,0.0,50878.75,0,
2022-06-16,50878.75,0.0,50878.75,0,
2022-06-17,50878.75,0.0,50878.75,0,
2022-06-19,50878.75,0.0,50878.75,0,
2022-06-20,50878.75,0.0,50878.75,0,
2022-06-21,50878.75,0.0,50878.75,0,
2022-06-22,50878.75,0.0,50878.75,0,
2022-06-23,50878.75,0.0,50878.75,0,
2022-06-24,50878.75,0.0,50878.75,0,
2022-06-26,50878.75,0.0,50878.75,0,
2022-06-27,50878.75,0.0,50878.75,0,
2022-06-28,50878.75,0.0,50878.75,0,
2022-06-29,50878.75,0.0,50878.75,0,
2022-06-30,50878.75,0.0,50878.75,0,
2022-07-01,50878.75,0.0,50878.75,0,
2022-07-03,50878.75,0.0,50878.75,0,
2022-07-04,50878.75,0.0,50878.75,0,
2022-07-05,50878.75,0.0,50878.75,0,
2022-07-06,50878.75,0.0,50878.75,0,
2022-07-07,50878.75,0.0,50878.75,0,
2022-07-08,50878.75,0.0,50878.75,0,
2022-07-10,50878.75,0.0,50878.75,0,
2022-07-11,50878.75,0.0,50878.75,0,
2022-07-12,50878.75,0.0,50878.75,0,
2022-07-13,50878.75,0.0,50878.75,0,
2022-07-14,50878.75,0.0,50878.75,0,
2022-07-15,50878.75,0.0,50878.75,0,
2022-07-17,50878.75,0.0,50878.75,0,
2022-07-18,50878.75,0.0,50878.75,0,
2022-07-19,50878.75,0.0,50878.75,0,
2022-07-20,50878.75,0.0,50878.75,0,
2022-07-21,50878.75,112.25,50991.0,1,Long
2022-07-22,50878.75,-8.5,50870.25,1,Long
2022-07-24,50883.25,0.0,50883.25,0,
2022-07-25,50883.25,0.0,50883.25,0,
2022-07-26,50883.25,0.0,50883.25,0,
2022-07-27,50883.25,0.0,50883.25,0,
2022-07-28,50883.25,316.0,51199.25,1,Long
2022-07-29,50883.25,397.75,51281.0,1,Long
2022-07-31,50883.25,342.5,51225.75,1,Long
2022-08-01,50883.25,374.0,51257.25,1,Long
2022-08-02,50883.25,326.25,51209.5,1,Long
2022-08-03,50883.25,657.5,51540.75,1,Long
2022-08-04,50883.25,756.5,51639.75,1,Long
2022-08-05,50883.25,632.25,51515.5,2,Long
2022-08-07,50883.25,558.25,51441.5,2,Long
2022-08-08,50883.25,644.25,51527.5,2,Long
2022-08-09,50883.25,308.25,51191.5,2,Long
2022-08-10,50883.25,1000.75,51884.0,2,Long
2022-08-11,50883.25,874.25,51757.5,2,Long
2022-08-12,50883.25,1363.75,52247.0,2,Long
2022-08-14,50883.25,1283.25,52166.5,2,Long
2022-08-15,50883.25,1565.25,52448.5,2,Long
2022-08-16,50883.25,1506.75,52390.0,2,Long
2022-08-17,50883.25,1113.75,51997.0,2,Long
2022-08-18,50883.25,1257.25,52140.5,2,Long
2022-08-19,50883.25,668.25,51551.5,4,Long
2022-08-21,50883.25,419.25,51302.5,4,Long
2022-08-22,50883.25,-507.75,50375.5,4,Long
2022-08-23,50883.25,-748.75,50134.5,4,Long
2022-08-24,50883.25,-592.75,50290.5,4,Long
2022-08-25,50883.25,247.25,51130.5,4,Long
2022-08-26,51132.5,0.0,51132.5,0,
2022-08-28,51132.5,0.0,51132.5,0,
2022-08-29,51132.5,0.0,51132.5,0,
2022-08-30,51132.5,0.0,51132.5,0,
2022-08-31,51132.5,0.0,51132.5,0,
2022-09-01,51132.5,0.0,51132.5,0,
2022-09-02,51132.5,0.0,51132.5,0,
2022-09-04,51132.5,0.0,51132.5,0,
2022-09-05,51132.5,0.0,51132.5,0,
2022-09-06,51132.5,0.0,51132.5,0,
2022-09-07,51132.5,0.0,51132.5,0,
2022-09-08,51132.5,0.0,51132.5,0,
2022-09-09,51132.5,0.0,51132.5,0,
2022-09-11,51132.5,0.0,51132.5,0,
2022-09-12,51132.5,0.0,51132.5,0,
2022-09-13,51132.5,0.0,51132.5,0,
2022-09-14,51132.5,0.0,51132.5,0,
2022-09-15,51132.5,0.0,51132.5,0,
2022-09-16,51132.5,0.0,51132.5,0,
2022-09-18,51132.5,0.0,51132.5,0,
2022-09-19,51132.5,0.0,51132.5,0,
2022-09-20,51132.5,0.0,51132.5,0,
2022-09-21,51132.5,0.0,51132.5,0,
2022-09-22,51132.5,0.0,51132.5,0,
2022-09-23,51132.5,0.0,51132.5,0,
2022-09-25,51132.5,0.0,51132.5,0,
2022-09-26,51132.5,0.0,51132.5,0,
2022-09-27,51132.5,0.0,51132.5,0,
2022-09-28,51132.5,0.0,51132.5,0,
2022-09-29,51132.5,0.0,51132.5,0,
2022-09-30,51132.5,0.0,51132.5,0,
2022-10-02,51132.5,0.0,51132.5,0,
2022-10-03,51132.5,0.0,51132.5,0,
2022-10-04,51132.5,0.0,51132.5,0,
2022-10-05,51132.5,0.0,51132.5,0,
2022-10-06,51132.5,0.0,51132.5,0,
2022-10-07,51132.5,0.0,51132.5,0,
2022-10-09,51132.5,0.0,51132.5,0,
2022-10-10,51132.5,0.0,51132.5,0,
2022-10-11,51132.5,0.0,51132.5,0,
2022-10-12,51132.5,0.0,51132.5,0,
2022-10-13,51132.5,0.0,51132.5,0,
2022-10-14,51132.5,0.0,51132.5,0,
2022-10-16,51132.5,0.0,51132.5,0,
2022-10-17,51132.5,0.0,51132.5,0,
2022-10-18,51132.5,0.0,51132.5,0,
2022-10-19,51132.5,0.0,51132.5,0,
2022-10-20,51132.5,0.0,51132.5,0,
2022-10-21,51132.5,0.0,51132.5,0,
2022-10-23,51132.5,0.0,51132.5,0,
2022-10-24,51132.5,0.0,51132.5,0,
2022-10-25,51132.5,0.0,51132.5,0,
2022-10-26,51132.5,0.0,51132.5,0,
2022-10-27,51132.5,0.0,51132.5,0,
2022-10-28,51132.5,0.0,51132.5,0,
2022-10-30,51132.5,0.0,51132.5,0,
2022-10-31,51132.5,0.0,51132.5,0,
2022-11-01,51132.5,0.0,51132.5,0,
2022-11-02,51132.5,0.0,51132.5,0,
2022-11-03,51132.5,0.0,51132.5,0,
2022-11-04,51132.5,0.0,51132.5,0,
2022-11-06,51132.5,0.0,51132.5,0,
2022-11-07,51132.5,0.0,51132.5,0,
2022-11-08,51132.5,0.0,51132.5,0,
2022-11-09,51132.5,0.0,51132.5,0,
2022-11-10,51132.5,0.0,51132.5,0,
2022-11-11,51132.5,0.0,51132.5,0,
2022-11-13,51132.5,15.25,51147.75,1,Long
2022-11-14,51132.5,-29.0,51103.5,1,Long
2022-11-15,51103.5,0.0,51103.5,0,
2022-11-16,51103.5,-118.5,50985.0,1,Long
2022-11-17,50984.75,0.0,50984.75,0,
2022-11-18,50984.75,0.0,50984.75,0,
2022-11-20,50984.75,0.0,50984.75,0,
2022-11-21,50984.75,0.0,50984.75,0,
2022-11-22,50984.75,0.0,50984.75,0,
2022-11-23,50984.75,0.0,50984.75,0,
2022-11-24,50984.75,29.25,51014.0,1,Long
2022-11-25,50984.75,-104.5,50880.25,1,Long
2022-11-27,50831.5,0.0,50831.5,0,
2022-11-28,50831.5,0.0,50831.5,0,
2022-11-29,50831.5,0.0,50831.5,0,
2022-11-30,50831.5,0.0,50831.5,0,
2022-12-01,50831.5,-33.0,50798.5,1,Long
2022-12-02,50831.5,-93.25,50738.25,1,Long
2022-12-04,50831.5,-71.5,50760.0,1,Long
2022-12-05,50831.5,-253.75,50577.75,1,Long
2022-12-06,50831.5,-494.75,50336.75,1,Long
2022-12-07,50337.25,0.0,50337.25,0,
2022-12-08,50337.25,0.0,50337.25,0,
2022-12-09,50337.25,0.0,50337.25,0,
2022-12-11,50337.25,0.0,50337.25,0,
2022-12-12,50337.25,0.0,50337.25,0,
2022-12-13,50337.25,132.0,50469.25,1,Long
2022-12-14,50337.25,55.25,50392.5,1,Long
2022-12-15,50337.25,-369.0,49968.25,1,Long
2022-12-16,49968.25,0.0,49968.25,0,
2022-12-18,49968.25,0.0,49968.25,0,
2022-12-19,49968.25,0.0,49968.25,0,
2022-12-20,49968.25,0.0,49968.25,0,
2022-12-21,49968.25,0.0,49968.25,0,
2022-12-22,49968.25,0.0,49968.25,0,
2022-12-23,49968.25,0.0,49968.25,0,
2022-12-26,49968.25,0.0,49968.25,0,
2022-12-27,49968.25,0.0,49968.25,0,
2022-12-28,49968.25,0.0,49968.25,0,
2022-12-29,49968.25,0.0,49968.25,0,
2022-12-30,49968.25,0.0,49968.25,0,
2023-01-02,49968.25,0.0,49968.25,0,
2023-01-03,49968.25,0.0,49968.25,0,
2023-01-04,49968.25,0.0,49968.25,0,
2023-01-05,49968.25,0.0,49968.25,0,
2023-01-06,49968.25,0.0,49968.25,0,
2023-01-08,49968.25,0.0,49968.25,0,
2023-01-09,49968.25,0.0,49968.25,0,
2023-01-10,49968.25,0.0,49968.25,0,
2023-01-11,49968.25,0.0,49968.25,0,
2023-01-12,49968.25,0.0,49968.25,0,
2023-01-13,49968.25,0.0,49968.25,0,
2023-01-15,49968.25,0.0,49968.25,0,
2023-01-16,49968.25,0.0,49968.25,0,
2023-01-17,49968.25,0.0,49968.25,0,
2023-01-18,49968.25,0.0,49968.25,0,
2023-01-19,49968.25,0.0,49968.25,0,
2023-01-20,49968.25,0.0,49968.25,0,
2023-01-22,49968.25,-19.5,49948.75,1,Long
2023-01-23,49948.5,0.0,49948.5,0,
2023-01-24,49948.5,-78.5,49870.0,1,Long
2023-01-25,49948.5,-11.25,49937.25,1,Long
2023-01-26,49948.5,121.25,50069.75,1,Long
2023-01-27,49948.5,301.25,50249.75,1,Long
2023-01-29,49948.5,287.0,50235.5,1,Long
2023-01-30,49948.5,83.75,50032.25,1,Long
2023-01-31,49948.5,184.75,50133.25,1,Long
2023-02-01,49948.5,626.75,50575.25,1,Long
2023-02-02,49948.5,745.0,50693.5,1,Long
2023-02-03,49948.5,706.25,50654.75,2,Long
2023-02-05,49948.5,654.75,50603.25,2,Long
2023-02-06,49948.5,545.25,50493.75,2,Long
2023-02-07,49948.5,973.25,50921.75,2,Long
2023-02-08,49948.5,595.25,50543.75,2,Long
2023-02-09,49948.5,342.75,50291.25,2,Long
2023-02-10,49948.5,146.25,50094.75,2,Long
2023-02-12,49948.5,86.75,50035.25,2,Long
2023-02-13,49948.5,550.75,50499.25,2,Long
2023-02-14,49948.5,688.75,50637.25,2,Long
2023-02-15,49948.5,966.25,50914.75,2,Long
2023-02-16,49948.5,328.25,50276.75,2,Long
2023-02-17,49948.5,268.75,50217.25,4,Long
2023-02-19,49948.5,173.75,50122.25,4,Long
2023-02-20,49948.5,250.75,50199.25,4,Long
2023-02-21,49948.5,-807.25,49141.25,4,Long
2023-02-22,49948.5,-594.25,49354.25,4,Long
2023-02-23,49948.5,-569.25,49379.25,4,Long
2023-02-24,49948.5,-1269.25,48679.25,4,Long
2023-02-26,49948.5,-1195.25,48753.25,4,Long
2023-02-27,49948.5,-891.25,49057.25,4,Long
2023-02-28,49948.5,-1176.25,48772.25,4,Long
2023-03-01,49948.5,-1379.25,48569.25,4,Long
2023-03-02,49948.5,-1116.25,48832.25,4,Long
2023-03-03,49948.5,101.75,50050.25,6,Long
2023-03-05,49948.5,-103.75,49844.75,6,Long
2023-03-06,49948.5,125.75,50074.25,6,Long
2023-03-07,49948.5,-798.25,49150.25,6,Long
2023-03-08,49948.5,-507.25,49441.25,6,Long
2023-03-09,49948.5,-1942.75,48005.75,6,Long
2023-03-10,48005.75,0.0,48005.75,0,
2023-03-12,48005.75,0.0,48005.75,0,
2023-03-13,48005.75,0.0,48005.75,0,
2023-03-14,48005.75,0.0,48005.75,0,
2023-03-15,48005.75,0.0,48005.75,0,
2023-03-16,48005.75,0.0,48005.75,0,
2023-03-17,48005.75,-73.25,47932.5,1,Long
2023-03-19,47972.0,0.0,47972.0,0,
2023-03-20,47972.0,0.0,47972.0,0,
2023-03-21,47972.0,0.0,47972.0,0,
2023-03-22,47972.0,-149.5,47822.5,1,Long
2023-03-23,47822.5,0.0,47822.5,0,
2023-03-24,47822.5,58.25,47880.75,1,Long
2023-03-26,47822.5,81.75,47904.25,1,Long
2023-03-27,47822.5,-43.5,47779.0,1,Long
2023-03-28,47822.5,-106.5,47716.0,1,Long
2023-03-29,47822.5,77.0,47899.5,1,Long
2023-03-30,47822.5,230.0,48052.5,1,Long
2023-03-31,47822.5,442.5,48265.0,1,Long
2023-04-02,47822.5,374.0,48196.5,1,Long
2023-04-03,47822.5,381.0,48203.5,1,Long
2023-04-04,47822.5,374.75,48197.25,1,Long
2023-04-05,47822.5,191.0,48013.5,1,Long
2023-04-06,47822.5,293.5,48116.0,1,Long
2023-04-07,47822.5,314.75,48137.25,2,Long
2023-04-09,47822.5,265.75,48088.25,2,Long
2023-04-10,47822.5,297.75,48120.25,2,Long
2023-04-11,47822.5,132.25,47954.75,2,Long
2023-04-12,47822.5,-183.75,47638.75,2,Long
2023-04-13,47822.5,336.75,48159.25,2,Long
2023-04-14,47822.5,351.75,48174.25,2,Long
2023-04-16,47822.5,326.25,48148.75,2,Long
2023-04-17,47822.5,310.75,48133.25,2,Long
2023-04-18,47822.5,303.25,48125.75,2,Long
2023-04-19,47822.5,209.25,48031.75,2,Long
2023-04-20,47822.5,117.75,47940.25,2,Long
2023-04-21,47822.5,113.75,47936.25,4,Long
2023-04-23,47822.5,85.75,47908.25,4,Long
2023-04-24,47822.5,10.75,47833.25,4,Long
2023-04-25,47822.5,-347.25,47475.25,4,Long
2023-04-26,47822.5,-359.25,47463.25,4,Long
2023-04-27,47822.5,653.75,48476.25,4,Long
2023-04-28,47822.5,1120.75,48943.25,4,Long
2023-04-30,47822.5,1041.75,48864.25,4,Long
2023-05-01,47822.5,955.75,48778.25,4,Long
2023-05-02,47822.5,541.75,48364.25,4,Long
2023-05-03,47822.5,203.75,48026.25,4,Long
2023-05-04,47822.5,187.75,48010.25,4,Long
2023-05-05,47822.5,1008.25,48830.75,6,Long
2023-05-07,47822.5,970.75,48793.25,6,Long
2023-05-08,47822.5,1167.25,48989.75,6,Long
2023-05-09,47822.5,798.25,48620.75,6,Long
2023-05-10,47822.5,1675.75,49498.25,6,Long
2023-05-11,47822.5,1873.75,49696.25,6,Long
2023-05-12,47822.5,1362.25,49184.75,6,Long
2023-05-14,47822.5,1342.75,49165.25,6,Long
2023-05-15,47822.5,1894.75,49717.25,6,Long
2023-05-16,47822.5,2142.25,49964.75,6,Long
2023-05-17,47822.5,3004.75,50827.25,6,Long
2023-05-18,47822.5,4722.25,52544.75,6,Long
2023-05-19,47822.5,4167.75,51990.25,8,Long
2023-05-21,47822.5,4265.75,52088.25,8,Long
2023-05-22,47822.5,4981.75,52804.25,8,Long
2023-05-23,47822.5,3423.75,51246.25,8,Long
2023-05-24,47822.5,4213.75,52036.25,8,Long
2023-05-25,47822.5,5157.75,52980.25,8,Long
2023-05-26,47822.5,8405.75,56228.25,8,Long
2023-05-28,47822.5,8769.75,56592.25,8,Long
2023-05-29,47822.5,8525.75,56348.25,8,Long
2023-05-30,47822.5,8811.75,56634.25,8,Long
2023-05-31,47822.5,7917.75,55740.25,8,Long
2023-06-01,47822.5,9303.75,57126.25,8,Long
2023-06-02,47822.5,10130.75,57953.25,9,Long
2023-06-04,47822.5,9680.75,57503.25,9,Long
2023-06-05,47822.5,9944.0,57766.5,9,Long
2023-06-06,47822.5,10207.25,58029.75,9,Long
2023-06-07,47822.5,7824.5,55647.0,9,Long
2023-06-08,47822.5,9352.25,57174.75,9,Long
2023-06-09,47822.5,9919.25,57741.75,9,Long
2023-06-11,47822.5,10173.5,57996.0,9,Long
2023-06-12,47822.5,13877.0,61699.5,9,Long
2023-06-13,47822.5,14799.5,62622.0,9,Long
2023-06-14,47822.5,15780.5,63603.0,9,Long
2023-06-15,47822.5,17085.5,64908.0,9,Long
2023-06-16,47822.5,16553.5,64376.0,10,Long
2023-06-18,47822.5,16571.0,64393.5,10,Long
2023-06-19,47822.5,16026.0,63848.5,10,Long
2023-06-20,47822.5,16158.5,63981.0,10,Long
2023-06-21,47822.5,13948.5,61771.0,10,Long
2023-06-22,47822.5,15756.0,63578.5,10,Long
2023-06-23,47822.5,14093.5,61916.0,10,Long
2023-06-25,47822.5,14546.0,62368.5,10,Long
2023-06-26,47822.5,12468.5,60291.0,10,Long
2023-06-27,47822.5,14131.0,61953.5,10,Long
2023-06-28,47822.5,15261.0,63083.5,10,Long
2023-06-29,47822.5,14706.0,62528.5,10,Long
2023-06-30,47822.5,16713.5,64536.0,10,Long
2023-07-02,47822.5,17048.5,64871.0,10,Long
2023-07-03,47822.5,16916.0,64738.5,10,Long
2023-07-04,47822.5,16943.5,64766.0,10,Long
2023-07-05,47822.5,17118.5,64941.0,10,Long
2023-07-06,47822.5,15803.5,63626.0,10,Long
2023-07-07,47822.5,15456.0,63278.5,10,Long
2023-07-09,47822.5,15348.5,63171.0,10,Long
2023-07-10,47822.5,15463.5,63286.0,10,Long
2023-07-11,47822.5,16186.0,64008.5,10,Long
2023-07-12,47822.5,18258.5,66081.0,10,Long
2023-07-13,47822.5,20663.5,68486.0,10,Long
2023-07-14,47822.5,20463.5,68286.0,10,Long
2023-07-16,47822.5,20208.5,68031.0,10,Long
2023-07-17,47822.5,21721.0,69543.5,10,Long
2023-07-18,47822.5,23151.0,70973.5,10,Long
2023-07-19,47822.5,22108.5,69931.0,10,Long
2023-07-20,47822.5,19338.5,67161.0,10,Long
2023-07-21,47822.5,19088.5,66911.0,10,Long
2023-07-23,47822.5,19031.0,66853.5,10,Long
2023-07-24,47822.5,19213.5,67036.0,10,Long
2023-07-25,47822.5,19916.0,67738.5,10,Long
2023-07-26,47822.5,20071.0,67893.5,10,Long
2023-07-27,47822.5,19403.5,67226.0,10,Long
2023-07-28,47822.5,21993.5,69816.0,10,Long
2023-07-30,47822.5,22411.0,70233.5,10,Long
2023-07-31,47822.5,22141.0,69963.5,10,Long
2023-08-01,47822.5,21068.5,68891.0,10,Long
2023-08-02,47822.5,18458.5,66281.0,10,Long
2023-08-03,47822.5,18351.0,66173.5,10,Long
2023-08-04,66171.0,0.0,66171.0,0,
2023-08-06,66171.0,0.0,66171.0,0,
2023-08-07,66171.0,0.0,66171.0,0,
2023-08-08,66171.0,0.0,66171.0,0,
2023-08-09,66171.0,0.0,66171.0,0,
2023-08-10,66171.0,0.0,66171.0,0,
2023-08-11,66171.0,0.0,66171.0,0,
2023-08-13,66171.0,0.0,66171.0,0,
2023-08-14,66171.0,0.0,66171.0,0,
2023-08-15,66171.0,0.0,66171.0,0,
2023-08-16,66171.0,0.0,66171.0,0,
2023-08-17,66171.0,0.0,66171.0,0,
2023-08-18,66171.0,0.0,66171.0,0,
2023-08-20,66171.0,0.0,66171.0,0,
2023-08-21,66171.0,0.0,66171.0,0,
2023-08-22,66171.0,0.0,66171.0,0,
2023-08-23,66171.0,0.0,66171.0,0,
2023-08-24,66171.0,0.0,66171.0,0,
2023-08-25,66171.0,0.0,66171.0,0,
2023-08-27,66171.0,0.0,66171.0,0,
2023-08-28,66171.0,0.0,66171.0,0,
2023-08-29,66171.0,0.0,66171.0,0,
2023-08-30,66171.0,68.25,66239.25,1,Long
2023-08-31,66171.0,101.75,66272.75,1,Long
2023-09-01,66171.0,77.75,66248.75,1,Long
2023-09-03,66171.0,82.0,66253.0,1,Long
2023-09-04,66171.0,91.5,66262.5,1,Long
2023-09-05,66171.0,87.25,66258.25,1,Long
2023-09-06,66171.0,-43.5,66127.5,1,Long
2023-09-07,66126.75,0.0,66126.75,0,
2023-09-08,66126.75,0.0,66126.75,0,
2023-09-10,66126.75,0.0,66126.75,0,
2023-09-11,66126.75,0.0,66126.75,0,
2023-09-12,66126.75,-152.25,65974.5,1,Long
2023-09-13,66126.75,-78.25,66048.5,1,Long
2023-09-14,66126.75,19.25,66146.0,1,Long
2023-09-15,66126.75,-274.75,65852.0,1,Long
2023-09-17,65852.5,0.0,65852.5,0,
2023-09-18,65852.5,0.0,65852.5,0,
2023-09-19,65852.5,0.0,65852.5,0,
2023-09-20,65852.5,0.0,65852.5,0,
2023-09-21,65852.5,0.0,65852.5,0,
2023-09-22,65852.5,0.0,65852.5,0,
2023-09-24,65852.5,0.0,65852.5,0,
2023-09-25,65852.5,0.0,65852.5,0,
2023-09-26,65852.5,0.0,65852.5,0,
2023-09-27,65852.5,0.0,65852.5,0,
2023-09-28,65852.5,0.0,65852.5,0,
2023-09-29,65852.5,0.0,65852.5,0,
2023-10-01,65852.5,0.0,65852.5,0,
2023-10-02,65852.5,0.0,65852.5,0,
2023-10-03,65852.5,0.0,65852.5,0,
2023-10-04,65852.5,0.0,65852.5,0,
2023-10-05,65852.5,0.0,65852.5,0,
2023-10-06,65852.5,0.0,65852.5,0,
2023-10-08,65852.5,0.0,65852.5,0,
2023-10-09,65852.5,0.0,65852.5,0,
2023-10-10,65852.5,0.0,65852.5,0,
2023-10-11,65852.5,0.0,65852.5,0,
2023-10-12,65852.5,-84.75,65767.75,1,Long
2023-10-13,65767.75,0.0,65767.75,0,
2023-10-15,65767.75,0.0,65767.75,0,
2023-10-16,65767.75,0.0,65767.75,0,
2023-10-17,65767.75,0.0,65767.75,0,
2023-10-18,65767.75,0.0,65767.75,0,
2023-10-19,65767.75,0.0,65767.75,0,
2023-10-20,65767.75,0.0,65767.75,0,
2023-10-22,65767.75,0.0,65767.75,0,
2023-10-23,65767.75,0.0,65767.75,0,
2023-10-24,65767.75,0.0,65767.75,0,
2023-10-25,65767.75,0.0,65767.75,0,
2023-10-26,65767.75,0.0,65767.75,0,
2023-10-27,65767.75,0.0,65767.75,0,
2023-10-29,65767.75,0.0,65767.75,0,
2023-10-30,65767.75,0.0,65767.75,0,
2023-10-31,65767.75,0.0,65767.75,0,
2023-11-01,65767.75,0.0,65767.75,0,
2023-11-02,65767.75,0.0,65767.75,0,
2023-11-03,65767.75,0.0,65767.75,0,
2023-11-05,65767.75,-11.25,65756.5,1,Long
2023-11-06,65756.5,0.0,65756.5,0,
2023-11-07,65756.5,159.5,65916.0,1,Long
2023-11-08,65756.5,149.25,65905.75,1,Long
2023-11-09,65756.5,24.0,65780.5,1,Long
2023-11-10,65756.5,372.5,66129.0,1,Long
2023-11-12,65756.5,351.5,66108.0,1,Long
2023-11-13,65756.5,349.75,66106.25,1,Long
2023-11-14,65756.5,696.0,66452.5,1,Long
2023-11-15,65756.5,656.25,66412.75,1,Long
2023-11-16,65756.5,677.0,66433.5,1,Long
2023-11-17,65756.5,666.0,66422.5,2,Long
2023-11-19,65756.5,645.5,66402.0,2,Long
2023-11-20,65756.5,1119.5,66876.0,2,Long
2023-11-21,65756.5,826.5,66583.0,2,Long
2023-11-22,65756.5,1009.5,66766.0,2,Long
2023-11-23,65756.5,1047.0,66803.5,2,Long
2023-11-24,65756.5,939.5,66696.0,2,Long
2023-11-26,65756.5,890.5,66647.0,2,Long
2023-11-27,65756.5,937.5,66694.0,2,Long
2023-11-28,65756.5,1024.5,66781.0,2,Long
2023-11-29,65756.5,1012.0,66768.5,2,Long
2023-11-30,65756.5,847.0,66603.5,2,Long
2023-12-01,65756.5,1005.5,66762.0,4,Long
2023-12-03,65756.5,849.5,66606.0,4,Long
2023-12-04,65756.5,279.5,66036.0,4,Long
2023-12-05,65756.5,593.5,66350.0,4,Long
2023-12-06,65756.5,147.5,65904.0,4,Long
2023-12-07,65756.5,961.5,66718.0,4,Long
2023-12-08,65756.5,1251.5,67008.0,4,Long
2023-12-10,65756.5,1299.5,67056.0,4,Long
2023-12-11,65756.5,2700.5,68457.0,4,Long
2023-12-12,65756.5,3319.5,69076.0,4,Long
2023-12-13,65756.5,4145.5,69902.0,4,Long
2023-12-14,65756.5,3923.5,69680.0,4,Long
2023-12-15,65756.5,4107.5,69864.0,6,Long
2023-12-17,65756.5,4154.0,69910.5,6,Long
2023-12-18,65756.5,4757.0,70513.5,6,Long
2023-12-19,65756.5,5378.0,71134.5,6,Long
2023-12-20,65756.5,4082.0,69838.5,6,Long
2023-12-21,65756.5,4863.5,70620.0,6,Long
2023-12-22,65756.5,4986.5,70743.0,6,Long
2023-12-25,65756.5,5235.5,70992.0,6,Long
2023-12-26,65756.5,5748.5,71505.0,6,Long
2023-12-27,65756.5,5942.0,71698.5,6,Long
2023-12-28,65756.5,5816.0,71572.5,6,Long
2023-12-29,65756.5,5208.5,70965.0,8,Long
2024-01-01,65756.5,5414.5,71171.0,8,Long
2024-01-02,65756.5,2972.5,68729.0,8,Long
2024-01-03,68731.0,0.0,68731.0,0,
2024-01-04,68731.0,0.0,68731.0,0,
2024-01-05,68731.0,0.0,68731.0,0,
2024-01-07,68731.0,0.0,68731.0,0,
2024-01-08,68731.0,0.0,68731.0,0,
2024-01-09,68731.0,0.0,68731.0,0,
2024-01-10,68731.0,0.0,68731.0,0,
2024-01-11,68731.0,0.0,68731.0,0,
2024-01-12,68731.0,0.0,68731.0,0,
2024-01-14,68731.0,0.0,68731.0,0,
2024-01-15,68731.0,0.0,68731.0,0,
2024-01-16,68731.0,0.0,68731.0,0,
2024-01-17,68731.0,-125.5,68605.5,1,Long
2024-01-18,68605.5,0.0,68605.5,0,
2024-01-19,68605.5,315.0,68920.5,1,Long
2024-01-21,68605.5,335.5,68941.0,1,Long
2024-01-22,68605.5,316.25,68921.75,1,Long
2024-01-23,68605.5,427.75,69033.25,1,Long
2024-01-24,68605.5,468.75,69074.25,1,Long
2024-01-25,68605.5,394.25,68999.75,1,Long
2024-01-26,68605.5,356.5,68962.0,1,Long
2024-01-28,68605.5,331.5,68937.0,1,Long
2024-01-29,68605.5,573.75,69179.25,1,Long
2024-01-30,68605.5,300.0,68905.5,1,Long
2024-01-31,68605.5,134.25,68739.75,1,Long
2024-02-01,68605.5,445.25,69050.75,1,Long
2024-02-02,68605.5,472.5,69078.0,2,Long
2024-02-04,68605.5,515.5,69121.0,2,Long
2024-02-05,68605.5,493.0,69098.5,2,Long
2024-02-06,68605.5,404.5,69010.0,2,Long
2024-02-07,68605.5,785.5,69391.0,2,Long
2024-02-08,68605.5,835.0,69440.5,2,Long
2024-02-09,68605.5,1176.0,69781.5,2,Long
2024-02-11,68605.5,1170.5,69776.0,2,Long
2024-02-12,68605.5,975.0,69580.5,2,Long
2024-02-13,68605.5,481.0,69086.5,2,Long
2024-02-14,68605.5,858.0,69463.5,2,Long
2024-02-15,68605.5,1005.5,69611.0,2,Long
2024-02-16,68605.5,523.5,69129.0,4,Long
2024-02-18,68605.5,748.5,69354.0,4,Long
2024-02-19,68605.5,631.5,69237.0,4,Long
2024-02-20,68605.5,-88.5,68517.0,4,Long
2024-02-21,68605.5,454.5,69060.0,4,Long
2024-02-22,68605.5,1804.5,70410.0,4,Long
2024-02-23,68605.5,1482.5,70088.0,4,Long
2024-02-25,68605.5,1568.5,70174.0,4,Long
2024-02-26,68605.5,1490.5,70096.0,4,Long
2024-02-27,68605.5,1658.5,70264.0,4,Long
2024-02-28,68605.5,1117.5,69723.0,4,Long
2024-02-29,68605.5,1876.5,70482.0,4,Long
2024-03-01,68605.5,2877.0,71482.5,6,Long
2024-03-03,68605.5,3009.0,71614.5,6,Long
2024-03-04,68605.5,2287.5,70893.0,6,Long
2024-03-05,68605.5,723.0,69328.5,6,Long
2024-03-06,68605.5,1059.0,69664.5,6,Long
2024-03-07,68605.5,2545.5,71151.0,6,Long
2024-03-08,68605.5,1279.5,69885.0,6,Long
2024-03-10,68605.5,1204.5,69810.0,6,Long
2024-03-11,68605.5,2712.0,71317.5,6,Long
2024-03-12,68605.5,3819.0,72424.5,6,Long
2024-03-13,68605.5,3186.0,71791.5,6,Long
2024-03-14,68605.5,2379.0,70984.5,6,Long
2024-03-15,68605.5,1317.0,69922.5,8,Long
2024-03-17,68605.5,1441.0,70046.5,8,Long
2024-03-18,68605.5,2341.0,70946.5,8,Long
2024-03-19,68605.5,2957.0,71562.5,8,Long
2024-03-20,68605.5,5439.0,74044.5,8,Long
2024-03-21,68605.5,5521.0,74126.5,8,Long
2024-03-22,68605.5,5321.0,73926.5,8,Long
2024-03-24,68605.5,5497.0,74102.5,8,Long
2024-03-25,68605.5,5133.0,73738.5,8,Long
2024-03-26,68605.5,4723.0,73328.5,8,Long
2024-03-27,68605.5,4651.0,73256.5,8,Long
2024-03-28,68605.5,4531.0,73136.5,8,Long
2024-03-31,68605.5,5677.0,74282.5,8,Long
2024-04-01,68605.5,4571.0,73176.5,8,Long
2024-04-02,68605.5,3437.0,72042.5,8,Long
2024-04-03,68605.5,4375.0,72980.5,8,Long
2024-04-04,68605.5,1541.0,70146.5,8,Long
2024-04-05,68605.5,3308.5,71914.0,9,Long
2024-04-07,68605.5,3385.0,71990.5,9,Long
2024-04-08,68605.5,3229.75,71835.25,9,Long
2024-04-09,68605.5,3826.0,72431.5,9,Long
2024-04-10,68605.5,1940.5,70546.0,9,Long
2024-04-11,68605.5,4926.25,73531.75,9,Long
2024-04-12,68605.5,2057.5,70663.0,9,Long
2024-04-14,68605.5,2653.75,71259.25,9,Long
2024-04-15,71261.5,0.0,71261.5,0,
2024-04-16,71261.5,0.0,71261.5,0,
2024-04-17,71261.5,0.0,71261.5,0,
2024-04-18,71261.5,0.0,71261.5,0,
2024-04-19,71261.5,0.0,71261.5,0,
2024-04-21,71261.5,0.0,71261.5,0,
2024-04-22,71261.5,0.0,71261.5,0,
2024-04-23,71261.5,0.0,71261.5,0,
2024-04-24,71261.5,0.0,71261.5,0,
2024-04-25,71261.5,0.0,71261.5,0,
2024-04-26,71261.5,0.0,71261.5,0,
2024-04-28,71261.5,0.0,71261.5,0,
2024-04-29,71261.5,0.0,71261.5,0,
2024-04-30,71261.5,0.0,71261.5,0,
2024-05-01,71261.5,0.0,71261.5,0,
2024-05-02,71261.5,0.0,71261.5,0,
2024-05-03,71261.5,0.0,71261.5,0,
2024-05-05,71261.5,0.0,71261.5,0,
2024-05-06,71261.5,0.0,71261.5,0,
2024-05-07,71261.5,20.5,71282.0,1,Long
2024-05-08,71261.5,-22.0,71239.5,1,Long
2024-05-09,71239.25,0.0,71239.25,0,
2024-05-10,71239.25,7.75,71247.0,1,Long
2024-05-12,71239.25,13.75,71253.0,1,Long
2024-05-13,71239.25,52.0,71291.25,1,Long
2024-05-14,71239.25,185.25,71424.5,1,Long
2024-05-15,71239.25,489.25,71728.5,1,Long
2024-05-16,71239.25,419.5,71658.75,1,Long
2024-05-17,71239.25,402.0,71641.25,1,Long
2024-05-19,71239.25,435.25,71674.5,1,Long
2024-05-20,71239.25,520.0,71759.25,1,Long
2024-05-21,71239.25,581.75,71821.0,1,Long
2024-05-22,71239.25,643.0,71882.25,1,Long
2024-05-23,71239.25,469.25,71708.5,1,Long
2024-05-24,71239.25,653.25,71892.5,2,Long
2024-05-26,71239.25,582.75,71822.0,2,Long
2024-05-27,71239.25,726.25,71965.5,2,Long
2024-05-28,71239.25,769.75,72009.0,2,Long
2024-05-29,71239.25,356.75,71596.0,2,Long
2024-05-30,71239.25,27.75,71267.0,2,Long
2024-05-31,71239.25,53.25,71292.5,2,Long
2024-06-02,71239.25,93.75,71333.0,2,Long
2024-06-03,71239.25,210.75,71450.0,2,Long
2024-06-04,71239.25,385.25,71624.5,2,Long
2024-06-05,71239.25,1092.25,72331.5,2,Long
2024-06-06,71239.25,1059.75,72299.0,2,Long
2024-06-07,71239.25,959.75,72199.0,4,Long
2024-06-09,71239.25,943.75,72183.0,4,Long
2024-06-10,71239.25,1174.75,72414.0,4,Long
2024-06-11,71239.25,1862.75,73102.0,4,Long
2024-06-12,71239.25,3236.75,74476.0,4,Long
2024-06-13,71239.25,3309.75,74549.0,4,Long
2024-06-14,71239.25,3620.75,74860.0,4,Long
2024-06-16,71239.25,3681.75,74921.0,4,Long
2024-06-17,71239.25,5655.75,76895.0,4,Long
2024-06-18,71239.25,5728.75,76968.0,4,Long
2024-06-19,71239.25,5779.75,77019.0,4,Long
2024-06-20,71239.25,5113.75,76353.0,4,Long
2024-06-21,71239.25,4910.75,76150.0,6,Long
2024-06-23,71239.25,4906.25,76145.5,6,Long
2024-06-24,71239.25,3487.25,74726.5,6,Long
2024-06-25,71239.25,4651.25,75890.5,6,Long
2024-06-26,71239.25,4369.25,75608.5,6,Long
2024-06-27,71239.25,5429.75,76669.0,6,Long
2024-06-28,71239.25,4658.75,75898.0,6,Long
2024-06-30,71239.25,4532.75,75772.0,6,Long
2024-07-01,71239.25,4970.75,76210.0,6,Long
2024-07-02,71239.25,6283.25,77522.5,6,Long
2024-07-03,71239.25,7270.25,78509.5,6,Long
2024-07-04,71239.25,7199.75,78439.0,6,Long
2024-07-05,71239.25,8324.75,79564.0,8,Long
2024-07-07,71239.25,8326.75,79566.0,8,Long
2024-07-08,71239.25,9508.75,80748.0,8,Long
2024-07-09,71239.25,9182.75,80422.0,8,Long
2024-07-10,71239.25,10652.75,81892.0,8,Long
2024-07-11,71239.25,6918.75,78158.0,8,Long
2024-07-12,71239.25,7920.75,79160.0,8,Long
2024-07-14,71239.25,8082.75,79322.0,8,Long
2024-07-15,71239.25,8656.75,79896.0,8,Long
2024-07-16,71239.25,8124.75,79364.0,8,Long
2024-07-17,79364.0,0.0,79364.0,0,
2024-07-18,79364.0,0.0,79364.0,0,
2024-07-19,79364.0,0.0,79364.0,0,
2024-07-21,79364.0,0.0,79364.0,0,
2024-07-22,79364.0,0.0,79364.0,0,
2024-07-23,79364.0,0.0,79364.0,0,
2024-07-24,79364.0,0.0,79364.0,0,
2024-07-25,79364.0,0.0,79364.0,0,
2024-07-26,79364.0,0.0,79364.0,0,
2024-07-28,79364.0,0.0,79364.0,0,
2024-07-29,79364.0,0.0,79364.0,0,
2024-07-30,79364.0,0.0,79364.0,0,
2024-07-31,79364.0,0.0,79364.0,0,
2024-08-01,79364.0,0.0,79364.0,0,
2024-08-02,79364.0,0.0,79364.0,0,
2024-08-04,79364.0,0.0,79364.0,0,
2024-08-05,79364.0,0.0,79364.0,0,
2024-08-06,79364.0,0.0,79364.0,0,
2024-08-07,79364.0,0.0,79364.0,0,
2024-08-08,79364.0,0.0,79364.0,0,
2024-08-09,79364.0,0.0,79364.0,0,
2024-08-11,79364.0,0.0,79364.0,0,
2024-08-12,79364.0,0.0,79364.0,0,
2024-08-13,79364.0,0.0,79364.0,0,
2024-08-14,79364.0,-10.0,79354.0,1,Long
2024-08-15,79353.75,0.0,79353.75,0,
2024-08-16,79353.75,-9.5,79344.25,1,Long
2024-08-18,79353.75,34.5,79388.25,1,Long
2024-08-19,79353.75,247.0,79600.75,1,Long
2024-08-20,79353.75,176.0,79529.75,1,Long
2024-08-21,79353.75,322.5,79676.25,1,Long
2024-08-22,79353.75,24.75,79378.5,1,Long
2024-08-23,79353.75,163.75,79517.5,1,Long
2024-08-25,79353.75,149.0,79502.75,1,Long
2024-08-26,79353.75,-42.75,79311.0,1,Long
2024-08-27,79353.75,-27.0,79326.75,1,Long
2024-08-28,79353.75,-421.25,78932.5,1,Long
2024-08-29,79353.75,-184.0,79169.75,1,Long
2024-08-30,79353.75,37.0,79390.75,2,Long
2024-09-01,79353.75,21.0,79374.75,2,Long
2024-09-02,79353.75,10.0,79363.75,2,Long
2024-09-03,79353.75,-1236.0,78117.75,2,Long
2024-09-04,78118.75,0.0,78118.75,0,
2024-09-05,78118.75,0.0,78118.75,0,
2024-09-06,78118.75,0.0,78118.75,0,
2024-09-08,78118.75,0.0,78118.75,0,
2024-09-09,78118.75,0.0,78118.75,0,
2024-09-10,78118.75,0.0,78118.75,0,
2024-09-11,78118.75,0.0,78118.75,0,
2024-09-12,78118.75,0.0,78118.75,0,
2024-09-13,78118.75,0.0,78118.75,0,
2024-09-15,78118.75,40.25,78159.0,1,Long
2024-09-16,78118.75,174.75,78293.5,1,Long
2024-09-17,78118.75,207.25,78326.0,1,Long
2024-09-18,78118.75,265.25,78384.0,1,Long
2024-09-19,78118.75,551.0,78669.75,1,Long
2024-09-20,78118.75,516.25,78635.0,1,Long
2024-09-22,78118.75,564.0,78682.75,1,Long
2024-09-23,78118.75,570.25,78689.0,1,Long
2024-09-24,78118.75,681.5,78800.25,1,Long
2024-09-25,78118.75,779.5,78898.25,1,Long
2024-09-26,78118.75,845.75,78964.5,1,Long
2024-09-27,78118.75,674.5,78793.25,2,Long
2024-09-29,78118.75,832.5,78951.25,2,Long
2024-09-30,78118.75,782.5,78901.25,2,Long
2024-10-01,78118.75,152.5,78271.25,2,Long
2024-10-02,78118.75,397.0,78515.75,2,Long
2024-10-03,78118.75,253.5,78372.25,2,Long
2024-10-04,78118.75,694.0,78812.75,2,Long
2024-10-06,78118.75,748.5,78867.25,2,Long
2024-10-07,78118.75,253.5,78372.25,2,Long
2024-10-08,78118.75,833.5,78952.25,2,Long
2024-10-09,78118.75,1188.0,79306.75,2,Long
2024-10-10,78118.75,1190.5,79309.25,2,Long
2024-10-11,78118.75,992.0,79110.75,4,Long
2024-10-13,78118.75,1051.0,79169.75,4,Long
2024-10-14,78118.75,1870.0,79988.75,4,Long
2024-10-15,78118.75,750.0,78868.75,4,Long
2024-10-16,78118.75,598.0,78716.75,4,Long
2024-10-17,78118.75,963.0,79081.75,4,Long
2024-10-18,78118.75,1280.0,79398.75,4,Long
2024-10-20,78118.75,1397.0,79515.75,4,Long
2024-10-21,78118.75,1406.0,79524.75,4,Long
2024-10-22,78118.75,1461.0,79579.75,4,Long
2024-10-23,78118.75,503.0,78621.75,4,Long
2024-10-24,78118.75,867.0,78985.75,4,Long
2024-10-25,78118.75,1167.0,79285.75,6,Long
2024-10-27,78118.75,1894.5,80013.25,6,Long
2024-10-28,78118.75,1351.5,79470.25,6,Long
2024-10-29,78118.75,2791.5,80910.25,6,Long
2024-10-30,78118.75,862.5,78981.25,6,Long
2024-10-31,78118.75,-1252.5,76866.25,6,Long
2024-11-01,78118.75,-679.5,77439.25,6,Long
2024-11-03,78118.75,-886.5,77232.25,6,Long
2024-11-04,78118.75,-1167.0,76951.75,6,Long
2024-11-05,78118.75,367.5,78486.25,6,Long
2024-11-06,78118.75,3649.5,81768.25,6,Long
2024-11-07,78118.75,5664.0,83782.75,6,Long
2024-11-08,78118.75,5682.0,83800.75,8,Long
2024-11-10,78118.75,6298.0,84416.75,8,Long
2024-11-11,78118.75,5594.0,83712.75,8,Long
2024-11-12,78118.75,5146.0,83264.75,8,Long
2024-11-13,78118.75,5194.0,83312.75,8,Long
2024-11-14,78118.75,3462.0,81580.75,8,Long
2024-11-15,78118.75,-106.0,78012.75,8,Long
2024-11-17,78118.75,412.0,78530.75,8,Long
2024-11-18,78118.75,844.0,78962.75,8,Long
2024-11-19,78118.75,2130.0,80248.75,8,Long
2024-11-20,78118.75,1886.0,80004.75,8,Long
2024-11-21,78118.75,2054.0,80172.75,8,Long
2024-11-22,78118.75,2935.75,81054.5,9,Long
2024-11-24,78118.75,3451.0,81569.75,9,Long
2024-11-25,78118.75,2537.5,80656.25,9,Long
2024-11-26,78118.75,3901.0,82019.75,9,Long
2024-11-27,78118.75,2438.5,80557.25,9,Long
2024-11-28,78118.75,3019.0,81137.75,9,Long
2024-11-29,78118.75,3952.75,82071.5,9,Long
2024-12-01,78118.75,3709.75,81828.5,9,Long
2024-12-02,78118.75,5953.0,84071.75,9,Long
2024-12-03,78118.75,7024.0,85142.75,9,Long
2024-12-04,78118.75,8621.5,86740.25,9,Long
2024-12-05,78118.75,8131.0,86249.75,9,Long
2024-12-06,78118.75,9726.25,87845.0,10,Long
2024-12-08,78118.75,9963.75,88082.5,10,Long
2024-12-09,78118.75,8041.25,86160.0,10,Long
2024-12-10,78118.75,7671.25,85790.0,10,Long
2024-12-11,78118.75,10968.75,89087.5,10,Long
2024-12-12,78118.75,10831.25,88950.0,10,Long
2024-12-13,78118.75,10991.25,89110.0,10,Long
2024-12-15,78118.75,11278.75,89397.5,10,Long
2024-12-16,78118.75,14376.25,92495.0,10,Long
2024-12-17,78118.75,16128.75,94247.5,10,Long
2024-12-18,94247.5,0.0,94247.5,0,
2024-12-19,94247.5,0.0,94247.5,0,
2024-12-20,94247.5,0.0,94247.5,0,
2024-12-22,94247.5,0.0,94247.5,0,
2024-12-23,94247.5,0.0,94247.5,0,
2024-12-24,94247.5,0.0,94247.5,0,
2024-12-25,94247.5,0.0,94247.5,0,
2024-12-26,94247.5,0.0,94247.5,0,
2024-12-27,94247.5,0.0,94247.5,0,
2024-12-29,94247.5,0.0,94247.5,0,
2024-12-30,94247.5,0.0,94247.5,0,
2024-12-31,94247.5,0.0,94247.5,0,
2025-01-01,94247.5,0.0,94247.5,0,
2025-01-02,94247.5,0.0,94247.5,0,
2025-01-03,94247.5,0.0,94247.5,0,
2025-01-05,94247.5,0.0,94247.5,0,
2025-01-06,94247.5,0.0,94247.5,0,
2025-01-07,94247.5,0.0,94247.5,0,
2025-01-08,94247.5,0.0,94247.5,0,
2025-01-09,94247.5,0.0,94247.5,0,
2025-01-10,94247.5,0.0,94247.5,0,
2025-01-12,94247.5,0.0,94247.5,0,
2025-01-13,94247.5,0.0,94247.5,0,
2025-01-14,94247.5,0.0,94247.5,0,
2025-01-15,94247.5,0.0,94247.5,0,
2025-01-16,94247.5,0.0,94247.5,0,
2025-01-17,94247.5,0.0,94247.5,0,
2025-01-19,94247.5,0.0,94247.5,0,
2025-01-20,94247.5,0.0,94247.5,0,
2025-01-21,94247.5,0.0,94247.5,0,
2025-01-22,94247.5,0.0,94247.5,0,
2025-01-23,94247.5,45.25,94292.75,1,Long
2025-01-24,94247.5,-57.0,94190.5,1,Long
2025-01-26,94055.75,0.0,94055.75,0,
2025-01-27,94055.75,0.0,94055.75,0,
2025-01-28,94055.75,0.0,94055.75,0,
2025-01-29,94055.75,0.0,94055.75,0,
2025-01-30,94055.75,0.0,94055.75,0,
2025-01-31,94055.75,0.0,94055.75,0,
2025-02-02,94055.75,0.0,94055.75,0,
2025-02-03,94055.75,0.0,94055.75,0,
2025-02-04,94055.75,0.0,94055.75,0,
2025-02-05,94055.75,0.0,94055.75,0,
2025-02-06,94055.75,0.0,94055.75,0,
2025-02-07,94055.75,0.0,94055.75,0,
2025-02-09,94055.75,0.0,94055.75,0,
2025-02-10,94055.75,0.0,94055.75,0,
2025-02-11,94055.75,0.0,94055.75,0,
2025-02-12,94055.75,0.0,94055.75,0,
2025-02-13,94055.75,0.0,94055.75,0,
2025-02-14,94055.75,118.25,94174.0,1,Long
2025-02-16,94055.75,126.75,94182.5,1,Long
2025-02-17,94055.75,135.75,94191.5,1,Long
2025-02-18,94055.75,165.75,94221.5,1,Long
2025-02-19,94055.75,132.75,94188.5,1,Long
2025-02-20,94055.75,76.75,94132.5,1,Long
2025-02-21,94055.75,-425.25,93630.5,1,Long
2025-02-23,93671.75,0.0,93671.75,0,
2025-02-24,93671.75,0.0,93671.75,0,
2025-02-25,93671.75,0.0,93671.75,0,
2025-02-26,93671.75,0.0,93671.75,0,
2025-02-27,93671.75,0.0,93671.75,0,
2025-02-28,93671.75,0.0,93671.75,0,
2025-03-02,93671.75,0.0,93671.75,0,
2025-03-03,93671.75,0.0,93671.75,0,
2025-03-04,93671.75,0.0,93671.75,0,
2025-03-05,93671.75,0.0,93671.75,0,
2025-03-06,93671.75,0.0,93671.75,0,
2025-03-07,93671.75,0.0,93671.75,0,
2025-03-09,93671.75,0.0,93671.75,0,
2025-03-10,93671.75,0.0,93671.75,0,
2025-03-11,93671.75,0.0,93671.75,0,
2025-03-12,93671.75,0.0,93671.75,0,
2025-03-13,93671.75,0.0,93671.75,0,
2025-03-14,93671.75,0.0,93671.75,0,
2025-03-16,93671.75,0.0,93671.75,0,
2025-03-17,93671.75,0.0,93671.75,0,
2025-03-18,93671.75,0.0,93671.75,0,
2025-03-19,93671.75,0.0,93671.75,0,
2025-03-20,93671.75,0.0,93671.75,0,
2025-03-21,93671.75,0.0,93671.75,0,
2025-03-23,93671.75,0.0,93671.75,0,
2025-03-24,93671.75,0.0,93671.75,0,
2025-03-25,93671.75,0.0,93671.75,0,
2025-03-26,93671.75,0.0,93671.75,0,
2025-03-27,93671.75,0.0,93671.75,0,
2025-03-28,93671.75,0.0,93671.75,0,
2025-03-30,93671.75,0.0,93671.75,0,
2025-03-31,93671.75,0.0,93671.75,0,
2025-04-01,93671.75,0.0,93671.75,0,
2025-04-02,93671.75,0.0,93671.75,0,
2025-04-03,93671.75,0.0,93671.75,0,
2025-04-04,93671.75,0.0,93671.75,0,
2025-04-06,93671.75,0.0,93671.75,0,
2025-04-07,93671.75,0.0,93671.75,0,
2025-04-08,93671.75,0.0,93671.75,0,
2025-04-09,93671.75,0.0,93671.75,0,
2025-04-10,93671.75,-956.0,92715.75,1,Long
2025-04-11,92714.25,0.0,92714.25,0,
2025-04-13,92714.25,0.0,92714.25,0,
2025-04-14,92714.25,0.0,92714.25,0,
2025-04-15,92714.25,0.0,92714.25,0,
2025-04-16,92714.25,0.0,92714.25,0,
2025-04-17,92714.25,0.0,92714.25,0,
2025-04-20,92714.25,0.0,92714.25,0,
2025-04-21,92714.25,0.0,92714.25,0,
2025-04-22,92714.25,0.0,92714.25,0,
2025-04-23,92714.25,0.0,92714.25,0,
2025-04-24,92714.25,0.0,92714.25,0,
2025-04-25,92714.25,142.0,92856.25,1,Long
2025-04-27,92714.25,41.5,92755.75,1,Long
2025-04-28,92714.25,115.75,92830.0,1,Long
2025-04-29,92714.25,150.5,92864.75,1,Long
2025-04-30,92714.25,504.25,93218.5,1,Long
2025-05-01,92714.25,377.5,93091.75,1,Long
2025-05-02,92714.25,787.75,93502.0,1,Long
2025-05-04,92714.25,672.5,93386.75,1,Long
2025-05-05,92714.25,595.75,93310.0,1,Long
2025-05-06,92714.25,654.75,93369.0,1,Long
2025-05-07,92714.25,539.5,93253.75,1,Long
2025-05-08,92714.25,726.5,93440.75,1,Long
2025-05-09,92714.25,737.75,93452.0,2,Long
2025-05-11,92714.25,1350.75,94065.0,2,Long
2025-05-12,92714.25,2261.75,94976.0,2,Long
2025-05-13,92714.25,3029.25,95743.5,2,Long
2025-05-14,92714.25,3195.75,95910.0,2,Long
2025-05-15,92714.25,3274.25,95988.5,2,Long
2025-05-16,92714.25,3253.25,95967.5,2,Long
2025-05-18,92714.25,3207.75,95922.0,2,Long
2025-05-19,92714.25,3524.25,96238.5,2,Long
2025-05-20,92714.25,3308.25,96022.5,2,Long
2025-05-21,92714.25,2739.25,95453.5,2,Long
2025-05-22,92714.25,2802.25,95516.5,2,Long
2025-05-23,92714.25,2226.25,94940.5,4,Long
2025-05-25,92714.25,3168.25,95882.5,4,Long
2025-05-26,92714.25,3357.25,96071.5,4,Long
2025-05-27,92714.25,4295.25,97009.5,4,Long
2025-05-28,92714.25,5477.25,98191.5,4,Long
2025-05-29,92714.25,3681.25,96395.5,4,Long
2025-05-30,92714.25,3889.25,96603.5,4,Long
2025-06-01,92714.25,3627.25,96341.5,4,Long
2025-06-02,92714.25,4392.25,97106.5,4,Long
2025-06-03,92714.25,5234.25,97948.5,4,Long
2025-06-04,92714.25,5378.25,98092.5,4,Long
2025-06-05,92714.25,4597.25,97311.5,4,Long
2025-06-06,92714.25,5671.75,98386.0,6,Long
2025-06-08,92714.25,5383.75,98098.0,6,Long
2025-06-09,92714.25,5805.25,98519.5,6,Long
2025-06-10,92714.25,6541.75,99256.0,6,Long
2025-06-11,92714.25,5844.25,98558.5,6,Long
2025-06-12,92714.25,5517.25,98231.5,6,Long
2025-06-13,92714.25,4737.25,97451.5,6,Long
2025-06-15,92714.25,4936.75,97651.0,6,Long
2025-06-16,92714.25,6907.75,99622.0,6,Long
2025-06-17,92714.25,6246.25,98960.5,6,Long
2025-06-18,92714.25,6505.75,99220.0,6,Long
2025-06-19,92714.25,6135.25,98849.5,6,Long
2025-06-20,92714.25,6190.25,98904.5,8,Long
2025-06-22,92714.25,5284.25,97998.5,8,Long
2025-06-23,92714.25,9088.25,101802.5,8,Long
2025-06-24,92714.25,10592.25,103306.5,8,Long
2025-06-25,92714.25,10918.25,103632.5,8,Long
2025-06-26,92714.25,12620.25,105334.5,8,Long
2025-06-27,92714.25,13120.25,105834.5,8,Long
2025-06-29,92714.25,13736.25,106450.5,8,Long
2025-06-30,92714.25,14250.25,106964.5,8,Long
2025-07-01,92714.25,12864.25,105578.5,8,Long
2025-07-02,92714.25,13986.25,106700.5,8,Long
2025-07-03,92714.25,15476.25,108190.5,8,Long
2025-07-04,92714.25,14434.25,107148.5,9,Long
2025-07-06,92714.25,15147.5,107861.75,9,Long
2025-07-07,92714.25,14159.75,106874.0,9,Long
2025-07-08,92714.25,14405.0,107119.25,9,Long
2025-07-09,92714.25,15608.75,108323.0,9,Long
2025-07-10,92714.25,15694.25,108408.5,9,Long
2025-07-11,92714.25,14729.0,107443.25,9,Long
2025-07-13,92714.25,14092.25,106806.5,9,Long
2025-07-14,92714.25,15397.25,108111.5,9,Long
2025-07-15,92714.25,15422.0,108136.25,9,Long
2025-07-16,92714.25,15658.25,108372.5,9,Long
2025-07-17,92714.25,17816.0,110530.25,9,Long
2025-07-18,92714.25,17367.75,110082.0,10,Long
2025-07-20,92714.25,17680.25,110394.5,10,Long
2025-07-21,92714.25,18545.25,111259.5,10,Long
2025-07-22,92714.25,17697.75,110412.0,10,Long
2025-07-23,92714.25,19090.25,111804.5,10,Long
2025-07-24,92714.25,19142.75,111857.0,10,Long
2025-07-25,92714.25,19552.75,112267.0,10,Long
2025-07-27,92714.25,20422.75,113137.0,10,Long
2025-07-28,92714.25,20365.25,113079.5,10,Long
2025-07-29,92714.25,19827.75,112542.0,10,Long
2025-07-30,92714.25,22330.25,115044.5,10,Long
2025-07-31,92714.25,18055.25,110769.5,10,Long
2025-08-01,110777.0,0.0,110777.0,0,
2025-08-03,110777.0,0.0,110777.0,0,
2025-08-04,110777.0,0.0,110777.0,0,
2025-08-05,110777.0,0.0,110777.0,0,
2025-08-06,110777.0,0.0,110777.0,0,
2025-08-07,110777.0,0.0,110777.0,0,
2025-08-08,110777.0,0.0,110777.0,0,
2025-08-10,110777.0,-59.5,110717.5,1,Long
2025-08-11,110716.75,0.0,110716.75,0,
2025-08-12,110716.75,0.0,110716.75,0,
2025-08-13,110716.75,-10.5,110706.25,1,Long
2025-08-14,110716.75,-71.0,110645.75,1,Long
2025-08-15,110716.75,-163.25,110553.5,1,Long
2025-08-17,110716.75,-108.75,110608.0,1,Long
2025-08-18,110716.75,-155.0,110561.75,1,Long
2025-08-19,110716.75,-537.75,110179.0,1,Long
2025-08-20,110179.75,0.0,110179.75,0,
2025-08-21,110179.75,0.0,110179.75,0,
2025-08-22,110179.75,0.0,110179.75,0,
2025-08-24,110179.75,0.0,110179.75,0,
2025-08-25,110179.75,0.0,110179.75,0,
2025-08-26,110179.75,0.0,110179.75,0,
2025-08-27,110179.75,0.0,110179.75,0,
2025-08-28,110179.75,0.0,110179.75,0,
2025-08-29,110179.75,0.0,110179.75,0,
2025-08-31,110179.75,0.0,110179.75,0,
2025-09-01,110179.75,0.0,110179.75,0,
2025-09-02,110179.75,0.0,110179.75,0,
2025-09-03,110179.75,0.0,110179.75,0,
2025-09-04,110179.75,0.0,110179.75,0,
2025-09-05,110179.75,0.0,110179.75,0,
2025-09-07,110179.75,0.0,110179.75,0,
2025-09-08,110179.75,29.25,110209.0,1,Long
2025-09-09,110179.75,107.75,110287.5,1,Long
2025-09-10,110179.75,122.75,110302.5,1,Long
2025-09-11,110179.75,241.25,110421.0,1,Long
2025-09-12,110179.75,336.5,110516.25,1,Long
2025-09-14,110179.75,333.0,110512.75,1,Long
2025-09-15,110179.75,527.0,110706.75,1,Long
2025-09-16,110179.75,765.0,110944.75,1,Long
2025-09-17,110179.75,806.0,110985.75,1,Long
2025-09-18,110179.75,962.0,111141.75,1,Long
2025-09-19,110179.75,1100.5,111280.25,2,Long
2025-09-21,110179.75,1080.5,111260.25,2,Long
2025-09-22,110179.75,1373.0,111552.75,2,Long
2025-09-23,110179.75,1059.5,111239.25,2,Long
2025-09-24,110179.75,889.5,111069.25,2,Long
2025-09-25,110179.75,611.5,110791.25,2,Long
2025-09-26,110179.75,833.0,111012.75,2,Long
2025-09-28,110179.75,922.5,111102.25,2,Long
2025-09-29,110179.75,1026.0,111205.75,2,Long
2025-09-30,110179.75,1038.5,111218.25,2,Long
2025-10-01,110179.75,1423.0,111602.75,2,Long
2025-10-02,110179.75,1626.5,111806.25,2,Long
2025-10-03,110179.75,1266.5,111446.25,4,Long
2025-10-05,110179.75,1607.5,111787.25,4,Long
2025-10-06,110179.75,1908.5,112088.25,4,Long
2025-10-07,110179.75,1474.5,111654.25,4,Long
2025-10-08,110179.75,2856.5,113036.25,4,Long
2025-10-09,110179.75,2680.5,112860.25,4,Long
2025-10-10,112862.25,0.0,112862.25,0,
2025-10-12,112862.25,0.0,112862.25,0,
2025-10-13,112862.25,0.0,112862.25,0,
2025-10-14,112862.25,0.0,112862.25,0,
2025-10-15,112862.25,0.0,112862.25,0,
2025-10-16,112862.25,0.0,112862.25,0,
2025-10-17,112862.25,0.0,112862.25,0,
2025-10-19,112862.25,0.0,112862.25,0,
2025-10-20,112862.25,0.0,112862.25,0,
2025-10-21,112862.25,0.0,112862.25,0,
2025-10-22,112862.25,0.0,112862.25,0,
2025-10-23,112862.25,0.0,112862.25,0,
2025-10-24,112862.25,0.0,112862.25,0,
2025-10-26,112862.25,0.0,112862.25,0,
2025-10-27,112862.25,277.75,113140.0,1,Long
2025-10-28,112862.25,467.0,113329.25,1,Long
2025-10-29,112862.25,518.75,113381.0,1,Long
2025-10-30,112862.25,453.5,113315.75,1,Long
2025-10-31,112862.25,266.75,113129.0,1,Long
2025-11-02,112862.25,363.75,113226.0,1,Long
2025-11-03,112862.25,352.0,113214.25,1,Long
2025-11-04,112862.25,-213.25,112649.0,1,Long
2025-11-05,112649.5,0.0,112649.5,0,
2025-11-06,112649.5,-456.0,112193.5,1,Long
2025-11-07,112193.5,0.0,112193.5,0,
2025-11-09,112193.5,0.0,112193.5,0,
2025-11-10,112193.5,0.0,112193.5,0,
2025-11-11,112193.5,-91.75,112101.75,1,Long
2025-11-12,112102.0,0.0,112102.0,0,
2025-11-13,112102.0,0.0,112102.0,0,
2025-11-14,112102.0,0.0,112102.0,0,
2025-11-16,112102.0,0.0,112102.0,0,
2025-11-17,112102.0,0.0,112102.0,0,
2025-11-18,112102.0,0.0,112102.0,0,
2025-11-19,112102.0,0.0,112102.0,0,
2025-11-20,112102.0,0.0,112102.0,0,
2025-11-21,112102.0,0.0,112102.0,0,
2025-11-23,112102.0,0.0,112102.0,0,
2025-11-24,112102.0,0.0,112102.0,0,
2025-11-25,112102.0,0.0,112102.0,0,
2025-11-26,112102.0,0.0,112102.0,0,
2025-11-27,112102.0,0.0,112102.0,0,
2025-11-28,112102.0,0.0,112102.0,0,
2025-11-30,112102.0,0.0,112102.0,0,
2025-12-01,112102.0,0.0,112102.0,0,
2025-12-02,112102.0,0.0,112102.0,0,
2025-12-03,112102.0,0.0,112102.0,0,
2025-12-04,112102.0,0.0,112102.0,0,
2025-12-05,112102.0,0.0,112102.0,0,
2025-12-07,112102.0,0.0,112102.0,0,
2025-12-08,112102.0,0.0,112102.0,0,
2025-12-09,112102.0,0.0,112102.0,0,
2025-12-10,112102.0,0.0,112102.0,0,
2025-12-11,112102.0,0.0,112102.0,0,
2025-12-12,112102.0,0.0,112102.0,0,
2025-12-14,112102.0,0.0,112102.0,0,
2025-12-15,112102.0,0.0,112102.0,0,
2025-12-16,112102.0,0.0,112102.0,0,
2025-12-17,112102.0,0.0,112102.0,0,
2025-12-18,112102.0,0.0,112102.0,0,
2025-12-19,112102.0,0.0,112102.0,0,
2025-12-21,112102.0,0.0,112102.0,0,
2025-12-22,112102.0,0.0,112102.0,0,
2025-12-23,112102.0,0.0,112102.0,0,
2025-12-24,112102.0,0.0,112102.0,0,
2025-12-25,112102.0,17.25,112119.25,1,Long
2025-12-26,112102.0,-13.0,112089.0,1,Long
2025-12-28,112101.0,0.0,112101.0,0,
2025-12-29,112101.0,0.0,112101.0,0,
2025-12-30,112101.0,0.0,112101.0,0,
2025-12-31,112101.0,0.0,112101.0,0,
2026-01-01,112101.0,0.0,112101.0,0,
2026-01-02,112101.0,0.0,112101.0,0,
2026-01-04,112101.0,0.0,112101.0,0,
2026-01-05,112101.0,0.0,112101.0,0,
2026-01-06,112101.0,0.0,112101.0,0,
2026-01-07,112101.0,0.0,112101.0,0,
2026-01-08,112101.0,0.0,112101.0,0,
2026-01-09,112101.0,0.0,112101.0,0,
2026-01-11,112101.0,-52.5,112048.5,1,Long
2026-01-12,112101.0,-50.75,112050.25,1,Long
2026-01-13,112101.0,-55.5,112045.5,1,Long
2026-01-14,112101.0,-341.0,111760.0,1,Long
2026-01-15,111760.0,0.0,111760.0,0,
2026-01-16,111760.0,0.0,111760.0,0,
2026-01-18,111760.0,0.0,111760.0,0,
2026-01-19,111760.0,0.0,111760.0,0,
2026-01-20,111760.0,0.0,111760.0,0,
2026-01-21,111760.0,0.0,111760.0,0,
2026-01-22,111760.0,0.0,111760.0,0,
2026-01-23,111760.0,0.0,111760.0,0,
2026-01-25,111760.0,0.0,111760.0,0,
2026-01-26,111760.0,0.0,111760.0,0,
2026-01-27,111760.0,0.0,111760.0,0,
2026-01-28,111760.0,32.0,111792.0,1,Long
2026-01-29,111760.0,-166.0,111594.0,1,Long
2026-01-30,111593.5,0.0,111593.5,0,
2026-02-01,111593.5,0.0,111593.5,0,
2026-02-02,111593.5,0.0,111593.5,0,
2026-02-03,111593.5,0.0,111593.5,0,
2026-02-04,111593.5,0.0,111593.5,0,
2026-02-05,111593.5,0.0,111593.5,0,
2026-02-06,111593.5,0.0,111593.5,0,
2026-02-08,111593.5,0.0,111593.5,0,
2026-02-09,111593.5,0.0,111593.5,0,
2026-02-10,111593.5,0.0,111593.5,0,
2026-02-11,111593.5,0.0,111593.5,0,
2026-02-12,111593.5,0.0,111593.5,0,
2026-02-13,111593.5,0.0,111593.5,0,
2026-02-15,111593.5,0.0,111593.5,0,
2026-02-16,111593.5,0.0,111593.5,0,
2026-02-17,111593.5,0.0,111593.5,0,
2026-02-18,111593.5,0.0,111593.5,0,
2026-02-19,111593.5,0.0,111593.5,0,
2026-02-20,111593.5,0.0,111593.5,0,
2026-02-22,111593.5,0.0,111593.5,0,
2026-02-23,111593.5,0.0,111593.5,0,
2026-02-24,111593.5,0.0,111593.5,0,
2026-02-25,111593.5,0.0,111593.5,0,
2026-02-26,111593.5,0.0,111593.5,0,
2026-02-27,111593.5,0.0,111593.5,0,
2026-03-01,111593.5,0.0,111593.5,0,
2026-03-02,111593.5,0.0,111593.5,0,
2026-03-03,111593.5,0.0,111593.5,0,
2026-03-04,111593.5,0.0,111593.5,0,
2026-03-05,111593.5,0.0,111593.5,0,
2026-03-06,111593.5,0.0,111593.5,0,
2026-03-08,111593.5,0.0,111593.5,0,
