date,realized_points,open_unrealized_points,total_equity_points,open_units,direction
2019-05-05,0.0,0.0,0.0,0,
2019-05-06,0.0,0.0,0.0,0,
2019-05-07,0.0,0.0,0.0,0,
2019-05-08,0.0,0.0,0.0,0,
2019-05-09,0.0,0.0,0.0,0,
2019-05-10,0.0,0.0,0.0,0,
2019-05-12,0.0,0.0,0.0,0,
2019-05-13,0.0,0.0,0.0,0,
2019-05-14,0.0,0.0,0.0,0,
2019-05-15,0.0,0.0,0.0,0,
2019-05-16,0.0,0.0,0.0,0,
2019-05-17,0.0,0.0,0.0,0,
2019-05-19,0.0,0.0,0.0,0,
2019-05-20,0.0,0.0,0.0,0,
2019-05-21,0.0,0.0,0.0,0,
2019-05-22,0.0,0.0,0.0,0,
2019-05-23,0.0,0.0,0.0,0,
2019-05-24,0.0,0.0,0.0,0,
2019-05-26,0.0,0.0,0.0,0,
2019-05-27,0.0,0.0,0.0,0,
2019-05-28,0.0,0.0,0.0,0,
2019-05-29,0.0,0.0,0.0,0,
2019-05-30,0.0,0.0,0.0,0,
2019-05-31,0.0,0.0,0.0,0,
2019-06-02,0.0,0.0,0.0,0,
2019-06-03,0.0,0.0,0.0,0,
2019-06-04,0.0,0.0,0.0,0,
2019-06-05,0.0,0.0,0.0,0,
2019-06-06,0.0,0.0,0.0,0,
2019-06-07,0.0,0.0,0.0,0,
2019-06-09,0.0,-5.25,-5.25,1,Long
2019-06-10,0.0,46.5,46.5,1,Long
2019-06-11,0.0,53.0,53.0,1,Long
2019-06-12,0.0,28.75,28.75,1,Long
2019-06-13,0.0,34.5,34.5,1,Long
2019-06-14,0.0,23.0,23.0,1,Long
2019-06-16,0.0,65.0,65.0,1,Long
2019-06-17,0.0,101.75,101.75,1,Long
2019-06-18,0.0,224.0,224.0,1,Long
2019-06-19,0.0,266.25,266.25,1,Long
2019-06-20,0.0,302.75,302.75,1,Long
2019-06-21,0.0,285.25,285.25,2,Long
2019-06-23,0.0,332.75,332.75,2,Long
2019-06-24,0.0,310.25,310.25,2,Long
2019-06-25,0.0,44.75,44.75,2,Long
2019-06-26,0.0,99.75,99.75,2,Long
2019-06-27,0.0,183.75,183.75,2,Long
2019-06-28,0.0,240.25,240.25,2,Long
2019-06-30,0.0,397.25,397.25,2,Long
2019-07-01,0.0,347.25,347.25,2,Long
2019-07-02,0.0,463.25,463.25,2,Long
2019-07-03,0.0,572.25,572.25,2,Long
2019-07-04,0.0,600.75,600.75,2,Long
2019-07-05,0.0,501.75,501.75,3,Long
2019-07-07,0.0,465.75,465.75,3,Long
2019-07-08,0.0,319.5,319.5,3,Long
2019-07-09,0.0,478.5,478.5,3,Long
2019-07-10,0.0,719.25,719.25,3,Long
2019-07-11,0.0,702.75,702.75,3,Long
2019-07-12,0.0,811.5,811.5,3,Long
2019-07-14,0.0,793.5,793.5,3,Long
2019-07-15,0.0,921.0,921.0,3,Long
2019-07-16,0.0,762.0,762.0,3,Long
2019-07-17,0.0,556.5,556.5,3,Long
2019-07-18,0.0,774.75,774.75,3,Long
2019-07-19,0.0,394.5,394.5,4,Long
2019-07-21,0.0,522.5,522.5,4,Long
2019-07-22,0.0,833.5,833.5,4,Long
2019-07-23,0.0,932.5,932.5,4,Long
2019-07-24,0.0,1185.5,1185.5,4,Long
2019-07-25,0.0,1089.5,1089.5,4,Long
2019-07-26,0.0,1178.5,1178.5,4,Long
2019-07-28,0.0,1190.5,1190.5,4,Long
2019-07-29,0.0,1158.5,1158.5,4,Long
2019-07-30,0.0,1076.5,1076.5,4,Long
2019-07-31,0.0,468.5,468.5,4,Long
2019-08-01,0.0,261.5,261.5,4,Long
2019-08-02,265.5,0.0,265.5,0,
2019-08-04,265.5,0.0,265.5,0,
2019-08-05,265.5,0.0,265.5,0,
2019-08-06,265.5,0.0,265.5,0,
2019-08-07,265.5,0.0,265.5,0,
2019-08-08,265.5,0.0,265.5,0,
2019-08-09,265.5,0.0,265.5,0,
2019-08-11,265.5,0.0,265.5,0,
2019-08-12,265.5,0.0,265.5,0,
2019-08-13,265.5,0.0,265.5,0,
2019-08-14,265.5,0.0,265.5,0,
2019-08-15,265.5,0.0,265.5,0,
2019-08-16,265.5,0.0,265.5,0,
2019-08-18,265.5,0.0,265.5,0,
2019-08-19,265.5,0.0,265.5,0,
2019-08-20,265.5,0.0,265.5,0,
2019-08-21,265.5,0.0,265.5,0,
2019-08-22,265.5,0.0,265.5,0,
2019-08-23,265.5,0.0,265.5,0,
2019-08-25,265.5,0.0,265.5,0,
2019-08-26,265.5,0.0,265.5,0,
2019-08-27,265.5,0.0,265.5,0,
2019-08-28,265.5,0.0,265.5,0,
2019-08-29,265.5,0.0,265.5,0,
2019-08-30,265.5,0.0,265.5,0,
2019-09-01,265.5,0.0,265.5,0,
2019-09-02,265.5,0.0,265.5,0,
2019-09-03,265.5,0.0,265.5,0,
2019-09-04,265.5,0.0,265.5,0,
2019-09-05,265.5,0.0,265.5,0,
2019-09-06,265.5,-8.0,257.5,1,Long
2019-09-08,265.5,-9.25,256.25,1,Long
2019-09-09,265.5,-30.25,235.25,1,Long
2019-09-10,265.5,-62.25,203.25,1,Long
2019-09-11,265.5,78.75,344.25,1,Long
2019-09-12,265.5,60.25,325.75,1,Long
2019-09-13,265.5,38.25,303.75,1,Long
2019-09-15,265.5,-33.75,231.75,1,Long
2019-09-16,265.5,12.0,277.5,1,Long
2019-09-17,265.5,38.25,303.75,1,Long
2019-09-18,265.5,33.0,298.5,1,Long
2019-09-19,265.5,54.0,319.5,1,Long
2019-09-20,265.5,-41.25,224.25,2,Long
2019-09-22,265.5,47.25,312.75,2,Long
2019-09-23,265.5,64.75,330.25,2,Long
2019-09-24,265.5,-200.25,65.25,2,Long
2019-09-25,265.5,-73.25,192.25,2,Long
2019-09-26,265.5,-151.25,114.25,2,Long
2019-09-27,265.5,-274.75,-9.25,2,Long
2019-09-29,265.5,-259.25,6.25,2,Long
2019-09-30,265.5,-143.25,122.25,2,Long
2019-10-01,265.5,-261.75,3.75,2,Long
2019-10-02,1.75,0.0,1.75,0,
2019-10-03,1.75,0.0,1.75,0,
2019-10-04,1.75,0.0,1.75,0,
2019-10-06,1.75,0.0,1.75,0,
2019-10-07,1.75,0.0,1.75,0,
2019-10-08,1.75,0.0,1.75,0,
2019-10-09,1.75,0.0,1.75,0,
2019-10-10,1.75,0.0,1.75,0,
2019-10-11,1.75,0.0,1.75,0,
2019-10-13,1.75,0.0,1.75,0,
2019-10-14,1.75,0.0,1.75,0,
2019-10-15,1.75,0.0,1.75,0,
2019-10-16,1.75,0.0,1.75,0,
2019-10-17,1.75,0.0,1.75,0,
2019-10-18,1.75,0.0,1.75,0,
2019-10-20,1.75,0.0,1.75,0,
2019-10-21,1.75,0.0,1.75,0,
2019-10-22,1.75,0.0,1.75,0,
2019-10-23,1.75,0.0,1.75,0,
2019-10-24,1.75,0.0,1.75,0,
2019-10-25,1.75,0.0,1.75,0,
2019-10-27,1.75,9.0,10.75,1,Long
2019-10-28,1.75,64.75,66.5,1,Long
2019-10-29,1.75,11.0,12.75,1,Long
2019-10-30,1.75,75.25,77.0,1,Long
2019-10-31,1.75,41.5,43.25,1,Long
2019-11-01,1.75,115.0,116.75,1,Long
2019-11-03,1.75,128.75,130.5,1,Long
2019-11-04,1.75,191.75,193.5,1,Long
2019-11-05,1.75,165.25,167.0,1,Long
2019-11-06,1.75,155.25,157.0,1,Long
2019-11-07,1.75,189.25,191.0,1,Long
2019-11-08,1.75,212.0,213.75,2,Long
2019-11-10,1.75,196.5,198.25,2,Long
2019-11-11,1.75,180.0,181.75,2,Long
2019-11-12,1.75,221.0,222.75,2,Long
2019-11-13,1.75,220.5,222.25,2,Long
2019-11-14,1.75,235.0,236.75,2,Long
2019-11-15,1.75,339.5,341.25,2,Long
2019-11-17,1.75,312.5,314.25,2,Long
2019-11-18,1.75,347.5,349.25,2,Long
2019-11-19,1.75,327.5,329.25,2,Long
2019-11-20,1.75,232.5,234.25,2,Long
2019-11-21,1.75,232.0,233.75,2,Long
2019-11-22,1.75,256.0,257.75,3,Long
2019-11-24,1.75,330.25,332.0,3,Long
2019-11-25,1.75,536.5,538.25,3,Long
2019-11-26,1.75,614.5,616.25,3,Long
2019-11-27,1.75,686.5,688.25,3,Long
2019-11-28,1.75,757.75,759.5,3,Long
2019-11-29,1.75,673.75,675.5,3,Long
2019-12-01,1.75,703.0,704.75,3,Long
2019-12-02,1.75,322.75,324.5,3,Long
2019-12-03,1.75,195.25,197.0,3,Long
2019-12-04,1.75,282.25,284.0,3,Long
2019-12-05,1.75,354.25,356.0,3,Long
2019-12-06,1.75,619.75,621.5,4,Long
2019-12-08,1.75,624.75,626.5,4,Long
2019-12-09,1.75,439.75,441.5,4,Long
2019-12-10,1.75,450.75,452.5,4,Long
2019-12-11,1.75,665.75,667.5,4,Long
2019-12-12,1.75,1014.75,1016.5,4,Long
2019-12-13,1.75,1095.75,1097.5,4,Long
2019-12-15,1.75,1148.75,1150.5,4,Long
2019-12-16,1.75,1401.75,1403.5,4,Long
2019-12-17,1.75,1419.75,1421.5,4,Long
2019-12-18,1.75,1494.75,1496.5,4,Long
2019-12-19,1.75,1726.75,1728.5,4,Long
2019-12-20,1.75,1847.75,1849.5,5,Long
2019-12-22,1.75,1907.75,1909.5,5,Long
2019-12-23,1.75,1942.75,1944.5,5,Long
2019-12-24,1.75,1946.5,1948.25,5,Long
2019-12-25,1.75,1947.75,1949.5,5,Long
2019-12-26,1.75,2336.5,2338.25,5,Long
2019-12-27,1.75,2190.25,2192.0,5,Long
2019-12-29,1.75,2285.25,2287.0,5,Long
2019-12-30,1.75,1971.5,1973.25,5,Long
2019-12-31,1.75,2154.0,2155.75,5,Long
2020-01-01,1.75,2176.5,2178.25,5,Long
2020-01-02,1.75,2790.25,2792.0,5,Long
2020-01-03,1.75,2347.75,2349.5,6,Long
2020-01-05,1.75,2154.25,2156.0,6,Long
2020-01-06,1.75,2580.25,2582.0,6,Long
2020-01-07,1.75,1998.25,2000.0,6,Long
2020-01-08,1.75,3198.25,3200.0,6,Long
2020-01-09,1.75,3579.25,3581.0,6,Long
2020-01-10,1.75,3355.75,3357.5,6,Long
2020-01-12,1.75,3411.25,3413.0,6,Long
2020-01-13,1.75,4116.25,4118.0,6,Long
2020-01-14,1.75,3672.25,3674.0,6,Long
2020-01-15,1.75,3931.75,3933.5,6,Long
2020-01-16,1.75,4360.75,4362.5,6,Long
2020-01-17,1.75,4513.75,4515.5,7,Long
2020-01-19,1.75,4608.25,4610.0,7,Long
2020-01-20,1.75,4505.0,4506.75,7,Long
2020-01-21,1.75,4562.75,4564.5,7,Long
2020-01-22,1.75,4592.5,4594.25,7,Long
2020-01-23,1.75,5205.0,5206.75,7,Long
2020-01-24,1.75,4275.75,4277.5,7,Long
2020-01-26,1.75,3416.5,3418.25,7,Long
2020-01-27,1.75,3166.25,3168.0,7,Long
2020-01-28,1.75,4015.0,4016.75,7,Long
2020-01-29,1.75,4167.25,4169.0,7,Long
2020-01-30,1.75,4841.0,4842.75,7,Long
2020-01-31,1.75,3402.5,3404.25,8,Long
2020-02-02,1.75,3464.5,3466.25,8,Long
2020-02-03,1.75,4020.5,4022.25,8,Long
2020-02-04,1.75,6006.5,6008.25,8,Long
2020-02-05,1.75,6350.5,6352.25,8,Long
2020-02-06,1.75,7036.5,7038.25,8,Long
2020-02-07,1.75,6502.5,6504.25,8,Long
2020-02-09,1.75,6152.5,6154.25,8,Long
2020-02-10,1.75,7504.5,7506.25,8,Long
2020-02-11,1.75,7632.5,7634.25,8,Long
2020-02-12,1.75,7914.5,7916.25,8,Long
2020-02-13,1.75,8180.5,8182.25,8,Long
2020-02-14,1.75,8348.5,8350.25,9,Long
2020-02-16,1.75,8647.75,8649.5,9,Long
2020-02-17,1.75,8096.5,8098.25,9,Long
2020-02-18,1.75,8650.0,8651.75,9,Long
2020-02-19,1.75,9376.75,9378.5,9,Long
2020-02-20,1.75,7826.5,7828.25,9,Long
2020-02-21,1.75,6778.0,6779.75,9,Long
2020-02-23,5965.25,0.0,5965.25,0,
2020-02-24,5965.25,0.0,5965.25,0,
2020-02-25,5965.25,0.0,5965.25,0,
2020-02-26,5965.25,0.0,5965.25,0,
2020-02-27,5965.25,0.0,5965.25,0,
2020-02-28,5965.25,0.0,5965.25,0,
2020-03-01,5965.25,0.0,5965.25,0,
2020-03-02,5965.25,0.0,5965.25,0,
2020-03-03,5965.25,0.0,5965.25,0,
2020-03-04,5965.25,0.0,5965.25,0,
2020-03-05,5965.25,0.0,5965.25,0,
2020-03-06,5965.25,0.0,5965.25,0,
2020-03-08,5965.25,0.0,5965.25,0,
2020-03-09,5965.25,0.0,5965.25,0,
2020-03-10,5965.25,0.0,5965.25,0,
2020-03-11,5965.25,0.0,5965.25,0,
2020-03-12,5965.25,0.0,5965.25,0,
2020-03-13,5965.25,0.0,5965.25,0,
2020-03-15,5965.25,0.0,5965.25,0,
2020-03-16,5965.25,0.0,5965.25,0,
2020-03-17,5965.25,0.0,5965.25,0,
2020-03-18,5965.25,0.0,5965.25,0,
2020-03-19,5965.25,0.0,5965.25,0,
2020-03-20,5965.25,0.0,5965.25,0,
2020-03-22,5965.25,0.0,5965.25,0,
2020-03-23,5965.25,0.0,5965.25,0,
2020-03-24,5965.25,0.0,5965.25,0,
2020-03-25,5965.25,0.0,5965.25,0,
2020-03-26,5965.25,0.0,5965.25,0,
2020-03-27,5965.25,0.0,5965.25,0,
2020-03-29,5965.25,0.0,5965.25,0,
2020-03-30,5965.25,0.0,5965.25,0,
2020-03-31,5965.25,0.0,5965.25,0,
2020-04-01,5965.25,0.0,5965.25,0,
2020-04-02,5965.25,0.0,5965.25,0,
2020-04-03,5965.25,0.0,5965.25,0,
2020-04-05,5965.25,0.0,5965.25,0,
2020-04-06,5965.25,0.0,5965.25,0,
2020-04-07,5965.25,0.0,5965.25,0,
2020-04-08,5965.25,0.0,5965.25,0,
2020-04-09,5965.25,13.25,5978.5,1,Long
2020-04-12,5965.25,-108.25,5857.0,1,Long
2020-04-13,5965.25,139.0,6104.25,1,Long
2020-04-14,5965.25,447.0,6412.25,1,Long
2020-04-15,5965.25,306.25,6271.5,1,Long
2020-04-16,5965.25,706.75,6672.0,1,Long
2020-04-17,5965.25,581.5,6546.75,1,Long
2020-04-19,5965.25,520.5,6485.75,1,Long
2020-04-20,5965.25,503.75,6469.0,1,Long
2020-04-21,5965.25,231.5,6196.75,1,Long
2020-04-22,5965.25,390.0,6355.25,1,Long
2020-04-23,5965.25,325.75,6291.0,1,Long
2020-04-24,5965.25,540.75,6506.0,2,Long
2020-04-26,5965.25,513.25,6478.5,2,Long
2020-04-27,5965.25,653.25,6618.5,2,Long
2020-04-28,5965.25,541.75,6507.0,2,Long
2020-04-29,5965.25,1188.25,7153.5,2,Long
2020-04-30,5965.25,682.75,6648.0,2,Long
2020-05-01,5965.25,410.25,6375.5,2,Long
2020-05-03,5965.25,172.25,6137.5,2,Long
2020-05-04,5965.25,653.75,6619.0,2,Long
2020-05-05,5965.25,918.75,6884.0,2,Long
2020-05-06,5965.25,935.75,6901.0,2,Long
2020-05-07,5965.25,1288.75,7254.0,2,Long
2020-05-08,5965.25,1448.75,7414.0,3,Long
2020-05-10,5965.25,1545.5,7510.75,3,Long
2020-05-11,5965.25,1616.75,7582.0,3,Long
2020-05-12,5965.25,827.75,6793.0,3,Long
2020-05-13,5965.25,819.5,6784.75,3,Long
2020-05-14,5965.25,1108.25,7073.5,3,Long
2020-05-15,5965.25,1144.25,7109.5,3,Long
2020-05-17,5965.25,1279.25,7244.5,3,Long
2020-05-18,5965.25,1817.75,7783.0,3,Long
2020-05-19,5965.25,1739.75,7705.0,3,Long
2020-05-20,5965.25,2242.25,8207.5,3,Long
2020-05-21,5965.25,1993.25,7958.5,3,Long
2020-05-22,5965.25,2053.25,8018.5,4,Long
2020-05-24,5965.25,2186.25,8151.5,4,Long
2020-05-25,5965.25,2403.25,8368.5,4,Long
2020-05-26,5965.25,1940.25,7905.5,4,Long
2020-05-27,5965.25,2131.25,8096.5,4,Long
2020-05-28,5965.25,2035.25,8000.5,4,Long
2020-05-29,5965.25,2718.25,8683.5,4,Long
2020-05-31,5965.25,2391.25,8356.5,4,Long
2020-06-01,5965.25,2625.25,8590.5,4,Long
2020-06-02,5965.25,3062.25,9027.5,4,Long
2020-06-03,5965.25,3149.25,9114.5,4,Long
2020-06-04,5965.25,2837.25,8802.5,4,Long
2020-06-05,5965.25,3592.25,9557.5,5,Long
2020-06-07,5965.25,3908.5,9873.75,5,Long
2020-06-08,5965.25,3954.75,9920.0,5,Long
2020-06-09,5965.25,4501.0,10466.25,5,Long
2020-06-10,5965.25,4772.25,10737.5,5,Long
2020-06-11,5965.25,2948.5,8913.75,5,Long
2020-06-12,5965.25,2766.0,8731.25,5,Long
2020-06-14,5965.25,2246.0,8211.25,5,Long
2020-06-15,5965.25,3881.0,9846.25,5,Long
2020-06-16,5965.25,4474.75,10440.0,5,Long
2020-06-17,5965.25,4302.25,10267.5,5,Long
2020-06-18,5965.25,4658.5,10623.75,5,Long
2020-06-19,5965.25,4177.25,10142.5,6,Long
2020-06-21,5965.25,4060.25,10025.5,6,Long
2020-06-22,5965.25,5528.75,11494.0,6,Long
2020-06-23,5965.25,5714.75,11680.0,6,Long
2020-06-24,5965.25,4471.25,10436.5,6,Long
2020-06-25,5965.25,5267.75,11233.0,6,Long
2020-06-26,5965.25,3694.25,9659.5,6,Long
2020-06-28,5965.25,3592.25,9557.5,6,Long
2020-06-29,5965.25,4586.75,10552.0,6,Long
2020-06-30,5965.25,4838.75,10804.0,6,Long
2020-07-01,5965.25,6247.25,12212.5,6,Long
2020-07-02,5965.25,6730.25,12695.5,6,Long
2020-07-03,5965.25,6581.75,12547.0,7,Long
2020-07-05,5965.25,7056.0,13021.25,7,Long
2020-07-06,5965.25,8785.0,14750.25,7,Long
2020-07-07,5965.25,8156.75,14122.0,7,Long
2020-07-08,5965.25,9082.5,15047.75,7,Long
2020-07-09,5965.25,9584.75,15550.0,7,Long
2020-07-10,5965.25,10204.25,16169.5,7,Long
2020-07-12,5965.25,10442.25,16407.5,7,Long
2020-07-13,5965.25,8823.5,14788.75,7,Long
2020-07-14,5965.25,9327.5,15292.75,7,Long
2020-07-15,5965.25,8835.75,14801.0,7,Long
2020-07-16,5965.25,8272.25,14237.5,7,Long
2020-07-17,5965.25,8669.5,14634.75,8,Long
2020-07-19,5965.25,8861.5,14826.75,8,Long
2020-07-20,5965.25,11279.5,17244.75,8,Long
2020-07-21,5965.25,10667.5,16632.75,8,Long
2020-07-22,5965.25,10265.5,16230.75,8,Long
2020-07-23,5965.25,8343.5,14308.75,8,Long
2020-07-24,5965.25,7385.5,13350.75,8,Long
2020-07-26,5965.25,7193.5,13158.75,8,Long
2020-07-27,5965.25,9269.5,15234.75,8,Long
2020-07-28,5965.25,8193.5,14158.75,8,Long
2020-07-29,5965.25,9117.5,15082.75,8,Long
2020-07-30,5965.25,10925.5,16890.75,8,Long
2020-07-31,5965.25,11005.5,16970.75,9,Long
2020-08-02,5965.25,10971.75,16937.0,9,Long
2020-08-03,5965.25,12094.5,18059.75,9,Long
2020-08-04,5965.25,12429.75,18395.0,9,Long
2020-08-05,5965.25,12569.25,18534.5,9,Long
2020-08-06,5965.25,14038.5,20003.75,9,Long
2020-08-07,5965.25,12945.0,18910.25,9,Long
2020-08-09,5965.25,12731.25,18696.5,9,Long
2020-08-10,5965.25,12432.0,18397.25,9,Long
2020-08-11,5965.25,11070.75,17036.0,9,Long
2020-08-12,5965.25,12951.75,18917.0,9,Long
2020-08-13,5965.25,13613.25,19578.5,9,Long
2020-08-14,5965.25,13077.75,19043.0,10,Long
2020-08-16,5965.25,13235.25,19200.5,10,Long
2020-08-17,5965.25,14670.25,20635.5,10,Long
2020-08-18,5965.25,15785.25,21750.5,10,Long
2020-08-19,5965.25,14525.25,20490.5,10,Long
2020-08-20,5965.25,16615.25,22580.5,10,Long
2020-08-21,5965.25,17250.25,23215.5,10,Long
2020-08-23,5965.25,17455.25,23420.5,10,Long
2020-08-24,5965.25,18087.75,24053.0,10,Long
2020-08-25,5965.25,19087.75,25053.0,10,Long
2020-08-26,5965.25,21297.75,27263.0,10,Long
2020-08-27,5965.25,21312.75,27278.0,10,Long
2020-08-28,5965.25,21657.75,27623.0,10,Long
2020-08-30,5965.25,22097.75,28063.0,10,Long
2020-08-31,5965.25,22872.75,28838.0,10,Long
2020-09-01,5965.25,25225.25,31190.5,10,Long
2020-09-02,5965.25,25837.75,31803.0,10,Long
2020-09-03,31800.5,0.0,31800.5,0,
2020-09-04,31800.5,0.0,31800.5,0,
2020-09-06,31800.5,0.0,31800.5,0,
2020-09-07,31800.5,0.0,31800.5,0,
2020-09-08,31800.5,0.0,31800.5,0,
2020-09-09,31800.5,0.0,31800.5,0,
2020-09-10,31800.5,0.0,31800.5,0,
2020-09-11,31800.5,0.0,31800.5,0,
2020-09-13,31800.5,0.0,31800.5,0,
2020-09-14,31800.5,0.0,31800.5,0,
2020-09-15,31800.5,0.0,31800.5,0,
2020-09-16,31800.5,0.0,31800.5,0,
2020-09-17,31800.5,0.0,31800.5,0,
2020-09-18,31800.5,0.0,31800.5,0,
2020-09-20,31800.5,0.0,31800.5,0,
2020-09-21,31800.5,0.0,31800.5,0,
2020-09-22,31800.5,0.0,31800.5,0,
2020-09-23,31800.5,0.0,31800.5,0,
2020-09-24,31800.5,0.0,31800.5,0,
2020-09-25,31800.5,0.0,31800.5,0,
2020-09-27,31800.5,0.0,31800.5,0,
2020-09-28,31800.5,0.0,31800.5,0,
2020-09-29,31800.5,0.0,31800.5,0,
2020-09-30,31800.5,0.0,31800.5,0,
2020-10-01,31800.5,0.0,31800.5,0,
2020-10-02,31800.5,0.0,31800.5,0,
2020-10-04,31800.5,0.0,31800.5,0,
2020-10-05,31800.5,0.0,31800.5,0,
2020-10-06,31800.5,0.0,31800.5,0,
2020-10-07,31800.5,0.0,31800.5,0,
2020-10-08,31800.5,0.0,31800.5,0,
2020-10-09,31800.5,0.0,31800.5,0,
2020-10-11,31800.5,0.0,31800.5,0,
2020-10-12,31800.5,365.75,32166.25,1,Long
2020-10-13,31800.5,371.25,32171.75,1,Long
2020-10-14,31800.5,217.5,32018.0,1,Long
2020-10-15,31800.5,172.0,31972.5,1,Long
2020-10-16,31800.5,49.75,31850.25,1,Long
2020-10-18,31800.5,129.5,31930.0,1,Long
2020-10-19,31800.5,-28.5,31772.0,1,Long
2020-10-20,31800.5,-39.75,31760.75,1,Long
2020-10-21,31800.5,-118.25,31682.25,1,Long
2020-10-22,31800.5,-78.75,31721.75,1,Long
2020-10-23,31800.5,-74.0,31726.5,2,Long
2020-10-25,31800.5,-158.5,31642.0,2,Long
2020-10-26,31800.5,-434.5,31366.0,2,Long
2020-10-27,31800.5,-337.5,31463.0,2,Long
2020-10-28,31464.0,0.0,31464.0,0,
2020-10-29,31464.0,0.0,31464.0,0,
2020-10-30,31464.0,0.0,31464.0,0,
2020-11-01,31464.0,0.0,31464.0,0,
2020-11-02,31464.0,0.0,31464.0,0,
2020-11-03,31464.0,0.0,31464.0,0,
2020-11-04,31464.0,0.0,31464.0,0,
2020-11-05,31464.0,272.25,31736.25,1,Long
2020-11-06,31464.0,300.25,31764.25,1,Long
2020-11-08,31464.0,438.0,31902.0,1,Long
2020-11-09,31464.0,59.75,31523.75,1,Long
2020-11-10,31464.0,-197.0,31267.0,1,Long
2020-11-11,31464.0,102.0,31566.0,1,Long
2020-11-12,31464.0,57.0,31521.0,1,Long
2020-11-13,31464.0,151.75,31615.75,2,Long
2020-11-15,31464.0,350.25,31814.25,2,Long
2020-11-16,31464.0,356.75,31820.75,2,Long
2020-11-17,31464.0,217.75,31681.75,2,Long
2020-11-18,31464.0,20.25,31484.25,2,Long
2020-11-19,31464.0,134.25,31598.25,2,Long
2020-11-20,31464.0,81.75,31545.75,2,Long
2020-11-22,31464.0,122.25,31586.25,2,Long
2020-11-23,31464.0,163.25,31627.25,2,Long
2020-11-24,31464.0,511.75,31975.75,2,Long
2020-11-25,31464.0,618.75,32082.75,2,Long
2020-11-26,31464.0,568.75,32032.75,2,Long
2020-11-27,31464.0,806.75,32270.75,3,Long
2020-11-29,31464.0,936.5,32400.5,3,Long
2020-11-30,31464.0,1032.5,32496.5,3,Long
2020-12-01,31464.0,1338.5,32802.5,3,Long
2020-12-02,31464.0,1384.25,32848.25,3,Long
2020-12-03,31464.0,1441.25,32905.25,3,Long
2020-12-04,31464.0,1516.25,32980.25,3,Long
2020-12-06,31464.0,1619.75,33083.75,3,Long
2020-12-07,31464.0,1711.25,33175.25,3,Long
2020-12-08,31464.0,1927.25,33391.25,3,Long
2020-12-09,31464.0,1075.25,32539.25,3,Long
2020-12-10,31464.0,1195.25,32659.25,3,Long
2020-12-11,31464.0,1085.0,32549.0,4,Long
2020-12-13,31464.0,1285.0,32749.0,4,Long
2020-12-14,31464.0,1537.0,33001.0,4,Long
2020-12-15,31464.0,1999.0,33463.0,4,Long
2020-12-16,31464.0,2350.0,33814.0,4,Long
2020-12-17,31464.0,2619.0,34083.0,4,Long
2020-12-18,31464.0,2612.0,34076.0,4,Long
2020-12-20,31464.0,2615.0,34079.0,4,Long
2020-12-21,31464.0,2424.0,33888.0,4,Long
2020-12-22,31464.0,2500.0,33964.0,4,Long
2020-12-23,31464.0,2238.0,33702.0,4,Long
2020-12-24,31464.0,2435.0,33899.0,4,Long
2020-12-27,31464.0,2556.0,34020.0,4,Long
2020-12-28,31464.0,3026.0,34490.0,4,Long
2020-12-29,31464.0,2997.0,34461.0,4,Long
2020-12-30,31464.0,3013.0,34477.0,4,Long
2020-12-31,31464.0,3156.0,34620.0,4,Long
2021-01-03,31464.0,3074.0,34538.0,4,Long
2021-01-04,31464.0,2318.0,33782.0,4,Long
2021-01-05,31464.0,2798.0,34262.0,4,Long
2021-01-06,31464.0,2310.0,33774.0,4,Long
2021-01-07,31464.0,3372.0,34836.0,4,Long
2021-01-08,31464.0,4117.0,35581.0,5,Long
2021-01-10,31464.0,3907.0,35371.0,5,Long
2021-01-11,31464.0,3104.5,34568.5,5,Long
2021-01-12,31464.0,2978.25,34442.25,5,Long
2021-01-13,31464.0,3344.5,34808.5,5,Long
2021-01-14,31464.0,3079.5,34543.5,5,Long
2021-01-15,31464.0,2313.25,33777.25,5,Long
2021-01-17,31464.0,2224.5,33688.5,5,Long
2021-01-18,31464.0,2652.0,34116.0,5,Long
2021-01-19,31464.0,3743.25,35207.25,5,Long
2021-01-20,31464.0,5067.0,36531.0,5,Long
2021-01-21,31464.0,5413.25,36877.25,5,Long
2021-01-22,31464.0,5253.25,36717.25,6,Long
2021-01-24,31464.0,5530.75,36994.75,6,Long
2021-01-25,31464.0,5914.75,37378.75,6,Long
2021-01-26,31464.0,6498.25,37962.25,6,Long
2021-01-27,31464.0,3010.75,34474.75,6,Long
2021-01-28,31464.0,3963.25,35427.25,6,Long
2021-01-29,35428.75,0.0,35428.75,0,
2021-01-31,35428.75,0.0,35428.75,0,
2021-02-01,35428.75,0.0,35428.75,0,
2021-02-02,35428.75,0.0,35428.75,0,
2021-02-03,35428.75,0.0,35428.75,0,
2021-02-04,35428.75,0.0,35428.75,0,
2021-02-05,35428.75,50.75,35479.5,1,Long
2021-02-07,35428.75,85.75,35514.5,1,Long
2021-02-08,35428.75,128.5,35557.25,1,Long
2021-02-09,35428.75,134.5,35563.25,1,Long
2021-02-10,35428.75,100.75,35529.5,1,Long
2021-02-11,35428.75,178.0,35606.75,1,Long
2021-02-12,35428.75,268.75,35697.5,1,Long
2021-02-14,35428.75,272.75,35701.5,1,Long
2021-02-15,35428.75,305.0,35733.75,1,Long
2021-02-16,35428.75,178.5,35607.25,1,Long
2021-02-17,35428.75,150.0,35578.75,1,Long
2021-02-18,35428.75,62.5,35491.25,1,Long
2021-02-19,35428.75,19.0,35447.75,2,Long
2021-02-21,35428.75,59.0,35487.75,2,Long
2021-02-22,35487.75,0.0,35487.75,0,
2021-02-23,35487.75,0.0,35487.75,0,
2021-02-24,35487.75,0.0,35487.75,0,
2021-02-25,35487.75,0.0,35487.75,0,
2021-02-26,35487.75,0.0,35487.75,0,
2021-02-28,35487.75,0.0,35487.75,0,
2021-03-01,35487.75,0.0,35487.75,0,
2021-03-02,35487.75,0.0,35487.75,0,
2021-03-03,35487.75,0.0,35487.75,0,
2021-03-04,35487.75,0.0,35487.75,0,
2021-03-05,35487.75,0.0,35487.75,0,
2021-03-07,35487.75,0.0,35487.75,0,
2021-03-08,35487.75,0.0,35487.75,0,
2021-03-09,35487.75,0.0,35487.75,0,
2021-03-10,35487.75,0.0,35487.75,0,
2021-03-11,35487.75,0.0,35487.75,0,
2021-03-12,35487.75,0.0,35487.75,0,
2021-03-14,35487.75,0.0,35487.75,0,
2021-03-15,35487.75,0.0,35487.75,0,
2021-03-16,35487.75,0.0,35487.75,0,
2021-03-17,35487.75,0.0,35487.75,0,
2021-03-18,35487.75,0.0,35487.75,0,
2021-03-19,35487.75,0.0,35487.75,0,
2021-03-21,35487.75,0.0,35487.75,0,
2021-03-22,35487.75,0.0,35487.75,0,
2021-03-23,35487.75,0.0,35487.75,0,
2021-03-24,35487.75,0.0,35487.75,0,
2021-03-25,35487.75,0.0,35487.75,0,
2021-03-26,35487.75,0.0,35487.75,0,
2021-03-28,35487.75,0.0,35487.75,0,
2021-03-29,35487.75,0.0,35487.75,0,
2021-03-30,35487.75,0.0,35487.75,0,
2021-03-31,35487.75,0.0,35487.75,0,
2021-04-01,35487.75,0.0,35487.75,0,
2021-04-02,35487.75,0.0,35487.75,0,
2021-04-04,35487.75,0.0,35487.75,0,
2021-04-05,35487.75,0.0,35487.75,0,
2021-04-06,35487.75,-21.5,35466.25,1,Long
2021-04-07,35487.75,22.25,35510.0,1,Long
2021-04-08,35487.75,186.25,35674.0,1,Long
2021-04-09,35487.75,193.0,35680.75,1,Long
2021-04-11,35487.75,163.0,35650.75,1,Long
2021-04-12,35487.75,201.5,35689.25,1,Long
2021-04-13,35487.75,351.0,35838.75,1,Long
2021-04-14,35487.75,195.75,35683.5,1,Long
2021-04-15,35487.75,394.5,35882.25,1,Long
2021-04-16,35487.75,402.5,35890.25,2,Long
2021-04-18,35487.75,340.0,35827.75,2,Long
2021-04-19,35487.75,192.5,35680.25,2,Long
2021-04-20,35487.75,-150.0,35337.75,2,Long
2021-04-21,35487.75,124.5,35612.25,2,Long
2021-04-22,35487.75,-123.0,35364.75,2,Long
2021-04-23,35487.75,169.0,35656.75,2,Long
2021-04-25,35487.75,178.5,35666.25,2,Long
2021-04-26,35487.75,413.0,35900.75,2,Long
2021-04-27,35487.75,284.0,35771.75,2,Long
2021-04-28,35487.75,302.0,35789.75,2,Long
2021-04-29,35487.75,189.5,35677.25,2,Long
2021-04-30,35487.75,98.0,35585.75,3,Long
2021-05-02,35487.75,140.75,35628.5,3,Long
2021-05-03,35487.75,-191.5,35296.25,3,Long
2021-05-04,35487.75,-925.0,34562.75,3,Long
2021-05-05,35487.75,-997.75,34490.0,3,Long
2021-05-06,35487.75,-663.25,34824.5,3,Long
2021-05-07,35487.75,-346.75,35141.0,3,Long
2021-05-09,35487.75,-283.0,35204.75,3,Long
2021-05-10,35205.5,0.0,35205.5,0,
2021-05-11,35205.5,0.0,35205.5,0,
2021-05-12,35205.5,0.0,35205.5,0,
2021-05-13,35205.5,0.0,35205.5,0,
2021-05-14,35205.5,0.0,35205.5,0,
2021-05-16,35205.5,0.0,35205.5,0,
2021-05-17,35205.5,0.0,35205.5,0,
2021-05-18,35205.5,0.0,35205.5,0,
2021-05-19,35205.5,0.0,35205.5,0,
2021-05-20,35205.5,0.0,35205.5,0,
2021-05-21,35205.5,0.0,35205.5,0,
2021-05-23,35205.5,0.0,35205.5,0,
2021-05-24,35205.5,0.0,35205.5,0,
2021-05-25,35205.5,0.0,35205.5,0,
2021-05-26,35205.5,0.0,35205.5,0,
2021-05-27,35205.5,0.0,35205.5,0,
2021-05-28,35205.5,0.0,35205.5,0,
2021-05-30,35205.5,0.0,35205.5,0,
2021-05-31,35205.5,0.0,35205.5,0,
2021-06-01,35205.5,0.0,35205.5,0,
2021-06-02,35205.5,0.0,35205.5,0,
2021-06-03,35205.5,0.0,35205.5,0,
2021-06-04,35205.5,0.0,35205.5,0,
2021-06-06,35205.5,-4.5,35201.0,1,Long
2021-06-07,35205.5,50.75,35256.25,1,Long
2021-06-08,35205.5,45.0,35250.5,1,Long
2021-06-09,35205.5,43.0,35248.5,1,Long
2021-06-10,35205.5,195.75,35401.25,1,Long
2021-06-11,35205.5,212.75,35418.25,1,Long
2021-06-13,35205.5,237.5,35443.0,1,Long
2021-06-14,35205.5,334.25,35539.75,1,Long
2021-06-15,35205.5,259.25,35464.75,1,Long
2021-06-16,35205.5,114.5,35320.0,1,Long
2021-06-17,35205.5,403.5,35609.0,1,Long
2021-06-18,35205.5,201.5,35407.0,2,Long
2021-06-20,35205.5,242.0,35447.5,2,Long
2021-06-21,35205.5,435.5,35641.0,2,Long
2021-06-22,35205.5,710.5,35916.0,2,Long
2021-06-23,35205.5,738.0,35943.5,2,Long
2021-06-24,35205.5,858.5,36064.0,2,Long
2021-06-25,35205.5,828.0,36033.5,2,Long
2021-06-27,35205.5,875.0,36080.5,2,Long
2021-06-28,35205.5,1149.0,36354.5,2,Long
2021-06-29,35205.5,1341.0,36546.5,2,Long
2021-06-30,35205.5,1286.5,36492.0,2,Long
2021-07-01,35205.5,1231.5,36437.0,2,Long
2021-07-02,35205.5,1551.5,36757.0,3,Long
2021-07-04,35205.5,1593.5,36799.0,3,Long
2021-07-05,35205.5,1592.75,36798.25,3,Long
2021-07-06,35205.5,1744.25,36949.75,3,Long
2021-07-07,35205.5,1880.75,37086.25,3,Long
2021-07-08,35205.5,1526.0,36731.5,3,Long
2021-07-09,35205.5,1893.5,37099.0,3,Long
2021-07-11,35205.5,1938.5,37144.0,3,Long
2021-07-12,35205.5,2089.25,37294.75,3,Long
2021-07-13,35205.5,1985.0,37190.5,3,Long
2021-07-14,35205.5,2162.75,37368.25,3,Long
2021-07-15,35205.5,1721.0,36926.5,3,Long
2021-07-16,35205.5,1471.0,36676.5,4,Long
2021-07-18,35205.5,1361.0,36566.5,4,Long
2021-07-19,35205.5,1148.0,36353.5,4,Long
2021-07-20,35205.5,1762.0,36967.5,4,Long
2021-07-21,35205.5,2132.0,37337.5,4,Long
2021-07-22,35205.5,2673.0,37878.5,4,Long
2021-07-23,35205.5,3160.0,38365.5,4,Long
2021-07-25,35205.5,3274.0,38479.5,4,Long
2021-07-26,35205.5,3236.0,38441.5,4,Long
2021-07-27,35205.5,2471.0,37676.5,4,Long
2021-07-28,35205.5,2743.0,37948.5,4,Long
2021-07-29,35205.5,2270.0,37475.5,4,Long
2021-07-30,35205.5,2680.0,37885.5,5,Long
2021-08-01,35205.5,2852.5,38058.0,5,Long
2021-08-02,35205.5,2650.0,37855.5,5,Long
2021-08-03,35205.5,2998.75,38204.25,5,Long
2021-08-04,35205.5,3262.5,38468.0,5,Long
2021-08-05,35205.5,3646.25,38851.75,5,Long
2021-08-06,35205.5,3307.5,38513.0,5,Long
2021-08-08,35205.5,2953.75,38159.25,5,Long
2021-08-09,35205.5,3437.5,38643.0,5,Long
2021-08-10,35205.5,3021.25,38226.75,5,Long
2021-08-11,35205.5,2822.5,38028.0,5,Long
2021-08-12,35205.5,3182.5,38388.0,5,Long
2021-08-13,35205.5,3470.5,38676.0,6,Long
2021-08-15,35205.5,3412.0,38617.5,6,Long
2021-08-16,35205.5,3511.0,38716.5,6,Long
2021-08-17,35205.5,2470.0,37675.5,6,Long
2021-08-18,35205.5,1801.0,37006.5,6,Long
2021-08-19,35205.5,2228.5,37434.0,6,Long
2021-08-20,35205.5,3298.0,38503.5,6,Long
2021-08-22,35205.5,3371.5,38577.0,6,Long
2021-08-23,35205.5,4705.0,39910.5,6,Long
2021-08-24,35205.5,4874.5,40080.0,6,Long
2021-08-25,35205.5,4898.5,40104.0,6,Long
2021-08-26,35205.5,4397.5,39603.0,6,Long
2021-08-27,35205.5,5291.25,40496.75,7,Long
2021-08-29,35205.5,5462.75,40668.25,7,Long
2021-08-30,35205.5,6483.0,41688.5,7,Long
2021-08-31,35205.5,6474.25,41679.75,7,Long
2021-09-01,35205.5,6624.75,41830.25,7,Long
2021-09-02,35205.5,6474.25,41679.75,7,Long
2021-09-03,35205.5,6869.75,42075.25,7,Long
2021-09-05,35205.5,6847.0,42052.5,7,Long
2021-09-06,35205.5,7120.0,42325.5,7,Long
2021-09-07,35205.5,6929.25,42134.75,7,Long
2021-09-08,35205.5,6495.25,41700.75,7,Long
2021-09-09,35205.5,6243.25,41448.75,7,Long
2021-09-10,35205.5,5352.5,40558.0,8,Long
2021-09-12,35205.5,5726.5,40932.0,8,Long
2021-09-13,35205.5,5412.5,40618.0,8,Long
2021-09-14,35205.5,5106.5,40312.0,8,Long
2021-09-15,35205.5,5864.5,41070.0,8,Long
2021-09-16,35205.5,5702.5,40908.0,8,Long
2021-09-17,40908.0,0.0,40908.0,0,
2021-09-19,40908.0,0.0,40908.0,0,
2021-09-20,40908.0,0.0,40908.0,0,
2021-09-21,40908.0,0.0,40908.0,0,
2021-09-22,40908.0,0.0,40908.0,0,
2021-09-23,40908.0,0.0,40908.0,0,
2021-09-24,40908.0,0.0,40908.0,0,
2021-09-26,40908.0,0.0,40908.0,0,
2021-09-27,40908.0,0.0,40908.0,0,
2021-09-28,40908.0,0.0,40908.0,0,
2021-09-29,40908.0,0.0,40908.0,0,
2021-09-30,40908.0,0.0,40908.0,0,
2021-10-01,40908.0,0.0,40908.0,0,
2021-10-03,40908.0,0.0,40908.0,0,
2021-10-04,40908.0,0.0,40908.0,0,
2021-10-05,40908.0,0.0,40908.0,0,
2021-10-06,40908.0,0.0,40908.0,0,
2021-10-07,40908.0,0.0,40908.0,0,
2021-10-08,40908.0,0.0,40908.0,0,
2021-10-10,40908.0,0.0,40908.0,0,
2021-10-11,40908.0,0.0,40908.0,0,
2021-10-12,40908.0,0.0,40908.0,0,
2021-10-13,40908.0,0.0,40908.0,0,
2021-10-14,40908.0,0.0,40908.0,0,
2021-10-15,40908.0,0.0,40908.0,0,
2021-10-17,40908.0,0.0,40908.0,0,
2021-10-18,40908.0,0.0,40908.0,0,
2021-10-19,40908.0,117.0,41025.0,1,Long
2021-10-20,40908.0,43.0,40951.0,1,Long
2021-10-21,40908.0,99.5,41007.5,1,Long
2021-10-22,40908.0,31.75,40939.75,1,Long
2021-10-24,40908.0,14.0,40922.0,1,Long
2021-10-25,40908.0,246.75,41154.75,1,Long
2021-10-26,40908.0,267.75,41175.75,1,Long
2021-10-27,40908.0,334.0,41242.0,1,Long
2021-10-28,40908.0,380.0,41288.0,1,Long
2021-10-29,40908.0,644.5,41552.5,2,Long
2021-10-31,40908.0,667.5,41575.5,2,Long
2021-11-01,40908.0,659.0,41567.0,2,Long
2021-11-02,40908.0,792.0,41700.0,2,Long
2021-11-03,40908.0,1278.5,42186.5,2,Long
2021-11-04,40908.0,1587.0,42495.0,2,Long
2021-11-05,40908.0,1593.0,42501.0,2,Long
2021-11-07,40908.0,1531.0,42439.0,2,Long
2021-11-08,40908.0,1528.0,42436.0,2,Long
2021-11-09,40908.0,1278.0,42186.0,2,Long
2021-11-10,40908.0,887.5,41795.5,2,Long
2021-11-11,40908.0,1035.5,41943.5,2,Long
2021-11-12,40908.0,1330.5,42238.5,3,Long
2021-11-14,40908.0,1404.0,42312.0,3,Long
2021-11-15,40908.0,1294.5,42202.5,3,Long
2021-11-16,40908.0,1641.0,42549.0,3,Long
2021-11-17,40908.0,1713.75,42621.75,3,Long
2021-11-18,40908.0,2213.25,43121.25,3,Long
2021-11-19,40908.0,2490.0,43398.0,3,Long
2021-11-21,40908.0,2491.5,43399.5,3,Long
2021-11-22,40908.0,1915.5,42823.5,3,Long
2021-11-23,40908.0,1584.75,42492.75,3,Long
2021-11-24,40908.0,1798.5,42706.5,3,Long
2021-11-25,40908.0,1838.25,42746.25,3,Long
2021-11-26,42744.0,0.0,42744.0,0,
2021-11-28,42744.0,0.0,42744.0,0,
2021-11-29,42744.0,0.0,42744.0,0,
2021-11-30,42744.0,0.0,42744.0,0,
2021-12-01,42744.0,0.0,42744.0,0,
2021-12-02,42744.0,0.0,42744.0,0,
2021-12-03,42744.0,0.0,42744.0,0,
2021-12-05,42744.0,0.0,42744.0,0,
2021-12-06,42744.0,0.0,42744.0,0,
2021-12-07,42744.0,0.0,42744.0,0,
2021-12-08,42744.0,0.0,42744.0,0,
2021-12-09,42744.0,0.0,42744.0,0,
2021-12-10,42744.0,0.0,42744.0,0,
2021-12-12,42744.0,0.0,42744.0,0,
2021-12-13,42744.0,0.0,42744.0,0,
2021-12-14,42744.0,0.0,42744.0,0,
2021-12-15,42744.0,0.0,42744.0,0,
2021-12-16,42744.0,0.0,42744.0,0,
2021-12-17,42744.0,0.0,42744.0,0,
2021-12-19,42744.0,0.0,42744.0,0,
2021-12-20,42744.0,0.0,42744.0,0,
2021-12-21,42744.0,0.0,42744.0,0,
2021-12-22,42744.0,0.0,42744.0,0,
2021-12-23,42744.0,0.0,42744.0,0,
2021-12-26,42744.0,0.0,42744.0,0,
2021-12-27,42744.0,0.0,42744.0,0,
2021-12-28,42744.0,-15.75,42728.25,1,Long
2021-12-29,42744.0,-91.75,42652.25,1,Long
2021-12-30,42744.0,-116.75,42627.25,1,Long
2021-12-31,42744.0,-221.5,42522.5,1,Long
2022-01-02,42744.0,-170.75,42573.25,1,Long
2022-01-03,42744.0,-71.0,42673.0,1,Long
2022-01-04,42744.0,-322.0,42422.0,1,Long
2022-01-05,42744.0,-770.5,41973.5,1,Long
2022-01-06,42744.0,-737.5,42006.5,1,Long
2022-01-07,42006.25,0.0,42006.25,0,
2022-01-09,42006.25,0.0,42006.25,0,
2022-01-10,42006.25,0.0,42006.25,0,
2022-01-11,42006.25,0.0,42006.25,0,
2022-01-12,42006.25,0.0,42006.25,0,
2022-01-13,42006.25,0.0,42006.25,0,
2022-01-14,42006.25,0.0,42006.25,0,
2022-01-16,42006.25,0.0,42006.25,0,
2022-01-17,42006.25,0.0,42006.25,0,
2022-01-18,42006.25,0.0,42006.25,0,
2022-01-19,42006.25,0.0,42006.25,0,
2022-01-20,42006.25,0.0,42006.25,0,
2022-01-21,42006.25,0.0,42006.25,0,
2022-01-23,42006.25,0.0,42006.25,0,
2022-01-24,42006.25,0.0,42006.25,0,
2022-01-25,42006.25,0.0,42006.25,0,
2022-01-26,42006.25,0.0,42006.25,0,
2022-01-27,42006.25,0.0,42006.25,0,
2022-01-28,42006.25,0.0,42006.25,0,
2022-01-30,42006.25,0.0,42006.25,0,
2022-01-31,42006.25,0.0,42006.25,0,
2022-02-01,42006.25,0.0,42006.25,0,
2022-02-02,42006.25,0.0,42006.25,0,
2022-02-03,42006.25,0.0,42006.25,0,
2022-02-04,42006.25,0.0,42006.25,0,
2022-02-06,42006.25,0.0,42006.25,0,
2022-02-07,42006.25,0.0,42006.25,0,
2022-02-08,42006.25,0.0,42006.25,0,
2022-02-09,42006.25,0.0,42006.25,0,
2022-02-10,42006.25,0.0,42006.25,0,
2022-02-11,42006.25,0.0,42006.25,0,
2022-02-13,42006.25,0.0,42006.25,0,
2022-02-14,42006.25,0.0,42006.25,0,
2022-02-15,42006.25,0.0,42006.25,0,
2022-02-16,42006.25,0.0,42006.25,0,
2022-02-17,42006.25,0.0,42006.25,0,
2022-02-18,42006.25,0.0,42006.25,0,
2022-02-20,42006.25,0.0,42006.25,0,
2022-02-21,42006.25,0.0,42006.25,0,
2022-02-22,42006.25,0.0,42006.25,0,
2022-02-23,42006.25,0.0,42006.25,0,
2022-02-24,42006.25,0.0,42006.25,0,
2022-02-25,42006.25,0.0,42006.25,0,
2022-02-27,42006.25,0.0,42006.25,0,
2022-02-28,42006.25,0.0,42006.25,0,
2022-03-01,42006.25,0.0,42006.25,0,
2022-03-02,42006.25,0.0,42006.25,0,
2022-03-03,42006.25,0.0,42006.25,0,
2022-03-04,42006.25,0.0,42006.25,0,
2022-03-06,42006.25,0.0,42006.25,0,
2022-03-07,42006.25,0.0,42006.25,0,
2022-03-08,42006.25,0.0,42006.25,0,
2022-03-09,42006.25,0.0,42006.25,0,
2022-03-10,42006.25,0.0,42006.25,0,
2022-03-11,42006.25,0.0,42006.25,0,
2022-03-13,42006.25,0.0,42006.25,0,
2022-03-14,42006.25,0.0,42006.25,0,
2022-03-15,42006.25,0.0,42006.25,0,
2022-03-16,42006.25,0.0,42006.25,0,
2022-03-17,42006.25,0.0,42006.25,0,
2022-03-18,42006.25,0.0,42006.25,0,
2022-03-20,42006.25,0.0,42006.25,0,
2022-03-21,42006.25,0.0,42006.25,0,
2022-03-22,42006.25,0.0,42006.25,0,
2022-03-23,42006.25,-192.0,41814.25,1,Long
2022-03-24,42006.25,84.0,42090.25,1,Long
2022-03-25,42006.25,86.5,42092.75,1,Long
2022-03-27,42006.25,55.0,42061.25,1,Long
2022-03-28,42006.25,307.0,42313.25,1,Long
2022-03-29,42006.25,555.5,42561.75,1,Long
2022-03-30,42006.25,437.75,42444.0,1,Long
2022-03-31,42006.25,246.5,42252.75,1,Long
2022-04-01,42006.25,262.5,42268.75,2,Long
2022-04-03,42006.25,193.5,42199.75,2,Long
2022-04-04,42006.25,860.0,42866.25,2,Long
2022-04-05,42006.25,225.5,42231.75,2,Long
2022-04-06,42006.25,-547.0,41459.25,2,Long
2022-04-07,42006.25,-312.5,41693.75,2,Long
2022-04-08,42006.25,-787.5,41218.75,2,Long
2022-04-10,42006.25,-815.0,41191.25,2,Long
2022-04-11,41190.75,0.0,41190.75,0,
2022-04-12,41190.75,0.0,41190.75,0,
2022-04-13,41190.75,0.0,41190.75,0,
2022-04-14,41190.75,0.0,41190.75,0,
2022-04-17,41190.75,0.0,41190.75,0,
2022-04-18,41190.75,0.0,41190.75,0,
2022-04-19,41190.75,0.0,41190.75,0,
2022-04-20,41190.75,0.0,41190.75,0,
2022-04-21,41190.75,0.0,41190.75,0,
2022-04-22,41190.75,0.0,41190.75,0,
2022-04-24,41190.75,0.0,41190.75,0,
2022-04-25,41190.75,0.0,41190.75,0,
2022-04-26,41190.75,0.0,41190.75,0,
2022-04-27,41190.75,0.0,41190.75,0,
2022-04-28,41190.75,0.0,41190.75,0,
2022-04-29,41190.75,0.0,41190.75,0,
2022-05-01,41190.75,0.0,41190.75,0,
2022-05-02,41190.75,0.0,41190.75,0,
2022-05-03,41190.75,0.0,41190.75,0,
2022-05-04,41190.75,0.0,41190.75,0,
2022-05-05,41190.75,0.0,41190.75,0,
2022-05-06,41190.75,0.0,41190.75,0,
2022-05-08,41190.75,0.0,41190.75,0,
2022-05-09,41190.75,0.0,41190.75,0,
2022-05-10,41190.75,0.0,41190.75,0,
2022-05-11,41190.75,0.0,41190.75,0,
2022-05-12,41190.75,0.0,41190.75,0,
2022-05-13,41190.75,0.0,41190.75,0,
2022-05-15,41190.75,0.0,41190.75,0,
2022-05-16,41190.75,0.0,41190.75,0,
2022-05-17,41190.75,0.0,41190.75,0,
2022-05-18,41190.75,0.0,41190.75,0,
2022-05-19,41190.75,0.0,41190.75,0,
2022-05-20,41190.75,0.0,41190.75,0,
2022-05-22,41190.75,0.0,41190.75,0,
2022-05-23,41190.75,0.0,41190.75,0,
2022-05-24,41190.75,0.0,41190.75,0,
2022-05-25,41190.75,0.0,41190.75,0,
2022-05-26,41190.75,0.0,41190.75,0,
2022-05-27,41190.75,0.0,41190.75,0,
2022-05-29,41190.75,0.0,41190.75,0,
2022-05-30,41190.75,0.0,41190.75,0,
2022-05-31,41190.75,0.0,41190.75,0,
2022-06-01,41190.75,0.0,41190.75,0,
2022-06-02,41190.75,0.0,41190.75,0,
2022-06-03,41190.75,-371.5,40819.25,1,Long
2022-06-05,41190.75,-371.5,40819.25,1,Long
2022-06-06,41190.75,-318.25,40872.5,1,Long
2022-06-07,41190.75,-250.75,40940.0,1,Long
2022-06-08,41190.75,-297.0,40893.75,1,Long
2022-06-09,41190.75,-633.0,40557.75,1,Long
2022-06-10,41190.75,-1059.75,40131.0,1,Long
2022-06-12,40097.25,0.0,40097.25,0,
2022-06-13,40097.25,0.0,40097.25,0,
2022-06-14,40097.25,0.0,40097.25,0,
2022-06-15,40097.25,0.0,40097.25,0,
2022-06-16,40097.25,0.0,40097.25,0,
2022-06-17,40097.25,0.0,40097.25,0,
2022-06-19,40097.25,0.0,40097.25,0,
2022-06-20,40097.25,0.0,40097.25,0,
2022-06-21,40097.25,0.0,40097.25,0,
2022-06-22,40097.25,0.0,40097.25,0,
2022-06-23,40097.25,0.0,40097.25,0,
2022-06-24,40097.25,0.0,40097.25,0,
2022-06-26,40097.25,0.0,40097.25,0,
2022-06-27,40097.25,0.0,40097.25,0,
2022-06-28,40097.25,0.0,40097.25,0,
2022-06-29,40097.25,0.0,40097.25,0,
2022-06-30,40097.25,0.0,40097.25,0,
2022-07-01,40097.25,0.0,40097.25,0,
2022-07-03,40097.25,0.0,40097.25,0,
2022-07-04,40097.25,0.0,40097.25,0,
2022-07-05,40097.25,0.0,40097.25,0,
2022-07-06,40097.25,0.0,40097.25,0,
2022-07-07,40097.25,0.0,40097.25,0,
2022-07-08,40097.25,0.0,40097.25,0,
2022-07-10,40097.25,0.0,40097.25,0,
2022-07-11,40097.25,0.0,40097.25,0,
2022-07-12,40097.25,0.0,40097.25,0,
2022-07-13,40097.25,0.0,40097.25,0,
2022-07-14,40097.25,0.0,40097.25,0,
2022-07-15,40097.25,0.0,40097.25,0,
2022-07-17,40097.25,0.0,40097.25,0,
2022-07-18,40097.25,0.0,40097.25,0,
2022-07-19,40097.25,0.0,40097.25,0,
2022-07-20,40097.25,0.0,40097.25,0,
2022-07-21,40097.25,112.25,40209.5,1,Long
2022-07-22,40097.25,-8.5,40088.75,1,Long
2022-07-24,40097.25,-32.5,40064.75,1,Long
2022-07-25,40097.25,-137.25,39960.0,1,Long
2022-07-26,40097.25,-155.5,39941.75,1,Long
2022-07-27,40097.25,141.5,40238.75,1,Long
2022-07-28,40097.25,457.25,40554.5,1,Long
2022-07-29,40097.25,514.25,40611.5,2,Long
2022-07-31,40097.25,403.75,40501.0,2,Long
2022-08-01,40097.25,466.75,40564.0,2,Long
2022-08-02,40097.25,371.25,40468.5,2,Long
2022-08-03,40097.25,1033.75,41131.0,2,Long
2022-08-04,40097.25,1231.75,41329.0,2,Long
2022-08-05,40097.25,994.75,41092.0,2,Long
2022-08-07,40097.25,920.75,41018.0,2,Long
2022-08-08,40097.25,1006.75,41104.0,2,Long
2022-08-09,40097.25,670.75,40768.0,2,Long
2022-08-10,40097.25,1363.25,41460.5,2,Long
2022-08-11,40097.25,1236.75,41334.0,2,Long
2022-08-12,40097.25,1741.75,41839.0,3,Long
2022-08-14,40097.25,1621.0,41718.25,3,Long
2022-08-15,40097.25,2044.0,42141.25,3,Long
2022-08-16,40097.25,1956.25,42053.5,3,Long
2022-08-17,40097.25,1366.75,41464.0,3,Long
2022-08-18,40097.25,1582.0,41679.25,3,Long
2022-08-19,40097.25,749.5,40846.75,3,Long
2022-08-21,40097.25,562.75,40660.0,3,Long
2022-08-22,40097.25,-132.5,39964.75,3,Long
2022-08-23,40097.25,-313.25,39784.0,3,Long
2022-08-24,40097.25,-196.25,39901.0,3,Long
2022-08-25,40097.25,433.75,40531.0,3,Long
2022-08-26,40532.5,0.0,40532.5,0,
2022-08-28,40532.5,0.0,40532.5,0,
2022-08-29,40532.5,0.0,40532.5,0,
2022-08-30,40532.5,0.0,40532.5,0,
2022-08-31,40532.5,0.0,40532.5,0,
2022-09-01,40532.5,0.0,40532.5,0,
2022-09-02,40532.5,0.0,40532.5,0,
2022-09-04,40532.5,0.0,40532.5,0,
2022-09-05,40532.5,0.0,40532.5,0,
2022-09-06,40532.5,0.0,40532.5,0,
2022-09-07,40532.5,0.0,40532.5,0,
2022-09-08,40532.5,0.0,40532.5,0,
2022-09-09,40532.5,0.0,40532.5,0,
2022-09-11,40532.5,0.0,40532.5,0,
2022-09-12,40532.5,0.0,40532.5,0,
2022-09-13,40532.5,0.0,40532.5,0,
2022-09-14,40532.5,0.0,40532.5,0,
2022-09-15,40532.5,0.0,40532.5,0,
2022-09-16,40532.5,0.0,40532.5,0,
2022-09-18,40532.5,0.0,40532.5,0,
2022-09-19,40532.5,0.0,40532.5,0,
2022-09-20,40532.5,0.0,40532.5,0,
2022-09-21,40532.5,0.0,40532.5,0,
2022-09-22,40532.5,0.0,40532.5,0,
2022-09-23,40532.5,0.0,40532.5,0,
2022-09-25,40532.5,0.0,40532.5,0,
2022-09-26,40532.5,0.0,40532.5,0,
2022-09-27,40532.5,0.0,40532.5,0,
2022-09-28,40532.5,0.0,40532.5,0,
2022-09-29,40532.5,0.0,40532.5,0,
2022-09-30,40532.5,0.0,40532.5,0,
2022-10-02,40532.5,0.0,40532.5,0,
2022-10-03,40532.5,0.0,40532.5,0,
2022-10-04,40532.5,0.0,40532.5,0,
2022-10-05,40532.5,0.0,40532.5,0,
2022-10-06,40532.5,0.0,40532.5,0,
2022-10-07,40532.5,0.0,40532.5,0,
2022-10-09,40532.5,0.0,40532.5,0,
2022-10-10,40532.5,0.0,40532.5,0,
2022-10-11,40532.5,0.0,40532.5,0,
2022-10-12,40532.5,0.0,40532.5,0,
2022-10-13,40532.5,0.0,40532.5,0,
2022-10-14,40532.5,0.0,40532.5,0,
2022-10-16,40532.5,0.0,40532.5,0,
2022-10-17,40532.5,0.0,40532.5,0,
2022-10-18,40532.5,0.0,40532.5,0,
2022-10-19,40532.5,0.0,40532.5,0,
2022-10-20,40532.5,0.0,40532.5,0,
2022-10-21,40532.5,0.0,40532.5,0,
2022-10-23,40532.5,0.0,40532.5,0,
2022-10-24,40532.5,0.0,40532.5,0,
2022-10-25,40532.5,0.0,40532.5,0,
2022-10-26,40532.5,0.0,40532.5,0,
2022-10-27,40532.5,0.0,40532.5,0,
2022-10-28,40532.5,0.0,40532.5,0,
2022-10-30,40532.5,0.0,40532.5,0,
2022-10-31,40532.5,0.0,40532.5,0,
2022-11-01,40532.5,0.0,40532.5,0,
2022-11-02,40532.5,0.0,40532.5,0,
2022-11-03,40532.5,0.0,40532.5,0,
2022-11-04,40532.5,0.0,40532.5,0,
2022-11-06,40532.5,0.0,40532.5,0,
2022-11-07,40532.5,0.0,40532.5,0,
2022-11-08,40532.5,0.0,40532.5,0,
2022-11-09,40532.5,0.0,40532.5,0,
2022-11-10,40532.5,0.0,40532.5,0,
2022-11-11,40532.5,0.0,40532.5,0,
2022-11-13,40532.5,15.25,40547.75,1,Long
2022-11-14,40532.5,-29.0,40503.5,1,Long
2022-11-15,40532.5,102.75,40635.25,1,Long
2022-11-16,40532.5,-16.0,40516.5,1,Long
2022-11-17,40532.5,-76.25,40456.25,1,Long
2022-11-18,40532.5,-86.5,40446.0,1,Long
2022-11-20,40532.5,-87.0,40445.5,1,Long
2022-11-21,40532.5,-202.0,40330.5,1,Long
2022-11-22,40532.5,-51.0,40481.5,1,Long
2022-11-23,40532.5,92.5,40625.0,1,Long
2022-11-24,40532.5,121.75,40654.25,1,Long
2022-11-25,40532.5,-12.0,40520.5,2,Long
2022-11-27,40532.5,-126.5,40406.0,2,Long
2022-11-28,40532.5,-342.5,40190.0,2,Long
2022-11-29,40532.5,-573.5,39959.0,2,Long
2022-11-30,40532.5,566.0,41098.5,2,Long
2022-12-01,40532.5,500.0,41032.5,2,Long
2022-12-02,40532.5,379.5,40912.0,2,Long
2022-12-04,40532.5,423.0,40955.5,2,Long
2022-12-05,40532.5,58.5,40591.0,2,Long
2022-12-06,40532.5,-423.5,40109.0,2,Long
2022-12-07,40532.5,-559.0,39973.5,2,Long
2022-12-08,40532.5,-305.0,40227.5,2,Long
2022-12-09,40532.5,-518.25,40014.25,3,Long
2022-12-11,40532.5,-569.25,39963.25,3,Long
2022-12-12,40532.5,306.0,40838.5,3,Long
2022-12-13,40532.5,702.0,41234.5,3,Long
2022-12-14,40532.5,471.75,41004.25,3,Long
2022-12-15,40532.5,-801.0,39731.5,3,Long
2022-12-16,40532.5,-1219.5,39313.0,3,Long
2022-12-18,40532.5,-1119.0,39413.5,3,Long
2022-12-19,39413.5,0.0,39413.5,0,
2022-12-20,39413.5,0.0,39413.5,0,
2022-12-21,39413.5,0.0,39413.5,0,
2022-12-22,39413.5,0.0,39413.5,0,
2022-12-23,39413.5,0.0,39413.5,0,
2022-12-26,39413.5,0.0,39413.5,0,
2022-12-27,39413.5,0.0,39413.5,0,
2022-12-28,39413.5,0.0,39413.5,0,
2022-12-29,39413.5,0.0,39413.5,0,
2022-12-30,39413.5,0.0,39413.5,0,
2023-01-02,39413.5,0.0,39413.5,0,
2023-01-03,39413.5,0.0,39413.5,0,
2023-01-04,39413.5,0.0,39413.5,0,
2023-01-05,39413.5,0.0,39413.5,0,
2023-01-06,39413.5,0.0,39413.5,0,
2023-01-08,39413.5,0.0,39413.5,0,
2023-01-09,39413.5,0.0,39413.5,0,
2023-01-10,39413.5,0.0,39413.5,0,
2023-01-11,39413.5,0.0,39413.5,0,
2023-01-12,39413.5,0.0,39413.5,0,
2023-01-13,39413.5,0.0,39413.5,0,
2023-01-15,39413.5,0.0,39413.5,0,
2023-01-16,39413.5,0.0,39413.5,0,
2023-01-17,39413.5,0.0,39413.5,0,
2023-01-18,39413.5,0.0,39413.5,0,
2023-01-19,39413.5,0.0,39413.5,0,
2023-01-20,39413.5,0.0,39413.5,0,
2023-01-22,39413.5,-19.5,39394.0,1,Long
2023-01-23,39413.5,240.75,39654.25,1,Long
2023-01-24,39413.5,162.25,39575.75,1,Long
2023-01-25,39413.5,229.5,39643.0,1,Long
2023-01-26,39413.5,362.0,39775.5,1,Long
2023-01-27,39413.5,542.0,39955.5,1,Long
2023-01-29,39413.5,527.75,39941.25,1,Long
2023-01-30,39413.5,324.5,39738.0,1,Long
2023-01-31,39413.5,425.5,39839.0,1,Long
2023-02-01,39413.5,867.5,40281.0,1,Long
2023-02-02,39413.5,985.75,40399.25,1,Long
2023-02-03,39413.5,947.0,40360.5,2,Long
2023-02-05,39413.5,895.5,40309.0,2,Long
2023-02-06,39413.5,786.0,40199.5,2,Long
2023-02-07,39413.5,1214.0,40627.5,2,Long
2023-02-08,39413.5,836.0,40249.5,2,Long
2023-02-09,39413.5,583.5,39997.0,2,Long
2023-02-10,39413.5,387.0,39800.5,2,Long
2023-02-12,39413.5,327.5,39741.0,2,Long
2023-02-13,39413.5,791.5,40205.0,2,Long
2023-02-14,39413.5,929.5,40343.0,2,Long
2023-02-15,39413.5,1207.0,40620.5,2,Long
2023-02-16,39413.5,569.0,39982.5,2,Long
2023-02-17,39413.5,495.0,39908.5,3,Long
2023-02-19,39413.5,423.75,39837.25,3,Long
2023-02-20,39413.5,481.5,39895.0,3,Long
2023-02-21,39413.5,-312.0,39101.5,3,Long
2023-02-22,39413.5,-152.25,39261.25,3,Long
2023-02-23,39413.5,-133.5,39280.0,3,Long
2023-02-24,39413.5,-658.5,38755.0,3,Long
2023-02-26,39413.5,-603.0,38810.5,3,Long
2023-02-27,39413.5,-375.0,39038.5,3,Long
2023-02-28,39413.5,-588.75,38824.75,3,Long
2023-03-01,39413.5,-741.0,38672.5,3,Long
2023-03-02,39413.5,-543.75,38869.75,3,Long
2023-03-03,39413.5,354.5,39768.0,4,Long
2023-03-05,39413.5,217.5,39631.0,4,Long
2023-03-06,39413.5,370.5,39784.0,4,Long
2023-03-07,39413.5,-245.5,39168.0,4,Long
2023-03-08,39413.5,-51.5,39362.0,4,Long
2023-03-09,39413.5,-1008.5,38405.0,4,Long
2023-03-10,38405.0,0.0,38405.0,0,
2023-03-12,38405.0,0.0,38405.0,0,
2023-03-13,38405.0,0.0,38405.0,0,
2023-03-14,38405.0,0.0,38405.0,0,
2023-03-15,38405.0,0.0,38405.0,0,
2023-03-16,38405.0,0.0,38405.0,0,
2023-03-17,38405.0,-73.25,38331.75,1,Long
2023-03-19,38405.0,-17.0,38388.0,1,Long
2023-03-20,38405.0,-30.0,38375.0,1,Long
2023-03-21,38405.0,145.5,38550.5,1,Long
2023-03-22,38405.0,-4.25,38400.75,1,Long
2023-03-23,38405.0,142.0,38547.0,1,Long
2023-03-24,38405.0,201.25,38606.25,1,Long
2023-03-26,38405.0,224.75,38629.75,1,Long
2023-03-27,38405.0,99.5,38504.5,1,Long
2023-03-28,38405.0,36.5,38441.5,1,Long
2023-03-29,38405.0,220.0,38625.0,1,Long
2023-03-30,38405.0,373.0,38778.0,1,Long
2023-03-31,38405.0,628.25,39033.25,2,Long
2023-04-02,38405.0,491.25,38896.25,2,Long
2023-04-03,38405.0,505.25,38910.25,2,Long
2023-04-04,38405.0,492.75,38897.75,2,Long
2023-04-05,38405.0,125.25,38530.25,2,Long
2023-04-06,38405.0,330.25,38735.25,2,Long
2023-04-07,38405.0,372.75,38777.75,2,Long
2023-04-09,38405.0,323.75,38728.75,2,Long
2023-04-10,38405.0,355.75,38760.75,2,Long
2023-04-11,38405.0,190.25,38595.25,2,Long
2023-04-12,38405.0,-125.75,38279.25,2,Long
2023-04-13,38405.0,394.75,38799.75,2,Long
2023-04-14,38405.0,427.0,38832.0,3,Long
2023-04-16,38405.0,388.75,38793.75,3,Long
2023-04-17,38405.0,365.5,38770.5,3,Long
2023-04-18,38405.0,354.25,38759.25,3,Long
2023-04-19,38405.0,213.25,38618.25,3,Long
2023-04-20,38405.0,76.0,38481.0,3,Long
2023-04-21,38405.0,55.0,38460.0,3,Long
2023-04-23,38405.0,34.0,38439.0,3,Long
2023-04-24,38405.0,-22.25,38382.75,3,Long
2023-04-25,38405.0,-290.75,38114.25,3,Long
2023-04-26,38405.0,-299.75,38105.25,3,Long
2023-04-27,38405.0,460.0,38865.0,3,Long
2023-04-28,38405.0,846.5,39251.5,4,Long
2023-04-30,38405.0,767.5,39172.5,4,Long
2023-05-01,38405.0,681.5,39086.5,4,Long
2023-05-02,38405.0,267.5,38672.5,4,Long
2023-05-03,38405.0,-70.5,38334.5,4,Long
2023-05-04,38405.0,-86.5,38318.5,4,Long
2023-05-05,38405.0,780.5,39185.5,4,Long
2023-05-07,38405.0,755.5,39160.5,4,Long
2023-05-08,38405.0,886.5,39291.5,4,Long
2023-05-09,38405.0,640.5,39045.5,4,Long
2023-05-10,38405.0,1225.5,39630.5,4,Long
2023-05-11,38405.0,1357.5,39762.5,4,Long
2023-05-12,38405.0,1005.75,39410.75,5,Long
2023-05-14,38405.0,989.5,39394.5,5,Long
2023-05-15,38405.0,1449.5,39854.5,5,Long
2023-05-16,38405.0,1655.75,40060.75,5,Long
2023-05-17,38405.0,2374.5,40779.5,5,Long
2023-05-18,38405.0,3805.75,42210.75,5,Long
2023-05-19,38405.0,3365.75,41770.75,5,Long
2023-05-21,38405.0,3427.0,41832.0,5,Long
2023-05-22,38405.0,3874.5,42279.5,5,Long
2023-05-23,38405.0,2900.75,41305.75,5,Long
2023-05-24,38405.0,3394.5,41799.5,5,Long
2023-05-25,38405.0,3984.5,42389.5,5,Long
2023-05-26,38405.0,6041.25,44446.25,6,Long
2023-05-28,38405.0,6314.25,44719.25,6,Long
2023-05-29,38405.0,6131.25,44536.25,6,Long
2023-05-30,38405.0,6345.75,44750.75,6,Long
2023-05-31,38405.0,5675.25,44080.25,6,Long
2023-06-01,38405.0,6714.75,45119.75,6,Long
2023-06-02,38405.0,7334.25,45739.25,6,Long
2023-06-04,38405.0,7034.25,45439.25,6,Long
2023-06-05,38405.0,7209.75,45614.75,6,Long
2023-06-06,38405.0,7385.25,45790.25,6,Long
2023-06-07,38405.0,5796.75,44201.75,6,Long
2023-06-08,38405.0,6815.25,45220.25,6,Long
2023-06-09,38405.0,7203.25,45608.25,7,Long
2023-06-11,38405.0,7401.0,45806.0,7,Long
2023-06-12,38405.0,10281.5,48686.5,7,Long
2023-06-13,38405.0,10999.0,49404.0,7,Long
2023-06-14,38405.0,11762.0,50167.0,7,Long
2023-06-15,38405.0,12777.0,51182.0,7,Long
2023-06-16,38405.0,12371.0,50776.0,7,Long
2023-06-18,38405.0,12383.25,50788.25,7,Long
2023-06-19,38405.0,12001.75,50406.75,7,Long
2023-06-20,38405.0,12094.5,50499.5,7,Long
2023-06-21,38405.0,10547.5,48952.5,7,Long
2023-06-22,38405.0,11812.75,50217.75,7,Long
2023-06-23,38405.0,10625.0,49030.0,8,Long
2023-06-25,38405.0,10987.0,49392.0,8,Long
2023-06-26,38405.0,9325.0,47730.0,8,Long
2023-06-27,38405.0,10655.0,49060.0,8,Long
2023-06-28,38405.0,11559.0,49964.0,8,Long
2023-06-29,38405.0,11115.0,49520.0,8,Long
2023-06-30,38405.0,12721.0,51126.0,8,Long
2023-07-02,38405.0,12989.0,51394.0,8,Long
2023-07-03,38405.0,12883.0,51288.0,8,Long
2023-07-04,38405.0,12905.0,51310.0,8,Long
2023-07-05,38405.0,13045.0,51450.0,8,Long
2023-07-06,38405.0,11993.0,50398.0,8,Long
2023-07-07,38405.0,11702.5,50107.5,9,Long
2023-07-09,38405.0,11605.75,50010.75,9,Long
2023-07-10,38405.0,11709.25,50114.25,9,Long
2023-07-11,38405.0,12359.5,50764.5,9,Long
2023-07-12,38405.0,14224.75,52629.75,9,Long
2023-07-13,38405.0,16389.25,54794.25,9,Long
2023-07-14,38405.0,16209.25,54614.25,9,Long
2023-07-16,38405.0,15979.75,54384.75,9,Long
2023-07-17,38405.0,17341.0,55746.0,9,Long
2023-07-18,38405.0,18628.0,57033.0,9,Long
2023-07-19,38405.0,17689.75,56094.75,9,Long
2023-07-20,38405.0,15196.75,53601.75,9,Long
2023-07-21,38405.0,14985.75,53390.75,10,Long
2023-07-23,38405.0,14928.25,53333.25,10,Long
2023-07-24,38405.0,15110.75,53515.75,10,Long
2023-07-25,38405.0,15813.25,54218.25,10,Long
2023-07-26,38405.0,15968.25,54373.25,10,Long
2023-07-27,38405.0,15300.75,53705.75,10,Long
2023-07-28,38405.0,17890.75,56295.75,10,Long
2023-07-30,38405.0,18308.25,56713.25,10,Long
2023-07-31,38405.0,18038.25,56443.25,10,Long
2023-08-01,38405.0,16965.75,55370.75,10,Long
2023-08-02,38405.0,14355.75,52760.75,10,Long
2023-08-03,38405.0,14248.25,52653.25,10,Long
2023-08-04,52650.75,0.0,52650.75,0,
2023-08-06,52650.75,0.0,52650.75,0,
2023-08-07,52650.75,0.0,52650.75,0,
2023-08-08,52650.75,0.0,52650.75,0,
2023-08-09,52650.75,0.0,52650.75,0,
2023-08-10,52650.75,0.0,52650.75,0,
2023-08-11,52650.75,0.0,52650.75,0,
2023-08-13,52650.75,0.0,52650.75,0,
2023-08-14,52650.75,0.0,52650.75,0,
2023-08-15,52650.75,0.0,52650.75,0,
2023-08-16,52650.75,0.0,52650.75,0,
2023-08-17,52650.75,0.0,52650.75,0,
2023-08-18,52650.75,0.0,52650.75,0,
2023-08-20,52650.75,0.0,52650.75,0,
2023-08-21,52650.75,0.0,52650.75,0,
2023-08-22,52650.75,0.0,52650.75,0,
2023-08-23,52650.75,0.0,52650.75,0,
2023-08-24,52650.75,0.0,52650.75,0,
2023-08-25,52650.75,0.0,52650.75,0,
2023-08-27,52650.75,0.0,52650.75,0,
2023-08-28,52650.75,0.0,52650.75,0,
2023-08-29,52650.75,0.0,52650.75,0,
2023-08-30,52650.75,68.25,52719.0,1,Long
2023-08-31,52650.75,101.75,52752.5,1,Long
2023-09-01,52650.75,77.75,52728.5,1,Long
2023-09-03,52650.75,82.0,52732.75,1,Long
2023-09-04,52650.75,91.5,52742.25,1,Long
2023-09-05,52650.75,87.25,52738.0,1,Long
2023-09-06,52650.75,-43.5,52607.25,1,Long
2023-09-07,52650.75,-154.0,52496.75,1,Long
2023-09-08,52650.75,-79.75,52571.0,2,Long
2023-09-10,52650.75,-63.25,52587.5,2,Long
2023-09-11,52650.75,608.25,53259.0,2,Long
2023-09-12,52650.75,302.25,52953.0,2,Long
2023-09-13,52650.75,450.25,53101.0,2,Long
2023-09-14,52650.75,645.25,53296.0,2,Long
2023-09-15,52650.75,57.25,52708.0,2,Long
2023-09-17,52650.75,117.25,52768.0,2,Long
2023-09-18,52650.75,139.75,52790.5,2,Long
2023-09-19,52650.75,57.75,52708.5,2,Long
2023-09-20,52650.75,-481.75,52169.0,2,Long
2023-09-21,52167.5,0.0,52167.5,0,
2023-09-22,52167.5,0.0,52167.5,0,
2023-09-24,52167.5,0.0,52167.5,0,
2023-09-25,52167.5,0.0,52167.5,0,
2023-09-26,52167.5,0.0,52167.5,0,
2023-09-27,52167.5,0.0,52167.5,0,
2023-09-28,52167.5,0.0,52167.5,0,
2023-09-29,52167.5,0.0,52167.5,0,
2023-10-01,52167.5,0.0,52167.5,0,
2023-10-02,52167.5,0.0,52167.5,0,
2023-10-03,52167.5,0.0,52167.5,0,
2023-10-04,52167.5,0.0,52167.5,0,
2023-10-05,52167.5,0.0,52167.5,0,
2023-10-06,52167.5,0.0,52167.5,0,
2023-10-08,52167.5,0.0,52167.5,0,
2023-10-09,52167.5,0.0,52167.5,0,
2023-10-10,52167.5,0.0,52167.5,0,
2023-10-11,52167.5,0.0,52167.5,0,
2023-10-12,52167.5,-84.75,52082.75,1,Long
2023-10-13,52167.5,-308.0,51859.5,1,Long
2023-10-15,52167.5,-248.5,51919.0,1,Long
2023-10-16,52167.5,-124.0,52043.5,1,Long
2023-10-17,52167.5,-203.75,51963.75,1,Long
2023-10-18,52167.5,-377.0,51790.5,1,Long
2023-10-19,52167.5,-571.5,51596.0,1,Long
2023-10-20,52167.5,-800.0,51367.5,2,Long
2023-10-22,52167.5,-676.5,51491.0,2,Long
2023-10-23,52167.5,-571.0,51596.5,2,Long
2023-10-24,52167.5,-466.0,51701.5,2,Long
2023-10-25,51701.5,0.0,51701.5,0,
2023-10-26,51701.5,0.0,51701.5,0,
2023-10-27,51701.5,0.0,51701.5,0,
2023-10-29,51701.5,0.0,51701.5,0,
2023-10-30,51701.5,0.0,51701.5,0,
2023-10-31,51701.5,0.0,51701.5,0,
2023-11-01,51701.5,0.0,51701.5,0,
2023-11-02,51701.5,0.0,51701.5,0,
2023-11-03,51701.5,0.0,51701.5,0,
2023-11-05,51701.5,-11.25,51690.25,1,Long
2023-11-06,51701.5,21.75,51723.25,1,Long
2023-11-07,51701.5,181.25,51882.75,1,Long
2023-11-08,51701.5,171.0,51872.5,1,Long
2023-11-09,51701.5,45.75,51747.25,1,Long
2023-11-10,51701.5,394.25,52095.75,1,Long
2023-11-12,51701.5,373.25,52074.75,1,Long
2023-11-13,51701.5,371.5,52073.0,1,Long
2023-11-14,51701.5,717.75,52419.25,1,Long
2023-11-15,51701.5,678.0,52379.5,1,Long
2023-11-16,51701.5,698.75,52400.25,1,Long
2023-11-17,51701.5,687.75,52389.25,2,Long
2023-11-19,51701.5,667.25,52368.75,2,Long
2023-11-20,51701.5,1141.25,52842.75,2,Long
2023-11-21,51701.5,848.25,52549.75,2,Long
2023-11-22,51701.5,1031.25,52732.75,2,Long
2023-11-23,51701.5,1068.75,52770.25,2,Long
2023-11-24,51701.5,961.25,52662.75,2,Long
2023-11-26,51701.5,912.25,52613.75,2,Long
2023-11-27,51701.5,959.25,52660.75,2,Long
2023-11-28,51701.5,1046.25,52747.75,2,Long
2023-11-29,51701.5,1033.75,52735.25,2,Long
2023-11-30,51701.5,868.75,52570.25,2,Long
2023-12-01,51701.5,1014.5,52716.0,3,Long
2023-12-03,51701.5,897.5,52599.0,3,Long
2023-12-04,51701.5,470.0,52171.5,3,Long
2023-12-05,51701.5,705.5,52407.0,3,Long
2023-12-06,51701.5,371.0,52072.5,3,Long
2023-12-07,51701.5,981.5,52683.0,3,Long
2023-12-08,51701.5,1199.0,52900.5,3,Long
2023-12-10,51701.5,1235.0,52936.5,3,Long
2023-12-11,51701.5,2285.75,53987.25,3,Long
2023-12-12,51701.5,2750.0,54451.5,3,Long
2023-12-13,51701.5,3369.5,55071.0,3,Long
2023-12-14,51701.5,3203.0,54904.5,3,Long
2023-12-15,51701.5,3350.5,55052.0,4,Long
2023-12-17,51701.5,3381.5,55083.0,4,Long
2023-12-18,51701.5,3783.5,55485.0,4,Long
2023-12-19,51701.5,4197.5,55899.0,4,Long
2023-12-20,51701.5,3333.5,55035.0,4,Long
2023-12-21,51701.5,3854.5,55556.0,4,Long
2023-12-22,51701.5,3936.5,55638.0,4,Long
2023-12-25,51701.5,4102.5,55804.0,4,Long
2023-12-26,51701.5,4444.5,56146.0,4,Long
2023-12-27,51701.5,4573.5,56275.0,4,Long
2023-12-28,51701.5,4489.5,56191.0,4,Long
2023-12-29,51701.5,4089.0,55790.5,5,Long
2024-01-01,51701.5,4217.75,55919.25,5,Long
2024-01-02,51701.5,2691.5,54393.0,5,Long
2024-01-03,54394.25,0.0,54394.25,0,
2024-01-04,54394.25,0.0,54394.25,0,
2024-01-05,54394.25,0.0,54394.25,0,
2024-01-07,54394.25,0.0,54394.25,0,
2024-01-08,54394.25,0.0,54394.25,0,
2024-01-09,54394.25,0.0,54394.25,0,
2024-01-10,54394.25,0.0,54394.25,0,
2024-01-11,54394.25,0.0,54394.25,0,
2024-01-12,54394.25,0.0,54394.25,0,
2024-01-14,54394.25,0.0,54394.25,0,
2024-01-15,54394.25,0.0,54394.25,0,
2024-01-16,54394.25,0.0,54394.25,0,
2024-01-17,54394.25,-125.5,54268.75,1,Long
2024-01-18,54394.25,169.5,54563.75,1,Long
2024-01-19,54394.25,484.0,54878.25,1,Long
2024-01-21,54394.25,504.5,54898.75,1,Long
2024-01-22,54394.25,485.25,54879.5,1,Long
2024-01-23,54394.25,596.75,54991.0,1,Long
2024-01-24,54394.25,637.75,55032.0,1,Long
2024-01-25,54394.25,563.25,54957.5,1,Long
2024-01-26,54394.25,498.75,54893.0,2,Long
2024-01-28,54394.25,448.75,54843.0,2,Long
2024-01-29,54394.25,933.25,55327.5,2,Long
2024-01-30,54394.25,385.75,54780.0,2,Long
2024-01-31,54394.25,54.25,54448.5,2,Long
2024-02-01,54394.25,676.25,55070.5,2,Long
2024-02-02,54394.25,861.25,55255.5,2,Long
2024-02-04,54394.25,904.25,55298.5,2,Long
2024-02-05,54394.25,881.75,55276.0,2,Long
2024-02-06,54394.25,793.25,55187.5,2,Long
2024-02-07,54394.25,1174.25,55568.5,2,Long
2024-02-08,54394.25,1223.75,55618.0,2,Long
2024-02-09,54394.25,1567.5,55961.75,3,Long
2024-02-11,54394.25,1559.25,55953.5,3,Long
2024-02-12,54394.25,1266.0,55660.25,3,Long
2024-02-13,54394.25,525.0,54919.25,3,Long
2024-02-14,54394.25,1090.5,55484.75,3,Long
2024-02-15,54394.25,1311.75,55706.0,3,Long
2024-02-16,54394.25,618.0,55012.25,3,Long
2024-02-18,54394.25,786.75,55181.0,3,Long
2024-02-19,54394.25,699.0,55093.25,3,Long
2024-02-20,54394.25,159.0,54553.25,3,Long
2024-02-21,54394.25,566.25,54960.5,3,Long
2024-02-22,54394.25,1578.75,55973.0,3,Long
2024-02-23,54394.25,1291.5,55685.75,4,Long
2024-02-25,54394.25,1377.5,55771.75,4,Long
2024-02-26,54394.25,1299.5,55693.75,4,Long
2024-02-27,54394.25,1467.5,55861.75,4,Long
2024-02-28,54394.25,926.5,55320.75,4,Long
2024-02-29,54394.25,1685.5,56079.75,4,Long
2024-03-01,54394.25,2733.5,57127.75,4,Long
2024-03-03,54394.25,2821.5,57215.75,4,Long
2024-03-04,54394.25,2340.5,56734.75,4,Long
2024-03-05,54394.25,1297.5,55691.75,4,Long
2024-03-06,54394.25,1521.5,55915.75,4,Long
2024-03-07,54394.25,2512.5,56906.75,4,Long
2024-03-08,54394.25,1655.25,56049.5,5,Long
2024-03-10,54394.25,1592.75,55987.0,5,Long
2024-03-11,54394.25,2849.0,57243.25,5,Long
2024-03-12,54394.25,3771.5,58165.75,5,Long
2024-03-13,54394.25,3244.0,57638.25,5,Long
2024-03-14,54394.25,2571.5,56965.75,5,Long
2024-03-15,54394.25,1696.5,56090.75,5,Long
2024-03-17,54394.25,1774.0,56168.25,5,Long
2024-03-18,54394.25,2336.5,56730.75,5,Long
2024-03-19,54394.25,2721.5,57115.75,5,Long
2024-03-20,54394.25,4272.75,58667.0,5,Long
2024-03-21,54394.25,4324.0,58718.25,5,Long
2024-03-22,54394.25,4176.0,58570.25,6,Long
2024-03-24,54394.25,4308.0,58702.25,6,Long
2024-03-25,54394.25,4035.0,58429.25,6,Long
2024-03-26,54394.25,3727.5,58121.75,6,Long
2024-03-27,54394.25,3673.5,58067.75,6,Long
2024-03-28,54394.25,3583.5,57977.75,6,Long
2024-03-31,54394.25,4443.0,58837.25,6,Long
2024-04-01,54394.25,3613.5,58007.75,6,Long
2024-04-02,54394.25,2763.0,57157.25,6,Long
2024-04-03,54394.25,3466.5,57860.75,6,Long
2024-04-04,54394.25,1341.0,55735.25,6,Long
2024-04-05,54394.25,2655.0,57049.25,6,Long
2024-04-07,54394.25,2706.0,57100.25,6,Long
2024-04-08,54394.25,2602.5,56996.75,6,Long
2024-04-09,54394.25,3000.0,57394.25,6,Long
2024-04-10,54394.25,1743.0,56137.25,6,Long
2024-04-11,54394.25,3733.5,58127.75,6,Long
2024-04-12,54394.25,1802.75,56197.0,7,Long
2024-04-14,54394.25,2266.5,56660.75,7,Long
2024-04-15,56662.5,0.0,56662.5,0,
2024-04-16,56662.5,0.0,56662.5,0,
2024-04-17,56662.5,0.0,56662.5,0,
2024-04-18,56662.5,0.0,56662.5,0,
2024-04-19,56662.5,0.0,56662.5,0,
2024-04-21,56662.5,0.0,56662.5,0,
2024-04-22,56662.5,0.0,56662.5,0,
2024-04-23,56662.5,0.0,56662.5,0,
2024-04-24,56662.5,0.0,56662.5,0,
2024-04-25,56662.5,0.0,56662.5,0,
2024-04-26,56662.5,0.0,56662.5,0,
2024-04-28,56662.5,0.0,56662.5,0,
2024-04-29,56662.5,0.0,56662.5,0,
2024-04-30,56662.5,0.0,56662.5,0,
2024-05-01,56662.5,0.0,56662.5,0,
2024-05-02,56662.5,0.0,56662.5,0,
2024-05-03,56662.5,0.0,56662.5,0,
2024-05-05,56662.5,0.0,56662.5,0,
2024-05-06,56662.5,0.0,56662.5,0,
2024-05-07,56662.5,20.5,56683.0,1,Long
2024-05-08,56662.5,-22.0,56640.5,1,Long
2024-05-09,56662.5,47.5,56710.0,1,Long
2024-05-10,56662.5,55.75,56718.25,1,Long
2024-05-12,56662.5,61.75,56724.25,1,Long
2024-05-13,56662.5,100.0,56762.5,1,Long
2024-05-14,56662.5,233.25,56895.75,1,Long
2024-05-15,56662.5,537.25,57199.75,1,Long
2024-05-16,56662.5,467.5,57130.0,1,Long
2024-05-17,56662.5,463.0,57125.5,2,Long
2024-05-19,56662.5,529.5,57192.0,2,Long
2024-05-20,56662.5,699.0,57361.5,2,Long
2024-05-21,56662.5,822.5,57485.0,2,Long
2024-05-22,56662.5,945.0,57607.5,2,Long
2024-05-23,56662.5,597.5,57260.0,2,Long
2024-05-24,56662.5,938.5,57601.0,2,Long
2024-05-26,56662.5,868.0,57530.5,2,Long
2024-05-27,56662.5,1011.5,57674.0,2,Long
2024-05-28,56662.5,1055.0,57717.5,2,Long
2024-05-29,56662.5,642.0,57304.5,2,Long
2024-05-30,56662.5,313.0,56975.5,2,Long
2024-05-31,56662.5,397.5,57060.0,3,Long
2024-06-02,56662.5,458.25,57120.75,3,Long
2024-06-03,56662.5,633.75,57296.25,3,Long
2024-06-04,56662.5,895.5,57558.0,3,Long
2024-06-05,56662.5,1956.0,58618.5,3,Long
2024-06-06,56662.5,1907.25,58569.75,3,Long
2024-06-07,56662.5,1775.25,58437.75,3,Long
2024-06-09,56662.5,1763.25,58425.75,3,Long
2024-06-10,56662.5,1936.5,58599.0,3,Long
2024-06-11,56662.5,2452.5,59115.0,3,Long
2024-06-12,56662.5,3483.0,60145.5,3,Long
2024-06-13,56662.5,3537.75,60200.25,3,Long
2024-06-14,56662.5,3811.0,60473.5,4,Long
2024-06-16,56662.5,3872.0,60534.5,4,Long
2024-06-17,56662.5,5846.0,62508.5,4,Long
2024-06-18,56662.5,5919.0,62581.5,4,Long
2024-06-19,56662.5,5970.0,62632.5,4,Long
2024-06-20,56662.5,5304.0,61966.5,4,Long
2024-06-21,56662.5,5062.0,61724.5,4,Long
2024-06-23,56662.5,5059.0,61721.5,4,Long
2024-06-24,56662.5,4113.0,60775.5,4,Long
2024-06-25,56662.5,4889.0,61551.5,4,Long
2024-06-26,56662.5,4701.0,61363.5,4,Long
2024-06-27,56662.5,5408.0,62070.5,4,Long
2024-06-28,56662.5,4859.0,61521.5,5,Long
2024-06-30,56662.5,4754.0,61416.5,5,Long
2024-07-01,56662.5,5119.0,61781.5,5,Long
2024-07-02,56662.5,6212.75,62875.25,5,Long
2024-07-03,56662.5,7035.25,63697.75,5,Long
2024-07-04,56662.5,6976.5,63639.0,5,Long
2024-07-05,56662.5,7975.25,64637.75,5,Long
2024-07-07,56662.5,7976.5,64639.0,5,Long
2024-07-08,56662.5,8715.25,65377.75,5,Long
2024-07-09,56662.5,8511.5,65174.0,5,Long
2024-07-10,56662.5,9430.25,66092.75,5,Long
2024-07-11,56662.5,7096.5,63759.0,5,Long
2024-07-12,56662.5,7706.5,64369.0,6,Long
2024-07-14,56662.5,7828.0,64490.5,6,Long
2024-07-15,56662.5,8258.5,64921.0,6,Long
2024-07-16,56662.5,7859.5,64522.0,6,Long
2024-07-17,64522.0,0.0,64522.0,0,
2024-07-18,64522.0,0.0,64522.0,0,
2024-07-19,64522.0,0.0,64522.0,0,
2024-07-21,64522.0,0.0,64522.0,0,
2024-07-22,64522.0,0.0,64522.0,0,
2024-07-23,64522.0,0.0,64522.0,0,
2024-07-24,64522.0,0.0,64522.0,0,
2024-07-25,64522.0,0.0,64522.0,0,
2024-07-26,64522.0,0.0,64522.0,0,
2024-07-28,64522.0,0.0,64522.0,0,
2024-07-29,64522.0,0.0,64522.0,0,
2024-07-30,64522.0,0.0,64522.0,0,
2024-07-31,64522.0,0.0,64522.0,0,
2024-08-01,64522.0,0.0,64522.0,0,
2024-08-02,64522.0,0.0,64522.0,0,
2024-08-04,64522.0,0.0,64522.0,0,
2024-08-05,64522.0,0.0,64522.0,0,
2024-08-06,64522.0,0.0,64522.0,0,
2024-08-07,64522.0,0.0,64522.0,0,
2024-08-08,64522.0,0.0,64522.0,0,
2024-08-09,64522.0,0.0,64522.0,0,
2024-08-11,64522.0,0.0,64522.0,0,
2024-08-12,64522.0,0.0,64522.0,0,
2024-08-13,64522.0,0.0,64522.0,0,
2024-08-14,64522.0,-10.0,64512.0,1,Long
2024-08-15,64522.0,497.0,65019.0,1,Long
2024-08-16,64522.0,487.5,65009.5,1,Long
2024-08-18,64522.0,531.5,65053.5,1,Long
2024-08-19,64522.0,744.0,65266.0,1,Long
2024-08-20,64522.0,673.0,65195.0,1,Long
2024-08-21,64522.0,819.5,65341.5,1,Long
2024-08-22,64522.0,521.75,65043.75,1,Long
2024-08-23,64522.0,674.5,65196.5,2,Long
2024-08-25,64522.0,645.0,65167.0,2,Long
2024-08-26,64522.0,261.5,64783.5,2,Long
2024-08-27,64522.0,293.0,64815.0,2,Long
2024-08-28,64522.0,-495.5,64026.5,2,Long
2024-08-29,64522.0,-21.0,64501.0,2,Long
2024-08-30,64522.0,307.0,64829.0,2,Long
2024-09-01,64522.0,291.0,64813.0,2,Long
2024-09-02,64522.0,280.0,64802.0,2,Long
2024-09-03,64522.0,-966.0,63556.0,2,Long
2024-09-04,64522.0,-1015.5,63506.5,2,Long
2024-09-05,64522.0,-1056.0,63466.0,2,Long
2024-09-06,63464.0,0.0,63464.0,0,
2024-09-08,63464.0,0.0,63464.0,0,
2024-09-09,63464.0,0.0,63464.0,0,
2024-09-10,63464.0,0.0,63464.0,0,
2024-09-11,63464.0,0.0,63464.0,0,
2024-09-12,63464.0,0.0,63464.0,0,
2024-09-13,63464.0,0.0,63464.0,0,
2024-09-15,63464.0,40.25,63504.25,1,Long
2024-09-16,63464.0,174.75,63638.75,1,Long
2024-09-17,63464.0,207.25,63671.25,1,Long
2024-09-18,63464.0,265.25,63729.25,1,Long
2024-09-19,63464.0,551.0,64015.0,1,Long
2024-09-20,63464.0,516.25,63980.25,1,Long
2024-09-22,63464.0,564.0,64028.0,1,Long
2024-09-23,63464.0,570.25,64034.25,1,Long
2024-09-24,63464.0,681.5,64145.5,1,Long
2024-09-25,63464.0,779.5,64243.5,1,Long
2024-09-26,63464.0,845.75,64309.75,1,Long
2024-09-27,63464.0,674.5,64138.5,2,Long
2024-09-29,63464.0,832.5,64296.5,2,Long
2024-09-30,63464.0,782.5,64246.5,2,Long
2024-10-01,63464.0,152.5,63616.5,2,Long
2024-10-02,63464.0,397.0,63861.0,2,Long
2024-10-03,63464.0,253.5,63717.5,2,Long
2024-10-04,63464.0,694.0,64158.0,2,Long
2024-10-06,63464.0,748.5,64212.5,2,Long
2024-10-07,63464.0,253.5,63717.5,2,Long
2024-10-08,63464.0,833.5,64297.5,2,Long
2024-10-09,63464.0,1188.0,64652.0,2,Long
2024-10-10,63464.0,1190.5,64654.5,2,Long
2024-10-11,63464.0,1051.5,64515.5,3,Long
2024-10-13,63464.0,1095.75,64559.75,3,Long
2024-10-14,63464.0,1710.0,65174.0,3,Long
2024-10-15,63464.0,870.0,64334.0,3,Long
2024-10-16,63464.0,756.0,64220.0,3,Long
2024-10-17,63464.0,1029.75,64493.75,3,Long
2024-10-18,63464.0,1267.5,64731.5,3,Long
2024-10-20,63464.0,1355.25,64819.25,3,Long
2024-10-21,63464.0,1362.0,64826.0,3,Long
2024-10-22,63464.0,1403.25,64867.25,3,Long
2024-10-23,63464.0,684.75,64148.75,3,Long
2024-10-24,63464.0,957.75,64421.75,3,Long
2024-10-25,63464.0,1204.0,64668.0,4,Long
2024-10-27,63464.0,1689.0,65153.0,4,Long
2024-10-28,63464.0,1327.0,64791.0,4,Long
2024-10-29,63464.0,2287.0,65751.0,4,Long
2024-10-30,63464.0,1001.0,64465.0,4,Long
2024-10-31,63464.0,-409.0,63055.0,4,Long
2024-11-01,63464.0,-27.0,63437.0,4,Long
2024-11-03,63464.0,-165.0,63299.0,4,Long
2024-11-04,63464.0,-352.0,63112.0,4,Long
2024-11-05,63464.0,671.0,64135.0,4,Long
2024-11-06,63464.0,2859.0,66323.0,4,Long
2024-11-07,63464.0,4202.0,67666.0,4,Long
2024-11-08,63464.0,4211.5,67675.5,5,Long
2024-11-10,63464.0,4596.5,68060.5,5,Long
2024-11-11,63464.0,4156.5,67620.5,5,Long
2024-11-12,63464.0,3876.5,67340.5,5,Long
2024-11-13,63464.0,3906.5,67370.5,5,Long
2024-11-14,63464.0,2824.0,66288.0,5,Long
2024-11-15,63464.0,594.0,64058.0,5,Long
2024-11-17,63464.0,917.75,64381.75,5,Long
2024-11-18,63464.0,1187.75,64651.75,5,Long
2024-11-19,63464.0,1991.5,65455.5,5,Long
2024-11-20,63464.0,1839.0,65303.0,5,Long
2024-11-21,63464.0,1944.0,65408.0,5,Long
2024-11-22,63464.0,2511.5,65975.5,6,Long
2024-11-24,63464.0,2855.0,66319.0,6,Long
2024-11-25,63464.0,2246.0,65710.0,6,Long
2024-11-26,63464.0,3155.0,66619.0,6,Long
2024-11-27,63464.0,2180.0,65644.0,6,Long
2024-11-28,63464.0,2567.0,66031.0,6,Long
2024-11-29,63464.0,3189.5,66653.5,6,Long
2024-12-01,63464.0,3027.5,66491.5,6,Long
2024-12-02,63464.0,4523.0,67987.0,6,Long
2024-12-03,63464.0,5237.0,68701.0,6,Long
2024-12-04,63464.0,6302.0,69766.0,6,Long
2024-12-05,63464.0,5975.0,69439.0,6,Long
2024-12-06,63464.0,7035.5,70499.5,7,Long
2024-12-08,63464.0,7201.75,70665.75,7,Long
2024-12-09,63464.0,5856.0,69320.0,7,Long
2024-12-10,63464.0,5597.0,69061.0,7,Long
2024-12-11,63464.0,7905.25,71369.25,7,Long
2024-12-12,63464.0,7809.0,71273.0,7,Long
2024-12-13,63464.0,7921.0,71385.0,7,Long
2024-12-15,63464.0,8122.25,71586.25,7,Long
2024-12-16,63464.0,10290.5,73754.5,7,Long
2024-12-17,63464.0,11517.25,74981.25,7,Long
2024-12-18,74981.25,0.0,74981.25,0,
2024-12-19,74981.25,0.0,74981.25,0,
2024-12-20,74981.25,0.0,74981.25,0,
2024-12-22,74981.25,0.0,74981.25,0,
2024-12-23,74981.25,0.0,74981.25,0,
2024-12-24,74981.25,0.0,74981.25,0,
2024-12-25,74981.25,0.0,74981.25,0,
2024-12-26,74981.25,0.0,74981.25,0,
2024-12-27,74981.25,0.0,74981.25,0,
2024-12-29,74981.25,0.0,74981.25,0,
2024-12-30,74981.25,0.0,74981.25,0,
2024-12-31,74981.25,0.0,74981.25,0,
2025-01-01,74981.25,0.0,74981.25,0,
2025-01-02,74981.25,0.0,74981.25,0,
2025-01-03,74981.25,0.0,74981.25,0,
2025-01-05,74981.25,0.0,74981.25,0,
2025-01-06,74981.25,0.0,74981.25,0,
2025-01-07,74981.25,0.0,74981.25,0,
2025-01-08,74981.25,0.0,74981.25,0,
2025-01-09,74981.25,0.0,74981.25,0,
2025-01-10,74981.25,0.0,74981.25,0,
2025-01-12,74981.25,0.0,74981.25,0,
2025-01-13,74981.25,0.0,74981.25,0,
2025-01-14,74981.25,0.0,74981.25,0,
2025-01-15,74981.25,0.0,74981.25,0,
2025-01-16,74981.25,0.0,74981.25,0,
2025-01-17,74981.25,0.0,74981.25,0,
2025-01-19,74981.25,0.0,74981.25,0,
2025-01-20,74981.25,0.0,74981.25,0,
2025-01-21,74981.25,0.0,74981.25,0,
2025-01-22,74981.25,0.0,74981.25,0,
2025-01-23,74981.25,45.25,75026.5,1,Long
2025-01-24,74981.25,-57.0,74924.25,1,Long
2025-01-26,74981.25,-299.5,74681.75,1,Long
2025-01-27,74981.25,-638.0,74343.25,1,Long
2025-01-28,74981.25,-420.0,74561.25,1,Long
2025-01-29,74981.25,-427.0,74554.25,1,Long
2025-01-30,74981.25,-267.0,74714.25,1,Long
2025-01-31,74981.25,-421.0,74560.25,2,Long
2025-02-02,74981.25,-1337.0,73644.25,2,Long
2025-02-03,74981.25,-420.5,74560.75,2,Long
2025-02-04,74981.25,-429.0,74552.25,2,Long
2025-02-05,74981.25,-16.0,74965.25,2,Long
2025-02-06,74981.25,144.5,75125.75,2,Long
2025-02-07,74981.25,-412.5,74568.75,2,Long
2025-02-09,74981.25,-270.5,74710.75,2,Long
2025-02-10,74981.25,27.0,75008.25,2,Long
2025-02-11,74981.25,58.5,75039.75,2,Long
2025-02-12,74981.25,213.0,75194.25,2,Long
2025-02-13,74981.25,605.5,75586.75,2,Long
2025-02-14,74981.25,847.75,75829.0,3,Long
2025-02-16,74981.25,873.25,75854.5,3,Long
2025-02-17,74981.25,900.25,75881.5,3,Long
2025-02-18,74981.25,990.25,75971.5,3,Long
2025-02-19,74981.25,891.25,75872.5,3,Long
2025-02-20,74981.25,723.25,75704.5,3,Long
2025-02-21,74981.25,-782.75,74198.5,3,Long
2025-02-23,74981.25,-487.25,74494.0,3,Long
2025-02-24,74981.25,-1605.5,73375.75,3,Long
2025-02-25,73376.5,0.0,73376.5,0,
2025-02-26,73376.5,0.0,73376.5,0,
2025-02-27,73376.5,0.0,73376.5,0,
2025-02-28,73376.5,0.0,73376.5,0,
2025-03-02,73376.5,0.0,73376.5,0,
2025-03-03,73376.5,0.0,73376.5,0,
2025-03-04,73376.5,0.0,73376.5,0,
2025-03-05,73376.5,0.0,73376.5,0,
2025-03-06,73376.5,0.0,73376.5,0,
2025-03-07,73376.5,0.0,73376.5,0,
2025-03-09,73376.5,0.0,73376.5,0,
2025-03-10,73376.5,0.0,73376.5,0,
2025-03-11,73376.5,0.0,73376.5,0,
2025-03-12,73376.5,0.0,73376.5,0,
2025-03-13,73376.5,0.0,73376.5,0,
2025-03-14,73376.5,0.0,73376.5,0,
2025-03-16,73376.5,0.0,73376.5,0,
2025-03-17,73376.5,0.0,73376.5,0,
2025-03-18,73376.5,0.0,73376.5,0,
2025-03-19,73376.5,0.0,73376.5,0,
2025-03-20,73376.5,0.0,73376.5,0,
2025-03-21,73376.5,0.0,73376.5,0,
2025-03-23,73376.5,0.0,73376.5,0,
2025-03-24,73376.5,0.0,73376.5,0,
2025-03-25,73376.5,0.0,73376.5,0,
2025-03-26,73376.5,0.0,73376.5,0,
2025-03-27,73376.5,0.0,73376.5,0,
2025-03-28,73376.5,0.0,73376.5,0,
2025-03-30,73376.5,0.0,73376.5,0,
2025-03-31,73376.5,0.0,73376.5,0,
2025-04-01,73376.5,0.0,73376.5,0,
2025-04-02,73376.5,0.0,73376.5,0,
2025-04-03,73376.5,0.0,73376.5,0,
2025-04-04,73376.5,0.0,73376.5,0,
2025-04-06,73376.5,0.0,73376.5,0,
2025-04-07,73376.5,0.0,73376.5,0,
2025-04-08,73376.5,0.0,73376.5,0,
2025-04-09,73376.5,0.0,73376.5,0,
2025-04-10,73376.5,-956.0,72420.5,1,Long
2025-04-11,73376.5,-493.75,72882.75,1,Long
2025-04-13,73376.5,-299.75,73076.75,1,Long
2025-04-14,73376.5,-462.5,72914.0,1,Long
2025-04-15,73376.5,-584.5,72792.0,1,Long
2025-04-16,73376.5,-910.25,72466.25,1,Long
2025-04-17,73376.5,-882.75,72493.75,1,Long
2025-04-20,73376.5,-998.5,72378.0,1,Long
2025-04-21,73376.5,-1309.5,72067.0,1,Long
2025-04-22,73376.5,-551.5,72825.0,1,Long
2025-04-23,73376.5,-473.25,72903.25,1,Long
2025-04-24,73376.5,99.75,73476.25,1,Long
2025-04-25,73376.5,322.5,73699.0,2,Long
2025-04-27,73376.5,121.5,73498.0,2,Long
2025-04-28,73376.5,270.0,73646.5,2,Long
2025-04-29,73376.5,339.5,73716.0,2,Long
2025-04-30,73376.5,1047.0,74423.5,2,Long
2025-05-01,73376.5,793.5,74170.0,2,Long
2025-05-02,73376.5,1614.0,74990.5,2,Long
2025-05-04,73376.5,1383.5,74760.0,2,Long
2025-05-05,73376.5,1230.0,74606.5,2,Long
2025-05-06,73376.5,1348.0,74724.5,2,Long
2025-05-07,73376.5,1117.5,74494.0,2,Long
2025-05-08,73376.5,1491.5,74868.0,2,Long
2025-05-09,73376.5,1510.0,74886.5,3,Long
2025-05-11,73376.5,2429.5,75806.0,3,Long
2025-05-12,73376.5,3796.0,77172.5,3,Long
2025-05-13,73376.5,4947.25,78323.75,3,Long
2025-05-14,73376.5,5197.0,78573.5,3,Long
2025-05-15,73376.5,5314.75,78691.25,3,Long
2025-05-16,73376.5,5283.25,78659.75,3,Long
2025-05-18,73376.5,5215.0,78591.5,3,Long
2025-05-19,73376.5,5689.75,79066.25,3,Long
2025-05-20,73376.5,5365.75,78742.25,3,Long
2025-05-21,73376.5,4512.25,77888.75,3,Long
2025-05-22,73376.5,4606.75,77983.25,3,Long
2025-05-23,73376.5,3867.75,77244.25,4,Long
2025-05-25,73376.5,4809.75,78186.25,4,Long
2025-05-26,73376.5,4998.75,78375.25,4,Long
2025-05-27,73376.5,5936.75,79313.25,4,Long
2025-05-28,73376.5,7118.75,80495.25,4,Long
2025-05-29,73376.5,5322.75,78699.25,4,Long
2025-05-30,73376.5,5530.75,78907.25,4,Long
2025-06-01,73376.5,5268.75,78645.25,4,Long
2025-06-02,73376.5,6033.75,79410.25,4,Long
2025-06-03,73376.5,6875.75,80252.25,4,Long
2025-06-04,73376.5,7019.75,80396.25,4,Long
2025-06-05,73376.5,6238.75,79615.25,4,Long
2025-06-06,73376.5,7303.5,80680.0,5,Long
2025-06-08,73376.5,7063.5,80440.0,5,Long
2025-06-09,73376.5,7414.75,80791.25,5,Long
2025-06-10,73376.5,8028.5,81405.0,5,Long
2025-06-11,73376.5,7447.25,80823.75,5,Long
2025-06-12,73376.5,7174.75,80551.25,5,Long
2025-06-13,73376.5,6524.75,79901.25,5,Long
2025-06-15,73376.5,6691.0,80067.5,5,Long
2025-06-16,73376.5,8333.5,81710.0,5,Long
2025-06-17,73376.5,7782.25,81158.75,5,Long
2025-06-18,73376.5,7998.5,81375.0,5,Long
2025-06-19,73376.5,7689.75,81066.25,5,Long
2025-06-20,73376.5,7691.25,81067.75,6,Long
2025-06-22,73376.5,7011.75,80388.25,6,Long
2025-06-23,73376.5,9864.75,83241.25,6,Long
2025-06-24,73376.5,10992.75,84369.25,6,Long
2025-06-25,73376.5,11237.25,84613.75,6,Long
2025-06-26,73376.5,12513.75,85890.25,6,Long
2025-06-27,73376.5,12888.75,86265.25,6,Long
2025-06-29,73376.5,13350.75,86727.25,6,Long
2025-06-30,73376.5,13736.25,87112.75,6,Long
2025-07-01,73376.5,12696.75,86073.25,6,Long
2025-07-02,73376.5,13538.25,86914.75,6,Long
2025-07-03,73376.5,14655.75,88032.25,6,Long
2025-07-04,73376.5,13874.25,87250.75,7,Long
2025-07-06,73376.5,14429.0,87805.5,7,Long
2025-07-07,73376.5,13660.75,87037.25,7,Long
2025-07-08,73376.5,13851.5,87228.0,7,Long
2025-07-09,73376.5,14787.75,88164.25,7,Long
2025-07-10,73376.5,14854.25,88230.75,7,Long
2025-07-11,73376.5,14103.5,87480.0,7,Long
2025-07-13,73376.5,13608.25,86984.75,7,Long
2025-07-14,73376.5,14623.25,87999.75,7,Long
2025-07-15,73376.5,14642.5,88019.0,7,Long
2025-07-16,73376.5,14826.25,88202.75,7,Long
2025-07-17,73376.5,16504.5,89881.0,7,Long
2025-07-18,73376.5,16159.25,89535.75,8,Long
2025-07-20,73376.5,16409.25,89785.75,8,Long
2025-07-21,73376.5,17101.25,90477.75,8,Long
2025-07-22,73376.5,16423.25,89799.75,8,Long
2025-07-23,73376.5,17537.25,90913.75,8,Long
2025-07-24,73376.5,17579.25,90955.75,8,Long
2025-07-25,73376.5,17907.25,91283.75,8,Long
2025-07-27,73376.5,18603.25,91979.75,8,Long
2025-07-28,73376.5,18557.25,91933.75,8,Long
2025-07-29,73376.5,18127.25,91503.75,8,Long
2025-07-30,73376.5,20129.25,93505.75,8,Long
2025-07-31,73376.5,16709.25,90085.75,8,Long
2025-08-01,90091.75,0.0,90091.75,0,
2025-08-03,90091.75,0.0,90091.75,0,
2025-08-04,90091.75,0.0,90091.75,0,
2025-08-05,90091.75,0.0,90091.75,0,
2025-08-06,90091.75,0.0,90091.75,0,
2025-08-07,90091.75,0.0,90091.75,0,
2025-08-08,90091.75,0.0,90091.75,0,
2025-08-10,90091.75,-59.5,90032.25,1,Long
2025-08-11,90091.75,-130.5,89961.25,1,Long
2025-08-12,90091.75,193.25,90285.0,1,Long
2025-08-13,90091.75,182.0,90273.75,1,Long
2025-08-14,90091.75,121.5,90213.25,1,Long
2025-08-15,90091.75,29.25,90121.0,1,Long
2025-08-17,90091.75,83.75,90175.5,1,Long
2025-08-18,90091.75,37.5,90129.25,1,Long
2025-08-19,90091.75,-345.25,89746.5,1,Long
2025-08-20,90091.75,-447.75,89644.0,1,Long
2025-08-21,90091.75,-519.25,89572.5,1,Long
2025-08-22,90091.75,-166.5,89925.25,2,Long
2025-08-24,90091.75,-183.0,89908.75,2,Long
2025-08-25,90091.75,-339.0,89752.75,2,Long
2025-08-26,90091.75,-104.0,89987.75,2,Long
2025-08-27,90091.75,-315.5,89776.25,2,Long
2025-08-28,90091.75,164.5,90256.25,2,Long
2025-08-29,90091.75,-423.0,89668.75,2,Long
2025-08-31,90091.75,-256.0,89835.75,2,Long
2025-09-01,90091.75,-441.0,89650.75,2,Long
2025-09-02,90091.75,-663.0,89428.75,2,Long
2025-09-03,90091.75,-456.0,89635.75,2,Long
2025-09-04,90091.75,80.5,90172.25,2,Long
2025-09-05,90091.75,21.25,90113.0,3,Long
2025-09-07,90091.75,335.5,90427.25,3,Long
2025-09-08,90091.75,424.0,90515.75,3,Long
2025-09-09,90091.75,659.5,90751.25,3,Long
2025-09-10,90091.75,704.5,90796.25,3,Long
2025-09-11,90091.75,1060.0,91151.75,3,Long
2025-09-12,90091.75,1345.75,91437.5,3,Long
2025-09-14,90091.75,1335.25,91427.0,3,Long
2025-09-15,90091.75,1917.25,92009.0,3,Long
2025-09-16,90091.75,2631.25,92723.0,3,Long
2025-09-17,90091.75,2754.25,92846.0,3,Long
2025-09-18,90091.75,3222.25,93314.0,3,Long
2025-09-19,90091.75,3603.25,93695.0,4,Long
2025-09-21,90091.75,3563.25,93655.0,4,Long
2025-09-22,90091.75,4148.25,94240.0,4,Long
2025-09-23,90091.75,3521.25,93613.0,4,Long
2025-09-24,90091.75,3181.25,93273.0,4,Long
2025-09-25,90091.75,2625.25,92717.0,4,Long
2025-09-26,90091.75,3068.25,93160.0,4,Long
2025-09-28,90091.75,3247.25,93339.0,4,Long
2025-09-29,90091.75,3454.25,93546.0,4,Long
2025-09-30,90091.75,3479.25,93571.0,4,Long
2025-10-01,90091.75,4248.25,94340.0,4,Long
2025-10-02,90091.75,4655.25,94747.0,4,Long
2025-10-03,90091.75,4047.0,94138.75,5,Long
2025-10-05,90091.75,4473.25,94565.0,5,Long
2025-10-06,90091.75,4849.5,94941.25,5,Long
2025-10-07,90091.75,4307.0,94398.75,5,Long
2025-10-08,90091.75,6034.5,96126.25,5,Long
2025-10-09,90091.75,5814.5,95906.25,5,Long
2025-10-10,95908.75,0.0,95908.75,0,
2025-10-12,95908.75,0.0,95908.75,0,
2025-10-13,95908.75,0.0,95908.75,0,
2025-10-14,95908.75,0.0,95908.75,0,
2025-10-15,95908.75,0.0,95908.75,0,
2025-10-16,95908.75,0.0,95908.75,0,
2025-10-17,95908.75,0.0,95908.75,0,
2025-10-19,95908.75,0.0,95908.75,0,
2025-10-20,95908.75,0.0,95908.75,0,
2025-10-21,95908.75,0.0,95908.75,0,
2025-10-22,95908.75,0.0,95908.75,0,
2025-10-23,95908.75,0.0,95908.75,0,
2025-10-24,95908.75,0.0,95908.75,0,
2025-10-26,95908.75,0.0,95908.75,0,
2025-10-27,95908.75,277.75,96186.5,1,Long
2025-10-28,95908.75,467.0,96375.75,1,Long
2025-10-29,95908.75,518.75,96427.5,1,Long
2025-10-30,95908.75,453.5,96362.25,1,Long
2025-10-31,95908.75,266.75,96175.5,1,Long
2025-11-02,95908.75,363.75,96272.5,1,Long
2025-11-03,95908.75,352.0,96260.75,1,Long
2025-11-04,95908.75,-213.25,95695.5,1,Long
2025-11-05,95908.75,56.0,95964.75,1,Long
2025-11-06,95908.75,-400.25,95508.5,1,Long
2025-11-07,95908.75,-489.75,95419.0,1,Long
2025-11-09,95908.75,-381.0,95527.75,1,Long
2025-11-10,95908.75,25.75,95934.5,1,Long
2025-11-11,95908.75,-66.75,95842.0,1,Long
2025-11-12,95908.75,-176.5,95732.25,1,Long
2025-11-13,95733.0,0.0,95733.0,0,
2025-11-14,95733.0,0.0,95733.0,0,
2025-11-16,95733.0,0.0,95733.0,0,
2025-11-17,95733.0,0.0,95733.0,0,
2025-11-18,95733.0,0.0,95733.0,0,
2025-11-19,95733.0,0.0,95733.0,0,
2025-11-20,95733.0,0.0,95733.0,0,
2025-11-21,95733.0,0.0,95733.0,0,
2025-11-23,95733.0,0.0,95733.0,0,
2025-11-24,95733.0,0.0,95733.0,0,
2025-11-25,95733.0,0.0,95733.0,0,
2025-11-26,95733.0,0.0,95733.0,0,
2025-11-27,95733.0,0.0,95733.0,0,
2025-11-28,95733.0,0.0,95733.0,0,
2025-11-30,95733.0,0.0,95733.0,0,
2025-12-01,95733.0,0.0,95733.0,0,
2025-12-02,95733.0,0.0,95733.0,0,
2025-12-03,95733.0,0.0,95733.0,0,
2025-12-04,95733.0,0.0,95733.0,0,
2025-12-05,95733.0,0.0,95733.0,0,
2025-12-07,95733.0,0.0,95733.0,0,
2025-12-08,95733.0,0.0,95733.0,0,
2025-12-09,95733.0,0.0,95733.0,0,
2025-12-10,95733.0,0.0,95733.0,0,
2025-12-11,95733.0,0.0,95733.0,0,
2025-12-12,95733.0,0.0,95733.0,0,
2025-12-14,95733.0,0.0,95733.0,0,
2025-12-15,95733.0,0.0,95733.0,0,
2025-12-16,95733.0,0.0,95733.0,0,
2025-12-17,95733.0,0.0,95733.0,0,
2025-12-18,95733.0,0.0,95733.0,0,
2025-12-19,95733.0,0.0,95733.0,0,
2025-12-21,95733.0,0.0,95733.0,0,
2025-12-22,95733.0,0.0,95733.0,0,
2025-12-23,95733.0,0.0,95733.0,0,
2025-12-24,95733.0,0.0,95733.0,0,
2025-12-25,95733.0,17.25,95750.25,1,Long
2025-12-26,95733.0,-13.0,95720.0,1,Long
2025-12-28,95733.0,0.0,95733.0,1,Long
2025-12-29,95733.0,-163.0,95570.0,1,Long
2025-12-30,95733.0,-213.25,95519.75,1,Long
2025-12-31,95733.0,-435.5,95297.5,1,Long
2026-01-01,95733.0,-373.0,95360.0,1,Long
2026-01-02,95733.0,-462.0,95271.0,2,Long
2026-01-04,95733.0,-334.0,95399.0,2,Long
2026-01-05,95733.0,-117.5,95615.5,2,Long
2026-01-06,95733.0,400.5,96133.5,2,Long
2026-01-07,95733.0,397.5,96130.5,2,Long
2026-01-08,95733.0,102.0,95835.0,2,Long
2026-01-09,95733.0,613.5,96346.5,2,Long
2026-01-11,95733.0,538.5,96271.5,2,Long
2026-01-12,95733.0,542.0,96275.0,2,Long
2026-01-13,95733.0,532.5,96265.5,2,Long
2026-01-14,95733.0,-38.5,95694.5,2,Long
2026-01-15,95733.0,233.5,95966.5,2,Long
2026-01-16,95733.0,93.0,95826.0,3,Long
2026-01-18,95733.0,-551.25,95181.75,3,Long
2026-01-19,95733.0,-816.75,94916.25,3,Long
2026-01-20,94917.75,0.0,94917.75,0,
2026-01-21,94917.75,0.0,94917.75,0,
2026-01-22,94917.75,0.0,94917.75,0,
2026-01-23,94917.75,0.0,94917.75,0,
2026-01-25,94917.75,0.0,94917.75,0,
2026-01-26,94917.75,0.0,94917.75,0,
2026-01-27,94917.75,0.0,94917.75,0,
2026-01-28,94917.75,32.0,94949.75,1,Long
2026-01-29,94917.75,-166.0,94751.75,1,Long
2026-01-30,94917.75,-499.25,94418.5,1,Long
2026-02-01,94917.75,-604.5,94313.25,1,Long
2026-02-02,94917.75,-190.0,94727.75,1,Long
2026-02-03,94917.75,-710.25,94207.5,1,Long
2026-02-04,94207.0,0.0,94207.0,0,
2026-02-05,94207.0,0.0,94207.0,0,
2026-02-06,94207.0,0.0,94207.0,0,
2026-02-08,94207.0,0.0,94207.0,0,
2026-02-09,94207.0,0.0,94207.0,0,
2026-02-10,94207.0,0.0,94207.0,0,
2026-02-11,94207.0,0.0,94207.0,0,
2026-02-12,94207.0,0.0,94207.0,0,
2026-02-13,94207.0,0.0,94207.0,0,
2026-02-15,94207.0,0.0,94207.0,0,
2026-02-16,94207.0,0.0,94207.0,0,
2026-02-17,94207.0,0.0,94207.0,0,
2026-02-18,94207.0,0.0,94207.0,0,
2026-02-19,94207.0,0.0,94207.0,0,
2026-02-20,94207.0,0.0,94207.0,0,
2026-02-22,94207.0,0.0,94207.0,0,
2026-02-23,94207.0,0.0,94207.0,0,
2026-02-24,94207.0,0.0,94207.0,0,
2026-02-25,94207.0,0.0,94207.0,0,
2026-02-26,94207.0,0.0,94207.0,0,
2026-02-27,94207.0,0.0,94207.0,0,
2026-03-01,94207.0,0.0,94207.0,0,
2026-03-02,94207.0,0.0,94207.0,0,
2026-03-03,94207.0,0.0,94207.0,0,
2026-03-04,94207.0,0.0,94207.0,0,
2026-03-05,94207.0,0.0,94207.0,0,
2026-03-06,94207.0,0.0,94207.0,0,
2026-03-08,94207.0,0.0,94207.0,0,
