date,year,bump_level,max_contracts,daily_equity_delta_usd,equity_usd,drawdown_usd,open_units
2019-05-05,2019,0,10,0.0,58579.5,0.0,0
2019-05-06,2019,0,10,0.0,58579.5,0.0,0
2019-05-07,2019,0,10,0.0,58579.5,0.0,0
2019-05-08,2019,0,10,0.0,58579.5,0.0,0
2019-05-09,2019,0,10,0.0,58579.5,0.0,0
2019-05-10,2019,0,10,0.0,58579.5,0.0,0
2019-05-12,2019,0,10,0.0,58579.5,0.0,0
2019-05-13,2019,0,10,0.0,58579.5,0.0,0
2019-05-14,2019,0,10,0.0,58579.5,0.0,0
2019-05-15,2019,0,10,0.0,58579.5,0.0,0
2019-05-16,2019,0,10,0.0,58579.5,0.0,0
2019-05-17,2019,0,10,0.0,58579.5,0.0,0
2019-05-19,2019,0,10,0.0,58579.5,0.0,0
2019-05-20,2019,0,10,0.0,58579.5,0.0,0
2019-05-21,2019,0,10,0.0,58579.5,0.0,0
2019-05-22,2019,0,10,0.0,58579.5,0.0,0
2019-05-23,2019,0,10,0.0,58579.5,0.0,0
2019-05-24,2019,0,10,0.0,58579.5,0.0,0
2019-05-26,2019,0,10,0.0,58579.5,0.0,0
2019-05-27,2019,0,10,0.0,58579.5,0.0,0
2019-05-28,2019,0,10,0.0,58579.5,0.0,0
2019-05-29,2019,0,10,0.0,58579.5,0.0,0
2019-05-30,2019,0,10,0.0,58579.5,0.0,0
2019-05-31,2019,0,10,0.0,58579.5,0.0,0
2019-06-02,2019,0,10,0.0,58579.5,0.0,0
2019-06-03,2019,0,10,0.0,58579.5,0.0,0
2019-06-04,2019,0,10,0.0,58579.5,0.0,0
2019-06-05,2019,0,10,0.0,58579.5,0.0,0
2019-06-06,2019,0,10,0.0,58579.5,0.0,0
2019-06-07,2019,0,10,0.0,58579.5,0.0,0
2019-06-09,2019,0,10,-10.5,58569.0,-10.5,1
2019-06-10,2019,0,10,0.0,58569.0,-10.5,0
2019-06-11,2019,0,10,12.5,58581.5,0.0,1
2019-06-12,2019,0,10,-48.5,58533.0,-48.5,1
2019-06-13,2019,0,10,11.5,58544.5,-37.0,1
2019-06-14,2019,0,10,-23.0,58521.5,-60.0,1
2019-06-16,2019,0,10,84.0,58605.5,0.0,1
2019-06-17,2019,0,10,73.5,58679.0,0.0,1
2019-06-18,2019,0,10,244.5,58923.5,0.0,1
2019-06-19,2019,0,10,84.5,59008.0,0.0,1
2019-06-20,2019,0,10,73.0,59081.0,0.0,1
2019-06-21,2019,0,10,-79.5,59001.5,-79.5,2
2019-06-23,2019,0,10,95.0,59096.5,0.0,2
2019-06-24,2019,0,10,-45.0,59051.5,-45.0,2
2019-06-25,2019,0,10,-531.0,58520.5,-576.0,2
2019-06-26,2019,0,10,110.0,58630.5,-466.0,2
2019-06-27,2019,0,10,168.0,58798.5,-298.0,2
2019-06-28,2019,0,10,113.0,58911.5,-185.0,2
2019-06-30,2019,0,10,314.0,59225.5,0.0,2
2019-07-01,2019,0,10,-100.0,59125.5,-100.0,2
2019-07-02,2019,0,10,232.0,59357.5,0.0,2
2019-07-03,2019,0,10,218.0,59575.5,0.0,2
2019-07-04,2019,0,10,57.0,59632.5,0.0,2
2019-07-05,2019,0,10,-240.0,59392.5,-240.0,4
2019-07-07,2019,0,10,-96.0,59296.5,-336.0,4
2019-07-08,2019,0,10,-390.0,58906.5,-726.0,4
2019-07-09,2019,0,10,424.0,59330.5,-302.0,4
2019-07-10,2019,0,10,642.0,59972.5,0.0,4
2019-07-11,2019,0,10,-44.0,59928.5,-44.0,4
2019-07-12,2019,0,10,290.0,60218.5,0.0,4
2019-07-14,2019,0,10,-48.0,60170.5,-48.0,4
2019-07-15,2019,0,10,340.0,60510.5,0.0,4
2019-07-16,2019,0,10,-424.0,60086.5,-424.0,4
2019-07-17,2019,0,10,-548.0,59538.5,-972.0,4
2019-07-18,2019,0,10,582.0,60120.5,-390.0,4
2019-07-19,2019,0,10,-1182.0,58938.5,-1572.0,6
2019-07-21,2019,0,10,384.0,59322.5,-1188.0,6
2019-07-22,2019,0,10,933.0,60255.5,-255.0,6
2019-07-23,2019,0,10,297.0,60552.5,0.0,6
2019-07-24,2019,0,10,759.0,61311.5,0.0,6
2019-07-25,2019,0,10,-288.0,61023.5,-288.0,6
2019-07-26,2019,0,10,267.0,61290.5,-21.0,6
2019-07-28,2019,0,10,36.0,61326.5,0.0,6
2019-07-29,2019,0,10,-96.0,61230.5,-96.0,6
2019-07-30,2019,0,10,-246.0,60984.5,-342.0,6
2019-07-31,2019,0,10,-1824.0,59160.5,-2166.0,6
2019-08-01,2019,0,10,-621.0,58539.5,-2787.0,6
2019-08-02,2019,0,10,-930.0,57609.5,-3717.0,6
2019-08-04,2019,0,10,-27.0,57582.5,-3744.0,0
2019-08-05,2019,0,10,0.0,57582.5,-3744.0,0
2019-08-06,2019,0,10,0.0,57582.5,-3744.0,0
2019-08-07,2019,0,10,0.0,57582.5,-3744.0,0
2019-08-08,2019,0,10,0.0,57582.5,-3744.0,0
2019-08-09,2019,0,10,0.0,57582.5,-3744.0,0
2019-08-11,2019,0,10,0.0,57582.5,-3744.0,0
2019-08-12,2019,0,10,0.0,57582.5,-3744.0,0
2019-08-13,2019,0,10,0.0,57582.5,-3744.0,0
2019-08-14,2019,0,10,0.0,57582.5,-3744.0,0
2019-08-15,2019,0,10,0.0,57582.5,-3744.0,0
2019-08-16,2019,0,10,0.0,57582.5,-3744.0,0
2019-08-18,2019,0,10,0.0,57582.5,-3744.0,0
2019-08-19,2019,0,10,0.0,57582.5,-3744.0,0
2019-08-20,2019,0,10,0.0,57582.5,-3744.0,0
2019-08-21,2019,0,10,0.0,57582.5,-3744.0,0
2019-08-22,2019,0,10,0.0,57582.5,-3744.0,0
2019-08-23,2019,0,10,0.0,57582.5,-3744.0,0
2019-08-25,2019,0,10,0.0,57582.5,-3744.0,0
2019-08-26,2019,0,10,0.0,57582.5,-3744.0,0
2019-08-27,2019,0,10,0.0,57582.5,-3744.0,0
2019-08-28,2019,0,10,0.0,57582.5,-3744.0,0
2019-08-29,2019,0,10,0.0,57582.5,-3744.0,0
2019-08-30,2019,0,10,0.0,57582.5,-3744.0,0
2019-09-01,2019,0,10,0.0,57582.5,-3744.0,0
2019-09-02,2019,0,10,0.0,57582.5,-3744.0,0
2019-09-03,2019,0,10,0.0,57582.5,-3744.0,0
2019-09-04,2019,0,10,0.0,57582.5,-3744.0,0
2019-09-05,2019,0,10,0.0,57582.5,-3744.0,0
2019-09-06,2019,0,10,-16.0,57566.5,-3760.0,1
2019-09-08,2019,0,10,-15.0,57551.5,-3775.0,0
2019-09-09,2019,0,10,0.0,57551.5,-3775.0,0
2019-09-10,2019,0,10,0.0,57551.5,-3775.0,0
2019-09-11,2019,0,10,0.0,57551.5,-3775.0,0
2019-09-12,2019,0,10,-37.5,57514.0,-3812.5,1
2019-09-13,2019,0,10,-44.0,57470.0,-3856.5,1
2019-09-15,2019,0,10,-144.0,57326.0,-4000.5,1
2019-09-16,2019,0,10,0.0,57326.0,-4000.5,0
2019-09-17,2019,0,10,52.0,57378.0,-3948.5,1
2019-09-18,2019,0,10,-10.5,57367.5,-3959.0,1
2019-09-19,2019,0,10,42.0,57409.5,-3917.0,1
2019-09-20,2019,0,10,-190.5,57219.0,-4107.5,1
2019-09-22,2019,0,10,4.0,57223.0,-4103.5,0
2019-09-23,2019,0,10,18.0,57241.0,-4085.5,1
2019-09-24,2019,0,10,-265.0,56976.0,-4350.5,1
2019-09-25,2019,0,10,0.0,56976.0,-4350.5,0
2019-09-26,2019,0,10,0.0,56976.0,-4350.5,0
2019-09-27,2019,0,10,0.0,56976.0,-4350.5,0
2019-09-29,2019,0,10,0.0,56976.0,-4350.5,0
2019-09-30,2019,0,10,0.0,56976.0,-4350.5,0
2019-10-01,2019,0,10,0.0,56976.0,-4350.5,0
2019-10-02,2019,0,10,0.0,56976.0,-4350.5,0
2019-10-03,2019,0,10,0.0,56976.0,-4350.5,0
2019-10-04,2019,0,10,0.0,56976.0,-4350.5,0
2019-10-06,2019,0,10,0.0,56976.0,-4350.5,0
2019-10-07,2019,0,10,0.0,56976.0,-4350.5,0
2019-10-08,2019,0,10,0.0,56976.0,-4350.5,0
2019-10-09,2019,0,10,0.0,56976.0,-4350.5,0
2019-10-10,2019,0,10,0.0,56976.0,-4350.5,0
2019-10-11,2019,0,10,0.0,56976.0,-4350.5,0
2019-10-13,2019,0,10,0.0,56976.0,-4350.5,0
2019-10-14,2019,0,10,0.0,56976.0,-4350.5,0
2019-10-15,2019,0,10,0.0,56976.0,-4350.5,0
2019-10-16,2019,0,10,0.0,56976.0,-4350.5,0
2019-10-17,2019,0,10,0.0,56976.0,-4350.5,0
2019-10-18,2019,0,10,0.0,56976.0,-4350.5,0
2019-10-20,2019,0,10,0.0,56976.0,-4350.5,0
2019-10-21,2019,0,10,0.0,56976.0,-4350.5,0
2019-10-22,2019,0,10,0.0,56976.0,-4350.5,0
2019-10-23,2019,0,10,0.0,56976.0,-4350.5,0
2019-10-24,2019,0,10,0.0,56976.0,-4350.5,0
2019-10-25,2019,0,10,0.0,56976.0,-4350.5,0
2019-10-27,2019,0,10,18.0,56994.0,-4332.5,1
2019-10-28,2019,0,10,111.5,57105.5,-4221.0,1
2019-10-29,2019,0,10,-107.5,56998.0,-4328.5,1
2019-10-30,2019,0,10,128.5,57126.5,-4200.0,1
2019-10-31,2019,0,10,-67.5,57059.0,-4267.5,1
2019-11-01,2019,0,10,147.0,57206.0,-4120.5,1
2019-11-03,2019,0,10,27.5,57233.5,-4093.0,1
2019-11-04,2019,0,10,126.0,57359.5,-3967.0,1
2019-11-05,2019,0,10,-53.0,57306.5,-4020.0,1
2019-11-06,2019,0,10,-20.0,57286.5,-4040.0,1
2019-11-07,2019,0,10,68.0,57354.5,-3972.0,1
2019-11-08,2019,0,10,69.5,57424.0,-3902.5,2
2019-11-10,2019,0,10,-31.0,57393.0,-3933.5,2
2019-11-11,2019,0,10,-33.0,57360.0,-3966.5,2
2019-11-12,2019,0,10,82.0,57442.0,-3884.5,2
2019-11-13,2019,0,10,-1.0,57441.0,-3885.5,2
2019-11-14,2019,0,10,29.0,57470.0,-3856.5,2
2019-11-15,2019,0,10,209.0,57679.0,-3647.5,2
2019-11-17,2019,0,10,-54.0,57625.0,-3701.5,2
2019-11-18,2019,0,10,70.0,57695.0,-3631.5,2
2019-11-19,2019,0,10,-40.0,57655.0,-3671.5,2
2019-11-20,2019,0,10,-190.0,57465.0,-3861.5,2
2019-11-21,2019,0,10,-1.0,57464.0,-3862.5,2
2019-11-22,2019,0,10,111.0,57575.0,-3751.5,4
2019-11-24,2019,0,10,198.0,57773.0,-3553.5,4
2019-11-25,2019,0,10,550.0,58323.0,-3003.5,4
2019-11-26,2019,0,10,208.0,58531.0,-2795.5,4
2019-11-27,2019,0,10,192.0,58723.0,-2603.5,4
2019-11-28,2019,0,10,190.0,58913.0,-2413.5,4
2019-11-29,2019,0,10,-224.0,58689.0,-2637.5,4
2019-12-01,2019,0,10,78.0,58767.0,-2559.5,4
2019-12-02,2019,0,10,-1014.0,57753.0,-3573.5,4
2019-12-03,2019,0,10,-340.0,57413.0,-3913.5,4
2019-12-04,2019,0,10,232.0,57645.0,-3681.5,4
2019-12-05,2019,0,10,192.0,57837.0,-3489.5,4
2019-12-06,2019,0,10,711.0,58548.0,-2778.5,6
2019-12-08,2019,0,10,15.0,58563.0,-2763.5,6
2019-12-09,2019,0,10,-555.0,58008.0,-3318.5,6
2019-12-10,2019,0,10,33.0,58041.0,-3285.5,6
2019-12-11,2019,0,10,645.0,58686.0,-2640.5,6
2019-12-12,2019,0,10,1047.0,59733.0,-1593.5,6
2019-12-13,2019,0,10,243.0,59976.0,-1350.5,6
2019-12-15,2019,0,10,159.0,60135.0,-1191.5,6
2019-12-16,2019,0,10,759.0,60894.0,-432.5,6
2019-12-17,2019,0,10,54.0,60948.0,-378.5,6
2019-12-18,2019,0,10,225.0,61173.0,-153.5,6
2019-12-19,2019,0,10,696.0,61869.0,0.0,6
2019-12-20,2019,0,10,410.0,62279.0,0.0,8
2019-12-22,2019,0,10,192.0,62471.0,0.0,8
2019-12-23,2019,0,10,112.0,62583.0,0.0,8
2019-12-24,2019,0,10,12.0,62595.0,0.0,8
2019-12-25,2019,0,10,4.0,62599.0,0.0,8
2019-12-26,2019,0,10,1244.0,63843.0,0.0,8
2019-12-27,2019,0,10,-468.0,63375.0,-468.0,8
2019-12-29,2019,0,10,304.0,63679.0,-164.0,8
2019-12-30,2019,0,10,-1004.0,62675.0,-1168.0,8
2019-12-31,2019,0,10,584.0,63259.0,-584.0,8
2020-01-01,2020,0,10,72.0,63331.0,-512.0,8
2020-01-02,2020,0,10,1964.0,65295.0,0.0,8
2020-01-03,2020,0,10,-1437.0,63858.0,-1437.0,9
2020-01-05,2020,0,10,-580.5,63277.5,-2017.5,9
2020-01-06,2020,0,10,1278.0,64555.5,-739.5,9
2020-01-07,2020,0,10,-1746.0,62809.5,-2485.5,9
2020-01-08,2020,0,10,3600.0,66409.5,0.0,9
2020-01-09,2020,0,10,1143.0,67552.5,0.0,9
2020-01-10,2020,0,10,-670.5,66882.0,-670.5,9
2020-01-12,2020,0,10,166.5,67048.5,-504.0,9
2020-01-13,2020,0,10,2115.0,69163.5,0.0,9
2020-01-14,2020,0,10,-1332.0,67831.5,-1332.0,9
2020-01-15,2020,0,10,778.5,68610.0,-553.5,9
2020-01-16,2020,0,10,1287.0,69897.0,0.0,9
2020-01-17,2020,0,10,460.0,70357.0,0.0,10
2020-01-19,2020,0,10,270.0,70627.0,0.0,10
2020-01-20,2020,0,10,-295.0,70332.0,-295.0,10
2020-01-21,2020,0,10,165.0,70497.0,-130.0,10
2020-01-22,2020,0,10,85.0,70582.0,-45.0,10
2020-01-23,2020,0,10,1750.0,72332.0,0.0,10
2020-01-24,2020,0,10,-2655.0,69677.0,-2655.0,10
2020-01-26,2020,0,10,-2455.0,67222.0,-5110.0,10
2020-01-27,2020,0,10,-715.0,66507.0,-5825.0,10
2020-01-28,2020,0,10,2425.0,68932.0,-3400.0,10
2020-01-29,2020,0,10,435.0,69367.0,-2965.0,10
2020-01-30,2020,0,10,1925.0,71292.0,-1040.0,10
2020-01-31,2020,0,10,-4110.0,67182.0,-5150.0,10
2020-02-02,2020,0,10,155.0,67337.0,-4995.0,10
2020-02-03,2020,0,10,1390.0,68727.0,-3605.0,10
2020-02-04,2020,0,10,4965.0,73692.0,0.0,10
2020-02-05,2020,0,10,860.0,74552.0,0.0,10
2020-02-06,2020,0,10,1715.0,76267.0,0.0,10
2020-02-07,2020,0,10,-1335.0,74932.0,-1335.0,10
2020-02-09,2020,0,10,-875.0,74057.0,-2210.0,10
2020-02-10,2020,0,10,3380.0,77437.0,0.0,10
2020-02-11,2020,0,10,320.0,77757.0,0.0,10
2020-02-12,2020,0,10,705.0,78462.0,0.0,10
2020-02-13,2020,0,10,665.0,79127.0,0.0,10
2020-02-14,2020,0,10,420.0,79547.0,0.0,10
2020-02-16,2020,0,10,665.0,80212.0,0.0,10
2020-02-17,2020,0,10,-1225.0,78987.0,-1225.0,10
2020-02-18,2020,0,10,1230.0,80217.0,0.0,10
2020-02-19,2020,0,10,1615.0,81832.0,0.0,10
2020-02-20,2020,0,10,-3445.0,78387.0,-3445.0,10
2020-02-21,2020,0,10,-2330.0,76057.0,-5775.0,10
2020-02-23,2020,0,10,-2930.0,73127.0,-8705.0,10
2020-02-24,2020,0,10,5.0,73132.0,-8700.0,0
2020-02-25,2020,0,10,0.0,73132.0,-8700.0,0
2020-02-26,2020,0,10,0.0,73132.0,-8700.0,0
2020-02-27,2020,0,10,0.0,73132.0,-8700.0,0
2020-02-28,2020,0,10,0.0,73132.0,-8700.0,0
2020-03-01,2020,0,10,0.0,73132.0,-8700.0,0
2020-03-02,2020,0,10,0.0,73132.0,-8700.0,0
2020-03-03,2020,0,10,0.0,73132.0,-8700.0,0
2020-03-04,2020,0,10,0.0,73132.0,-8700.0,0
2020-03-05,2020,0,10,0.0,73132.0,-8700.0,0
2020-03-06,2020,0,10,0.0,73132.0,-8700.0,0
2020-03-08,2020,0,10,0.0,73132.0,-8700.0,0
2020-03-09,2020,0,10,0.0,73132.0,-8700.0,0
2020-03-10,2020,0,10,0.0,73132.0,-8700.0,0
2020-03-11,2020,0,10,0.0,73132.0,-8700.0,0
2020-03-12,2020,0,10,0.0,73132.0,-8700.0,0
2020-03-13,2020,0,10,0.0,73132.0,-8700.0,0
2020-03-15,2020,0,10,0.0,73132.0,-8700.0,0
2020-03-16,2020,0,10,0.0,73132.0,-8700.0,0
2020-03-17,2020,0,10,0.0,73132.0,-8700.0,0
2020-03-18,2020,0,10,0.0,73132.0,-8700.0,0
2020-03-19,2020,0,10,0.0,73132.0,-8700.0,0
2020-03-20,2020,0,10,0.0,73132.0,-8700.0,0
2020-03-22,2020,0,10,0.0,73132.0,-8700.0,0
2020-03-23,2020,0,10,0.0,73132.0,-8700.0,0
2020-03-24,2020,0,10,0.0,73132.0,-8700.0,0
2020-03-25,2020,0,10,0.0,73132.0,-8700.0,0
2020-03-26,2020,0,10,0.0,73132.0,-8700.0,0
2020-03-27,2020,0,10,0.0,73132.0,-8700.0,0
2020-03-29,2020,0,10,0.0,73132.0,-8700.0,0
2020-03-30,2020,0,10,0.0,73132.0,-8700.0,0
2020-03-31,2020,0,10,0.0,73132.0,-8700.0,0
2020-04-01,2020,0,10,0.0,73132.0,-8700.0,0
2020-04-02,2020,0,10,0.0,73132.0,-8700.0,0
2020-04-03,2020,0,10,0.0,73132.0,-8700.0,0
2020-04-05,2020,0,10,0.0,73132.0,-8700.0,0
2020-04-06,2020,0,10,0.0,73132.0,-8700.0,0
2020-04-07,2020,0,10,0.0,73132.0,-8700.0,0
2020-04-08,2020,0,10,0.0,73132.0,-8700.0,0
2020-04-09,2020,0,10,0.0,73132.0,-8700.0,0
2020-04-12,2020,0,10,0.0,73132.0,-8700.0,0
2020-04-13,2020,0,10,0.0,73132.0,-8700.0,0
2020-04-14,2020,0,10,0.0,73132.0,-8700.0,0
2020-04-15,2020,0,10,0.0,73132.0,-8700.0,0
2020-04-16,2020,0,10,0.0,73132.0,-8700.0,0
2020-04-17,2020,0,10,0.0,73132.0,-8700.0,0
2020-04-19,2020,0,10,0.0,73132.0,-8700.0,0
2020-04-20,2020,0,10,0.0,73132.0,-8700.0,0
2020-04-21,2020,0,10,0.0,73132.0,-8700.0,0
2020-04-22,2020,0,10,0.0,73132.0,-8700.0,0
2020-04-23,2020,0,10,0.0,73132.0,-8700.0,0
2020-04-24,2020,0,10,0.0,73132.0,-8700.0,0
2020-04-26,2020,0,10,0.0,73132.0,-8700.0,0
2020-04-27,2020,0,10,0.0,73132.0,-8700.0,0
2020-04-28,2020,0,10,0.0,73132.0,-8700.0,0
2020-04-29,2020,0,10,0.0,73132.0,-8700.0,0
2020-04-30,2020,0,10,0.0,73132.0,-8700.0,0
2020-05-01,2020,0,10,0.0,73132.0,-8700.0,0
2020-05-03,2020,0,10,0.0,73132.0,-8700.0,0
2020-05-04,2020,0,10,0.0,73132.0,-8700.0,0
2020-05-05,2020,0,10,0.0,73132.0,-8700.0,0
2020-05-06,2020,0,10,0.0,73132.0,-8700.0,0
2020-05-07,2020,0,10,0.0,73132.0,-8700.0,0
2020-05-08,2020,0,10,0.0,73132.0,-8700.0,0
2020-05-10,2020,0,10,0.0,73132.0,-8700.0,0
2020-05-11,2020,0,10,0.0,73132.0,-8700.0,0
2020-05-12,2020,0,10,0.0,73132.0,-8700.0,0
2020-05-13,2020,0,10,0.0,73132.0,-8700.0,0
2020-05-14,2020,0,10,0.0,73132.0,-8700.0,0
2020-05-15,2020,0,10,0.0,73132.0,-8700.0,0
2020-05-17,2020,0,10,0.0,73132.0,-8700.0,0
2020-05-18,2020,0,10,0.0,73132.0,-8700.0,0
2020-05-19,2020,0,10,0.0,73132.0,-8700.0,0
2020-05-20,2020,0,10,0.0,73132.0,-8700.0,0
2020-05-21,2020,0,10,0.0,73132.0,-8700.0,0
2020-05-22,2020,0,10,0.0,73132.0,-8700.0,0
2020-05-24,2020,0,10,0.0,73132.0,-8700.0,0
2020-05-25,2020,0,10,0.0,73132.0,-8700.0,0
2020-05-26,2020,0,10,0.0,73132.0,-8700.0,0
2020-05-27,2020,0,10,0.0,73132.0,-8700.0,0
2020-05-28,2020,0,10,0.0,73132.0,-8700.0,0
2020-05-29,2020,0,10,0.0,73132.0,-8700.0,0
2020-05-31,2020,0,10,0.0,73132.0,-8700.0,0
2020-06-01,2020,0,10,0.0,73132.0,-8700.0,0
2020-06-02,2020,0,10,0.0,73132.0,-8700.0,0
2020-06-03,2020,0,10,0.0,73132.0,-8700.0,0
2020-06-04,2020,0,10,0.0,73132.0,-8700.0,0
2020-06-05,2020,0,10,0.0,73132.0,-8700.0,0
2020-06-07,2020,0,10,0.0,73132.0,-8700.0,0
2020-06-08,2020,0,10,0.0,73132.0,-8700.0,0
2020-06-09,2020,0,10,0.0,73132.0,-8700.0,0
2020-06-10,2020,0,10,0.0,73132.0,-8700.0,0
2020-06-11,2020,0,10,0.0,73132.0,-8700.0,0
2020-06-12,2020,0,10,0.0,73132.0,-8700.0,0
2020-06-14,2020,0,10,0.0,73132.0,-8700.0,0
2020-06-15,2020,0,10,0.0,73132.0,-8700.0,0
2020-06-16,2020,0,10,0.0,73132.0,-8700.0,0
2020-06-17,2020,0,10,0.0,73132.0,-8700.0,0
2020-06-18,2020,0,10,0.0,73132.0,-8700.0,0
2020-06-19,2020,0,10,0.0,73132.0,-8700.0,0
2020-06-21,2020,0,10,0.0,73132.0,-8700.0,0
2020-06-22,2020,0,10,0.0,73132.0,-8700.0,0
2020-06-23,2020,0,10,0.0,73132.0,-8700.0,0
2020-06-24,2020,0,10,0.0,73132.0,-8700.0,0
2020-06-25,2020,0,10,0.0,73132.0,-8700.0,0
2020-06-26,2020,0,10,0.0,73132.0,-8700.0,0
2020-06-28,2020,0,10,0.0,73132.0,-8700.0,0
2020-06-29,2020,0,10,0.0,73132.0,-8700.0,0
2020-06-30,2020,0,10,0.0,73132.0,-8700.0,0
2020-07-01,2020,0,10,0.0,73132.0,-8700.0,0
2020-07-02,2020,0,10,0.0,73132.0,-8700.0,0
2020-07-03,2020,0,10,0.0,73132.0,-8700.0,0
2020-07-05,2020,0,10,0.0,73132.0,-8700.0,0
2020-07-06,2020,0,10,0.0,73132.0,-8700.0,0
2020-07-07,2020,0,10,0.0,73132.0,-8700.0,0
2020-07-08,2020,0,10,0.0,73132.0,-8700.0,0
2020-07-09,2020,0,10,0.0,73132.0,-8700.0,0
2020-07-10,2020,0,10,0.0,73132.0,-8700.0,0
2020-07-12,2020,0,10,0.0,73132.0,-8700.0,0
2020-07-13,2020,0,10,0.0,73132.0,-8700.0,0
2020-07-14,2020,0,10,0.0,73132.0,-8700.0,0
2020-07-15,2020,0,10,0.0,73132.0,-8700.0,0
2020-07-16,2020,0,10,0.0,73132.0,-8700.0,0
2020-07-17,2020,0,10,0.0,73132.0,-8700.0,0
2020-07-19,2020,0,10,0.0,73132.0,-8700.0,0
2020-07-20,2020,0,10,0.0,73132.0,-8700.0,0
2020-07-21,2020,0,10,0.0,73132.0,-8700.0,0
2020-07-22,2020,0,10,0.0,73132.0,-8700.0,0
2020-07-23,2020,0,10,0.0,73132.0,-8700.0,0
2020-07-24,2020,0,10,0.0,73132.0,-8700.0,0
2020-07-26,2020,0,10,0.0,73132.0,-8700.0,0
2020-07-27,2020,0,10,0.0,73132.0,-8700.0,0
2020-07-28,2020,0,10,0.0,73132.0,-8700.0,0
2020-07-29,2020,0,10,0.0,73132.0,-8700.0,0
2020-07-30,2020,0,10,0.0,73132.0,-8700.0,0
2020-07-31,2020,0,10,0.0,73132.0,-8700.0,0
2020-08-02,2020,0,10,0.0,73132.0,-8700.0,0
2020-08-03,2020,0,10,0.0,73132.0,-8700.0,0
2020-08-04,2020,0,10,0.0,73132.0,-8700.0,0
2020-08-05,2020,0,10,0.0,73132.0,-8700.0,0
2020-08-06,2020,0,10,0.0,73132.0,-8700.0,0
2020-08-07,2020,0,10,0.0,73132.0,-8700.0,0
2020-08-09,2020,0,10,0.0,73132.0,-8700.0,0
2020-08-10,2020,0,10,0.0,73132.0,-8700.0,0
2020-08-11,2020,0,10,0.0,73132.0,-8700.0,0
2020-08-12,2020,0,10,0.0,73132.0,-8700.0,0
2020-08-13,2020,0,10,0.0,73132.0,-8700.0,0
2020-08-14,2020,0,10,0.0,73132.0,-8700.0,0
2020-08-16,2020,0,10,0.0,73132.0,-8700.0,0
2020-08-17,2020,0,10,0.0,73132.0,-8700.0,0
2020-08-18,2020,0,10,0.0,73132.0,-8700.0,0
2020-08-19,2020,0,10,0.0,73132.0,-8700.0,0
2020-08-20,2020,0,10,0.0,73132.0,-8700.0,0
2020-08-21,2020,0,10,0.0,73132.0,-8700.0,0
2020-08-23,2020,0,10,0.0,73132.0,-8700.0,0
2020-08-24,2020,0,10,0.0,73132.0,-8700.0,0
2020-08-25,2020,0,10,0.0,73132.0,-8700.0,0
2020-08-26,2020,0,10,0.0,73132.0,-8700.0,0
2020-08-27,2020,0,10,0.0,73132.0,-8700.0,0
2020-08-28,2020,0,10,0.0,73132.0,-8700.0,0
2020-08-30,2020,0,10,0.0,73132.0,-8700.0,0
2020-08-31,2020,0,10,0.0,73132.0,-8700.0,0
2020-09-01,2020,0,10,0.0,73132.0,-8700.0,0
2020-09-02,2020,0,10,0.0,73132.0,-8700.0,0
2020-09-03,2020,0,10,0.0,73132.0,-8700.0,0
2020-09-04,2020,0,10,0.0,73132.0,-8700.0,0
2020-09-06,2020,0,10,0.0,73132.0,-8700.0,0
2020-09-07,2020,0,10,0.0,73132.0,-8700.0,0
2020-09-08,2020,0,10,0.0,73132.0,-8700.0,0
2020-09-09,2020,0,10,0.0,73132.0,-8700.0,0
2020-09-10,2020,0,10,0.0,73132.0,-8700.0,0
2020-09-11,2020,0,10,0.0,73132.0,-8700.0,0
2020-09-13,2020,0,10,0.0,73132.0,-8700.0,0
2020-09-14,2020,0,10,0.0,73132.0,-8700.0,0
2020-09-15,2020,0,10,0.0,73132.0,-8700.0,0
2020-09-16,2020,0,10,0.0,73132.0,-8700.0,0
2020-09-17,2020,0,10,0.0,73132.0,-8700.0,0
2020-09-18,2020,0,10,0.0,73132.0,-8700.0,0
2020-09-20,2020,0,10,0.0,73132.0,-8700.0,0
2020-09-21,2020,0,10,0.0,73132.0,-8700.0,0
2020-09-22,2020,0,10,0.0,73132.0,-8700.0,0
2020-09-23,2020,0,10,0.0,73132.0,-8700.0,0
2020-09-24,2020,0,10,0.0,73132.0,-8700.0,0
2020-09-25,2020,0,10,0.0,73132.0,-8700.0,0
2020-09-27,2020,0,10,0.0,73132.0,-8700.0,0
2020-09-28,2020,0,10,0.0,73132.0,-8700.0,0
2020-09-29,2020,0,10,0.0,73132.0,-8700.0,0
2020-09-30,2020,0,10,0.0,73132.0,-8700.0,0
2020-10-01,2020,0,10,0.0,73132.0,-8700.0,0
2020-10-02,2020,0,10,0.0,73132.0,-8700.0,0
2020-10-04,2020,0,10,0.0,73132.0,-8700.0,0
2020-10-05,2020,0,10,0.0,73132.0,-8700.0,0
2020-10-06,2020,0,10,0.0,73132.0,-8700.0,0
2020-10-07,2020,0,10,0.0,73132.0,-8700.0,0
2020-10-08,2020,0,10,0.0,73132.0,-8700.0,0
2020-10-09,2020,0,10,0.0,73132.0,-8700.0,0
2020-10-11,2020,0,10,0.0,73132.0,-8700.0,0
2020-10-12,2020,0,10,731.5,73863.5,-7968.5,1
2020-10-13,2020,0,10,11.0,73874.5,-7957.5,1
2020-10-14,2020,0,10,-307.5,73567.0,-8265.0,1
2020-10-15,2020,0,10,-91.0,73476.0,-8356.0,1
2020-10-16,2020,0,10,-244.5,73231.5,-8600.5,1
2020-10-18,2020,0,10,159.5,73391.0,-8441.0,1
2020-10-19,2020,0,10,-316.0,73075.0,-8757.0,1
2020-10-20,2020,0,10,0.5,73075.5,-8756.5,0
2020-10-21,2020,0,10,0.0,73075.5,-8756.5,0
2020-10-22,2020,0,10,0.0,73075.5,-8756.5,0
2020-10-23,2020,0,10,0.0,73075.5,-8756.5,0
2020-10-25,2020,0,10,0.0,73075.5,-8756.5,0
2020-10-26,2020,0,10,0.0,73075.5,-8756.5,0
2020-10-27,2020,0,10,0.0,73075.5,-8756.5,0
2020-10-28,2020,0,10,0.0,73075.5,-8756.5,0
2020-10-29,2020,0,10,0.0,73075.5,-8756.5,0
2020-10-30,2020,0,10,0.0,73075.5,-8756.5,0
2020-11-01,2020,0,10,0.0,73075.5,-8756.5,0
2020-11-02,2020,0,10,0.0,73075.5,-8756.5,0
2020-11-03,2020,0,10,0.0,73075.5,-8756.5,0
2020-11-04,2020,0,10,0.0,73075.5,-8756.5,0
2020-11-05,2020,0,10,544.5,73620.0,-8212.0,1
2020-11-06,2020,0,10,56.0,73676.0,-8156.0,1
2020-11-08,2020,0,10,275.5,73951.5,-7880.5,1
2020-11-09,2020,0,10,-756.5,73195.0,-8637.0,1
2020-11-10,2020,0,10,-513.5,72681.5,-9150.5,1
2020-11-11,2020,0,10,-1.0,72680.5,-9151.5,0
2020-11-12,2020,0,10,-88.5,72592.0,-9240.0,1
2020-11-13,2020,0,10,189.5,72781.5,-9050.5,1
2020-11-15,2020,0,10,198.5,72980.0,-8852.0,1
2020-11-16,2020,0,10,6.5,72986.5,-8845.5,1
2020-11-17,2020,0,10,-139.0,72847.5,-8984.5,1
2020-11-18,2020,0,10,-197.5,72650.0,-9182.0,1
2020-11-19,2020,0,10,114.0,72764.0,-9068.0,1
2020-11-20,2020,0,10,-125.5,72638.5,-9193.5,2
2020-11-22,2020,0,10,81.0,72719.5,-9112.5,2
2020-11-23,2020,0,10,82.0,72801.5,-9030.5,2
2020-11-24,2020,0,10,697.0,73498.5,-8333.5,2
2020-11-25,2020,0,10,214.0,73712.5,-8119.5,2
2020-11-26,2020,0,10,-100.0,73612.5,-8219.5,2
2020-11-27,2020,0,10,476.0,74088.5,-7743.5,2
2020-11-29,2020,0,10,173.0,74261.5,-7570.5,2
2020-11-30,2020,0,10,128.0,74389.5,-7442.5,2
2020-12-01,2020,0,10,408.0,74797.5,-7034.5,2
2020-12-02,2020,0,10,61.0,74858.5,-6973.5,2
2020-12-03,2020,0,10,76.0,74934.5,-6897.5,2
2020-12-04,2020,0,10,104.0,75038.5,-6793.5,4
2020-12-06,2020,0,10,276.0,75314.5,-6517.5,4
2020-12-07,2020,0,10,244.0,75558.5,-6273.5,4
2020-12-08,2020,0,10,576.0,76134.5,-5697.5,4
2020-12-09,2020,0,10,-2272.0,73862.5,-7969.5,4
2020-12-10,2020,0,10,320.0,74182.5,-7649.5,4
2020-12-11,2020,0,10,-294.0,73888.5,-7943.5,4
2020-12-13,2020,0,10,400.0,74288.5,-7543.5,4
2020-12-14,2020,0,10,504.0,74792.5,-7039.5,4
2020-12-15,2020,0,10,924.0,75716.5,-6115.5,4
2020-12-16,2020,0,10,702.0,76418.5,-5413.5,4
2020-12-17,2020,0,10,538.0,76956.5,-4875.5,4
2020-12-18,2020,0,10,426.0,77382.5,-4449.5,6
2020-12-20,2020,0,10,9.0,77391.5,-4440.5,6
2020-12-21,2020,0,10,-573.0,76818.5,-5013.5,6
2020-12-22,2020,0,10,228.0,77046.5,-4785.5,6
2020-12-23,2020,0,10,-786.0,76260.5,-5571.5,6
2020-12-24,2020,0,10,591.0,76851.5,-4980.5,6
2020-12-27,2020,0,10,363.0,77214.5,-4617.5,6
2020-12-28,2020,0,10,1410.0,78624.5,-3207.5,6
2020-12-29,2020,0,10,-87.0,78537.5,-3294.5,6
2020-12-30,2020,0,10,48.0,78585.5,-3246.5,6
2020-12-31,2020,0,10,429.0,79014.5,-2817.5,6
2021-01-03,2021,0,10,-246.0,78768.5,-3063.5,6
2021-01-04,2021,0,10,-2268.0,76500.5,-5331.5,6
2021-01-05,2021,0,10,1440.0,77940.5,-3891.5,6
2021-01-06,2021,0,10,-1464.0,76476.5,-5355.5,6
2021-01-07,2021,0,10,3186.0,79662.5,-2169.5,6
2021-01-08,2021,0,10,2235.0,81897.5,0.0,6
2021-01-10,2021,0,10,-504.0,81393.5,-504.0,6
2021-01-11,2021,0,10,-1926.0,79467.5,-2430.0,6
2021-01-12,2021,0,10,-303.0,79164.5,-2733.0,6
2021-01-13,2021,0,10,879.0,80043.5,-1854.0,6
2021-01-14,2021,0,10,-636.0,79407.5,-2490.0,6
2021-01-15,2021,0,10,-2025.0,77382.5,-4515.0,8
2021-01-17,2021,0,10,-284.0,77098.5,-4799.0,8
2021-01-18,2021,0,10,1368.0,78466.5,-3431.0,8
2021-01-19,2021,0,10,3492.0,81958.5,0.0,8
2021-01-20,2021,0,10,4236.0,86194.5,0.0,8
2021-01-21,2021,0,10,1108.0,87302.5,0.0,8
2021-01-22,2021,0,10,-512.0,86790.5,-512.0,8
2021-01-24,2021,0,10,740.0,87530.5,0.0,8
2021-01-25,2021,0,10,1024.0,88554.5,0.0,8
2021-01-26,2021,0,10,1556.0,90110.5,0.0,8
2021-01-27,2021,0,10,-9300.0,80810.5,-9300.0,8
2021-01-28,2021,0,10,2540.0,83350.5,-6760.0,8
2021-01-29,2021,0,10,-4256.0,79094.5,-11016.0,8
2021-01-31,2021,0,10,-344.0,78750.5,-11360.0,0
2021-02-01,2021,0,10,0.0,78750.5,-11360.0,0
2021-02-02,2021,0,10,0.0,78750.5,-11360.0,0
2021-02-03,2021,0,10,0.0,78750.5,-11360.0,0
2021-02-04,2021,0,10,0.0,78750.5,-11360.0,0
2021-02-05,2021,0,10,101.5,78852.0,-11258.5,1
2021-02-07,2021,0,10,70.0,78922.0,-11188.5,1
2021-02-08,2021,0,10,85.5,79007.5,-11103.0,1
2021-02-09,2021,0,10,12.0,79019.5,-11091.0,1
2021-02-10,2021,0,10,-67.5,78952.0,-11158.5,1
2021-02-11,2021,0,10,154.5,79106.5,-11004.0,1
2021-02-12,2021,0,10,181.5,79288.0,-10822.5,1
2021-02-14,2021,0,10,8.0,79296.0,-10814.5,1
2021-02-15,2021,0,10,64.5,79360.5,-10750.0,1
2021-02-16,2021,0,10,-253.0,79107.5,-11003.0,1
2021-02-17,2021,0,10,-57.0,79050.5,-11060.0,1
2021-02-18,2021,0,10,-175.0,78875.5,-11235.0,1
2021-02-19,2021,0,10,-122.0,78753.5,-11357.0,2
2021-02-21,2021,0,10,80.0,78833.5,-11277.0,2
2021-02-22,2021,0,10,-1454.0,77379.5,-12731.0,2
2021-02-23,2021,0,10,0.0,77379.5,-12731.0,0
2021-02-24,2021,0,10,0.0,77379.5,-12731.0,0
2021-02-25,2021,0,10,0.0,77379.5,-12731.0,0
2021-02-26,2021,0,10,0.0,77379.5,-12731.0,0
2021-02-28,2021,0,10,0.0,77379.5,-12731.0,0
2021-03-01,2021,0,10,0.0,77379.5,-12731.0,0
2021-03-02,2021,0,10,0.0,77379.5,-12731.0,0
2021-03-03,2021,0,10,0.0,77379.5,-12731.0,0
2021-03-04,2021,0,10,0.0,77379.5,-12731.0,0
2021-03-05,2021,0,10,0.0,77379.5,-12731.0,0
2021-03-07,2021,0,10,0.0,77379.5,-12731.0,0
2021-03-08,2021,0,10,0.0,77379.5,-12731.0,0
2021-03-09,2021,0,10,0.0,77379.5,-12731.0,0
2021-03-10,2021,0,10,0.0,77379.5,-12731.0,0
2021-03-11,2021,0,10,0.0,77379.5,-12731.0,0
2021-03-12,2021,0,10,0.0,77379.5,-12731.0,0
2021-03-14,2021,0,10,0.0,77379.5,-12731.0,0
2021-03-15,2021,0,10,0.0,77379.5,-12731.0,0
2021-03-16,2021,0,10,0.0,77379.5,-12731.0,0
2021-03-17,2021,0,10,0.0,77379.5,-12731.0,0
2021-03-18,2021,0,10,0.0,77379.5,-12731.0,0
2021-03-19,2021,0,10,0.0,77379.5,-12731.0,0
2021-03-21,2021,0,10,0.0,77379.5,-12731.0,0
2021-03-22,2021,0,10,0.0,77379.5,-12731.0,0
2021-03-23,2021,0,10,0.0,77379.5,-12731.0,0
2021-03-24,2021,0,10,0.0,77379.5,-12731.0,0
2021-03-25,2021,0,10,0.0,77379.5,-12731.0,0
2021-03-26,2021,0,10,0.0,77379.5,-12731.0,0
2021-03-28,2021,0,10,0.0,77379.5,-12731.0,0
2021-03-29,2021,0,10,0.0,77379.5,-12731.0,0
2021-03-30,2021,0,10,0.0,77379.5,-12731.0,0
2021-03-31,2021,0,10,0.0,77379.5,-12731.0,0
2021-04-01,2021,0,10,0.0,77379.5,-12731.0,0
2021-04-02,2021,0,10,0.0,77379.5,-12731.0,0
2021-04-04,2021,0,10,0.0,77379.5,-12731.0,0
2021-04-05,2021,0,10,0.0,77379.5,-12731.0,0
2021-04-06,2021,0,10,-43.0,77336.5,-12774.0,1
2021-04-07,2021,0,10,-1.0,77335.5,-12775.0,0
2021-04-08,2021,0,10,327.0,77662.5,-12448.0,1
2021-04-09,2021,0,10,13.5,77676.0,-12434.5,1
2021-04-11,2021,0,10,-60.0,77616.0,-12494.5,1
2021-04-12,2021,0,10,77.0,77693.0,-12417.5,1
2021-04-13,2021,0,10,299.0,77992.0,-12118.5,1
2021-04-14,2021,0,10,-310.5,77681.5,-12429.0,1
2021-04-15,2021,0,10,397.5,78079.0,-12031.5,1
2021-04-16,2021,0,10,16.0,78095.0,-12015.5,2
2021-04-18,2021,0,10,-125.0,77970.0,-12140.5,2
2021-04-19,2021,0,10,-295.0,77675.0,-12435.5,2
2021-04-20,2021,0,10,-685.0,76990.0,-13120.5,2
2021-04-21,2021,0,10,549.0,77539.0,-12571.5,2
2021-04-22,2021,0,10,-495.0,77044.0,-13066.5,2
2021-04-23,2021,0,10,584.0,77628.0,-12482.5,2
2021-04-25,2021,0,10,19.0,77647.0,-12463.5,2
2021-04-26,2021,0,10,469.0,78116.0,-11994.5,2
2021-04-27,2021,0,10,-258.0,77858.0,-12252.5,2
2021-04-28,2021,0,10,36.0,77894.0,-12216.5,2
2021-04-29,2021,0,10,-225.0,77669.0,-12441.5,2
2021-04-30,2021,0,10,-166.0,77503.0,-12607.5,4
2021-05-02,2021,0,10,114.0,77617.0,-12493.5,4
2021-05-03,2021,0,10,-886.0,76731.0,-13379.5,4
2021-05-04,2021,0,10,-1956.0,74775.0,-15335.5,4
2021-05-05,2021,0,10,0.0,74775.0,-15335.5,0
2021-05-06,2021,0,10,0.0,74775.0,-15335.5,0
2021-05-07,2021,0,10,0.0,74775.0,-15335.5,0
2021-05-09,2021,0,10,41.0,74816.0,-15294.5,1
2021-05-10,2021,0,10,-808.5,74007.5,-16103.0,1
2021-05-11,2021,0,10,-1.5,74006.0,-16104.5,0
2021-05-12,2021,0,10,0.0,74006.0,-16104.5,0
2021-05-13,2021,0,10,0.0,74006.0,-16104.5,0
2021-05-14,2021,0,10,0.0,74006.0,-16104.5,0
2021-05-16,2021,0,10,0.0,74006.0,-16104.5,0
2021-05-17,2021,0,10,0.0,74006.0,-16104.5,0
2021-05-18,2021,0,10,0.0,74006.0,-16104.5,0
2021-05-19,2021,0,10,0.0,74006.0,-16104.5,0
2021-05-20,2021,0,10,0.0,74006.0,-16104.5,0
2021-05-21,2021,0,10,0.0,74006.0,-16104.5,0
2021-05-23,2021,0,10,0.0,74006.0,-16104.5,0
2021-05-24,2021,0,10,0.0,74006.0,-16104.5,0
2021-05-25,2021,0,10,0.0,74006.0,-16104.5,0
2021-05-26,2021,0,10,0.0,74006.0,-16104.5,0
2021-05-27,2021,0,10,0.0,74006.0,-16104.5,0
2021-05-28,2021,0,10,0.0,74006.0,-16104.5,0
2021-05-30,2021,0,10,0.0,74006.0,-16104.5,0
2021-05-31,2021,0,10,0.0,74006.0,-16104.5,0
2021-06-01,2021,0,10,0.0,74006.0,-16104.5,0
2021-06-02,2021,0,10,0.0,74006.0,-16104.5,0
2021-06-03,2021,0,10,0.0,74006.0,-16104.5,0
2021-06-04,2021,0,10,0.0,74006.0,-16104.5,0
2021-06-06,2021,0,10,-9.0,73997.0,-16113.5,1
2021-06-07,2021,0,10,-0.5,73996.5,-16114.0,0
2021-06-08,2021,0,10,-11.0,73985.5,-16125.0,1
2021-06-09,2021,0,10,-4.0,73981.5,-16129.0,1
2021-06-10,2021,0,10,305.5,74287.0,-15823.5,1
2021-06-11,2021,0,10,34.0,74321.0,-15789.5,1
2021-06-13,2021,0,10,49.5,74370.5,-15740.0,1
2021-06-14,2021,0,10,193.5,74564.0,-15546.5,1
2021-06-15,2021,0,10,-150.0,74414.0,-15696.5,1
2021-06-16,2021,0,10,-289.5,74124.5,-15986.0,1
2021-06-17,2021,0,10,578.0,74702.5,-15408.0,1
2021-06-18,2021,0,10,-404.0,74298.5,-15812.0,2
2021-06-20,2021,0,10,81.0,74379.5,-15731.0,2
2021-06-21,2021,0,10,387.0,74766.5,-15344.0,2
2021-06-22,2021,0,10,550.0,75316.5,-14794.0,2
2021-06-23,2021,0,10,55.0,75371.5,-14739.0,2
2021-06-24,2021,0,10,241.0,75612.5,-14498.0,2
2021-06-25,2021,0,10,-61.0,75551.5,-14559.0,2
2021-06-27,2021,0,10,94.0,75645.5,-14465.0,2
2021-06-28,2021,0,10,548.0,76193.5,-13917.0,2
2021-06-29,2021,0,10,384.0,76577.5,-13533.0,2
2021-06-30,2021,0,10,-109.0,76468.5,-13642.0,2
2021-07-01,2021,0,10,-110.0,76358.5,-13752.0,2
2021-07-02,2021,0,10,610.0,76968.5,-13142.0,4
2021-07-04,2021,0,10,112.0,77080.5,-13030.0,4
2021-07-05,2021,0,10,-2.0,77078.5,-13032.0,4
2021-07-06,2021,0,10,404.0,77482.5,-12628.0,4
2021-07-07,2021,0,10,364.0,77846.5,-12264.0,4
2021-07-08,2021,0,10,-946.0,76900.5,-13210.0,4
2021-07-09,2021,0,10,980.0,77880.5,-12230.0,4
2021-07-11,2021,0,10,120.0,78000.5,-12110.0,4
2021-07-12,2021,0,10,402.0,78402.5,-11708.0,4
2021-07-13,2021,0,10,-278.0,78124.5,-11986.0,4
2021-07-14,2021,0,10,474.0,78598.5,-11512.0,4
2021-07-15,2021,0,10,-1178.0,77420.5,-12690.0,4
2021-07-16,2021,0,10,-655.0,76765.5,-13345.0,6
2021-07-18,2021,0,10,-330.0,76435.5,-13675.0,6
2021-07-19,2021,0,10,-639.0,75796.5,-14314.0,6
2021-07-20,2021,0,10,1842.0,77638.5,-12472.0,6
2021-07-21,2021,0,10,1110.0,78748.5,-11362.0,6
2021-07-22,2021,0,10,1623.0,80371.5,-9739.0,6
2021-07-23,2021,0,10,1461.0,81832.5,-8278.0,6
2021-07-25,2021,0,10,342.0,82174.5,-7936.0,6
2021-07-26,2021,0,10,-114.0,82060.5,-8050.0,6
2021-07-27,2021,0,10,-2295.0,79765.5,-10345.0,6
2021-07-28,2021,0,10,816.0,80581.5,-9529.0,6
2021-07-29,2021,0,10,-1419.0,79162.5,-10948.0,6
2021-07-30,2021,0,10,1253.0,80415.5,-9695.0,8
2021-08-01,2021,0,10,552.0,80967.5,-9143.0,8
2021-08-02,2021,0,10,-648.0,80319.5,-9791.0,8
2021-08-03,2021,0,10,1116.0,81435.5,-8675.0,8
2021-08-04,2021,0,10,844.0,82279.5,-7831.0,8
2021-08-05,2021,0,10,1228.0,83507.5,-6603.0,8
2021-08-06,2021,0,10,-1084.0,82423.5,-7687.0,8
2021-08-08,2021,0,10,-1132.0,81291.5,-8819.0,8
2021-08-09,2021,0,10,1548.0,82839.5,-7271.0,8
2021-08-10,2021,0,10,-1332.0,81507.5,-8603.0,8
2021-08-11,2021,0,10,-636.0,80871.5,-9239.0,8
2021-08-12,2021,0,10,1152.0,82023.5,-8087.0,8
2021-08-13,2021,0,10,912.0,82935.5,-7175.0,9
2021-08-15,2021,0,10,-175.5,82760.0,-7350.5,9
2021-08-16,2021,0,10,297.0,83057.0,-7053.5,9
2021-08-17,2021,0,10,-3123.0,79934.0,-10176.5,9
2021-08-18,2021,0,10,-2007.0,77927.0,-12183.5,9
2021-08-19,2021,0,10,1282.5,79209.5,-10901.0,9
2021-08-20,2021,0,10,3208.5,82418.0,-7692.5,9
2021-08-22,2021,0,10,220.5,82638.5,-7472.0,9
2021-08-23,2021,0,10,4000.5,86639.0,-3471.5,9
2021-08-24,2021,0,10,508.5,87147.5,-2963.0,9
2021-08-25,2021,0,10,72.0,87219.5,-2891.0,9
2021-08-26,2021,0,10,-1503.0,85716.5,-4394.0,9
2021-08-27,2021,0,10,2686.0,88402.5,-1708.0,10
2021-08-29,2021,0,10,490.0,88892.5,-1218.0,10
2021-08-30,2021,0,10,2915.0,91807.5,0.0,10
2021-08-31,2021,0,10,-25.0,91782.5,-25.0,10
2021-09-01,2021,0,10,430.0,92212.5,0.0,10
2021-09-02,2021,0,10,-430.0,91782.5,-430.0,10
2021-09-03,2021,0,10,1130.0,92912.5,0.0,10
2021-09-05,2021,0,10,-65.0,92847.5,-65.0,10
2021-09-06,2021,0,10,780.0,93627.5,0.0,10
2021-09-07,2021,0,10,-545.0,93082.5,-545.0,10
2021-09-08,2021,0,10,-1240.0,91842.5,-1785.0,10
2021-09-09,2021,0,10,-720.0,91122.5,-2505.0,10
2021-09-10,2021,0,10,-2525.0,88597.5,-5030.0,10
2021-09-12,2021,0,10,935.0,89532.5,-4095.0,10
2021-09-13,2021,0,10,-785.0,88747.5,-4880.0,10
2021-09-14,2021,0,10,-765.0,87982.5,-5645.0,10
2021-09-15,2021,0,10,1895.0,89877.5,-3750.0,10
2021-09-16,2021,0,10,-405.0,89472.5,-4155.0,10
2021-09-17,2021,0,10,-3930.0,85542.5,-8085.0,10
2021-09-19,2021,0,10,0.0,85542.5,-8085.0,0
2021-09-20,2021,0,10,0.0,85542.5,-8085.0,0
2021-09-21,2021,0,10,0.0,85542.5,-8085.0,0
2021-09-22,2021,0,10,0.0,85542.5,-8085.0,0
2021-09-23,2021,0,10,0.0,85542.5,-8085.0,0
2021-09-24,2021,0,10,0.0,85542.5,-8085.0,0
2021-09-26,2021,0,10,0.0,85542.5,-8085.0,0
2021-09-27,2021,0,10,0.0,85542.5,-8085.0,0
2021-09-28,2021,0,10,0.0,85542.5,-8085.0,0
2021-09-29,2021,0,10,0.0,85542.5,-8085.0,0
2021-09-30,2021,0,10,0.0,85542.5,-8085.0,0
2021-10-01,2021,0,10,0.0,85542.5,-8085.0,0
2021-10-03,2021,0,10,0.0,85542.5,-8085.0,0
2021-10-04,2021,0,10,0.0,85542.5,-8085.0,0
2021-10-05,2021,0,10,0.0,85542.5,-8085.0,0
2021-10-06,2021,0,10,0.0,85542.5,-8085.0,0
2021-10-07,2021,0,10,0.0,85542.5,-8085.0,0
2021-10-08,2021,0,10,0.0,85542.5,-8085.0,0
2021-10-10,2021,0,10,0.0,85542.5,-8085.0,0
2021-10-11,2021,0,10,0.0,85542.5,-8085.0,0
2021-10-12,2021,0,10,0.0,85542.5,-8085.0,0
2021-10-13,2021,0,10,0.0,85542.5,-8085.0,0
2021-10-14,2021,0,10,0.0,85542.5,-8085.0,0
2021-10-15,2021,0,10,0.0,85542.5,-8085.0,0
2021-10-17,2021,0,10,0.0,85542.5,-8085.0,0
2021-10-18,2021,0,10,0.0,85542.5,-8085.0,0
2021-10-19,2021,0,10,234.0,85776.5,-7851.0,1
2021-10-20,2021,0,10,-148.0,85628.5,-7999.0,1
2021-10-21,2021,0,10,113.0,85741.5,-7886.0,1
2021-10-22,2021,0,10,-135.5,85606.0,-8021.5,1
2021-10-24,2021,0,10,-35.5,85570.5,-8057.0,1
2021-10-25,2021,0,10,465.5,86036.0,-7591.5,1
2021-10-26,2021,0,10,42.0,86078.0,-7549.5,1
2021-10-27,2021,0,10,132.5,86210.5,-7417.0,1
2021-10-28,2021,0,10,92.0,86302.5,-7325.0,1
2021-10-29,2021,0,10,529.0,86831.5,-6796.0,2
2021-10-31,2021,0,10,46.0,86877.5,-6750.0,2
2021-11-01,2021,0,10,-17.0,86860.5,-6767.0,2
2021-11-02,2021,0,10,266.0,87126.5,-6501.0,2
2021-11-03,2021,0,10,973.0,88099.5,-5528.0,2
2021-11-04,2021,0,10,617.0,88716.5,-4911.0,2
2021-11-05,2021,0,10,12.0,88728.5,-4899.0,2
2021-11-07,2021,0,10,-124.0,88604.5,-5023.0,2
2021-11-08,2021,0,10,-6.0,88598.5,-5029.0,2
2021-11-09,2021,0,10,-500.0,88098.5,-5529.0,2
2021-11-10,2021,0,10,-781.0,87317.5,-6310.0,2
2021-11-11,2021,0,10,296.0,87613.5,-6014.0,2
2021-11-12,2021,0,10,631.0,88244.5,-5383.0,4
2021-11-14,2021,0,10,196.0,88440.5,-5187.0,4
2021-11-15,2021,0,10,-292.0,88148.5,-5479.0,4
2021-11-16,2021,0,10,924.0,89072.5,-4555.0,4
2021-11-17,2021,0,10,194.0,89266.5,-4361.0,4
2021-11-18,2021,0,10,1332.0,90598.5,-3029.0,4
2021-11-19,2021,0,10,738.0,91336.5,-2291.0,4
2021-11-21,2021,0,10,4.0,91340.5,-2287.0,4
2021-11-22,2021,0,10,-1536.0,89804.5,-3823.0,4
2021-11-23,2021,0,10,-882.0,88922.5,-4705.0,4
2021-11-24,2021,0,10,570.0,89492.5,-4135.0,4
2021-11-25,2021,0,10,106.0,89598.5,-4029.0,4
2021-11-26,2021,0,10,-2610.0,86988.5,-6639.0,4
2021-11-28,2021,0,10,12.0,87000.5,-6627.0,0
2021-11-29,2021,0,10,0.0,87000.5,-6627.0,0
2021-11-30,2021,0,10,0.0,87000.5,-6627.0,0
2021-12-01,2021,0,10,0.0,87000.5,-6627.0,0
2021-12-02,2021,0,10,0.0,87000.5,-6627.0,0
2021-12-03,2021,0,10,0.0,87000.5,-6627.0,0
2021-12-05,2021,0,10,0.0,87000.5,-6627.0,0
2021-12-06,2021,0,10,0.0,87000.5,-6627.0,0
2021-12-07,2021,0,10,0.0,87000.5,-6627.0,0
2021-12-08,2021,0,10,0.0,87000.5,-6627.0,0
2021-12-09,2021,0,10,0.0,87000.5,-6627.0,0
2021-12-10,2021,0,10,0.0,87000.5,-6627.0,0
2021-12-12,2021,0,10,0.0,87000.5,-6627.0,0
2021-12-13,2021,0,10,0.0,87000.5,-6627.0,0
2021-12-14,2021,0,10,0.0,87000.5,-6627.0,0
2021-12-15,2021,0,10,0.0,87000.5,-6627.0,0
2021-12-16,2021,0,10,0.0,87000.5,-6627.0,0
2021-12-17,2021,0,10,0.0,87000.5,-6627.0,0
2021-12-19,2021,0,10,0.0,87000.5,-6627.0,0
2021-12-20,2021,0,10,0.0,87000.5,-6627.0,0
2021-12-21,2021,0,10,0.0,87000.5,-6627.0,0
2021-12-22,2021,0,10,0.0,87000.5,-6627.0,0
2021-12-23,2021,0,10,0.0,87000.5,-6627.0,0
2021-12-26,2021,0,10,0.0,87000.5,-6627.0,0
2021-12-27,2021,0,10,0.0,87000.5,-6627.0,0
2021-12-28,2021,0,10,-31.5,86969.0,-6658.5,1
2021-12-29,2021,0,10,-1.0,86968.0,-6659.5,0
2021-12-30,2021,0,10,0.0,86968.0,-6659.5,0
2021-12-31,2021,0,10,0.0,86968.0,-6659.5,0
2022-01-02,2022,0,10,0.0,86968.0,-6659.5,0
2022-01-03,2022,0,10,0.0,86968.0,-6659.5,0
2022-01-04,2022,0,10,0.0,86968.0,-6659.5,0
2022-01-05,2022,0,10,0.0,86968.0,-6659.5,0
2022-01-06,2022,0,10,0.0,86968.0,-6659.5,0
2022-01-07,2022,0,10,0.0,86968.0,-6659.5,0
2022-01-09,2022,0,10,0.0,86968.0,-6659.5,0
2022-01-10,2022,0,10,0.0,86968.0,-6659.5,0
2022-01-11,2022,0,10,0.0,86968.0,-6659.5,0
2022-01-12,2022,0,10,0.0,86968.0,-6659.5,0
2022-01-13,2022,0,10,0.0,86968.0,-6659.5,0
2022-01-14,2022,0,10,0.0,86968.0,-6659.5,0
2022-01-16,2022,0,10,0.0,86968.0,-6659.5,0
2022-01-17,2022,0,10,0.0,86968.0,-6659.5,0
2022-01-18,2022,0,10,0.0,86968.0,-6659.5,0
2022-01-19,2022,0,10,0.0,86968.0,-6659.5,0
2022-01-20,2022,0,10,0.0,86968.0,-6659.5,0
2022-01-21,2022,0,10,0.0,86968.0,-6659.5,0
2022-01-23,2022,0,10,0.0,86968.0,-6659.5,0
2022-01-24,2022,0,10,0.0,86968.0,-6659.5,0
2022-01-25,2022,0,10,0.0,86968.0,-6659.5,0
2022-01-26,2022,0,10,0.0,86968.0,-6659.5,0
2022-01-27,2022,0,10,0.0,86968.0,-6659.5,0
2022-01-28,2022,0,10,0.0,86968.0,-6659.5,0
2022-01-30,2022,0,10,0.0,86968.0,-6659.5,0
2022-01-31,2022,0,10,0.0,86968.0,-6659.5,0
2022-02-01,2022,0,10,0.0,86968.0,-6659.5,0
2022-02-02,2022,0,10,0.0,86968.0,-6659.5,0
2022-02-03,2022,0,10,0.0,86968.0,-6659.5,0
2022-02-04,2022,0,10,0.0,86968.0,-6659.5,0
2022-02-06,2022,0,10,0.0,86968.0,-6659.5,0
2022-02-07,2022,0,10,0.0,86968.0,-6659.5,0
2022-02-08,2022,0,10,0.0,86968.0,-6659.5,0
2022-02-09,2022,0,10,0.0,86968.0,-6659.5,0
2022-02-10,2022,0,10,0.0,86968.0,-6659.5,0
2022-02-11,2022,0,10,0.0,86968.0,-6659.5,0
2022-02-13,2022,0,10,0.0,86968.0,-6659.5,0
2022-02-14,2022,0,10,0.0,86968.0,-6659.5,0
2022-02-15,2022,0,10,0.0,86968.0,-6659.5,0
2022-02-16,2022,0,10,0.0,86968.0,-6659.5,0
2022-02-17,2022,0,10,0.0,86968.0,-6659.5,0
2022-02-18,2022,0,10,0.0,86968.0,-6659.5,0
2022-02-20,2022,0,10,0.0,86968.0,-6659.5,0
2022-02-21,2022,0,10,0.0,86968.0,-6659.5,0
2022-02-22,2022,0,10,0.0,86968.0,-6659.5,0
2022-02-23,2022,0,10,0.0,86968.0,-6659.5,0
2022-02-24,2022,0,10,0.0,86968.0,-6659.5,0
2022-02-25,2022,0,10,0.0,86968.0,-6659.5,0
2022-02-27,2022,0,10,0.0,86968.0,-6659.5,0
2022-02-28,2022,0,10,0.0,86968.0,-6659.5,0
2022-03-01,2022,0,10,0.0,86968.0,-6659.5,0
2022-03-02,2022,0,10,0.0,86968.0,-6659.5,0
2022-03-03,2022,0,10,0.0,86968.0,-6659.5,0
2022-03-04,2022,0,10,0.0,86968.0,-6659.5,0
2022-03-06,2022,0,10,0.0,86968.0,-6659.5,0
2022-03-07,2022,0,10,0.0,86968.0,-6659.5,0
2022-03-08,2022,0,10,0.0,86968.0,-6659.5,0
2022-03-09,2022,0,10,0.0,86968.0,-6659.5,0
2022-03-10,2022,0,10,0.0,86968.0,-6659.5,0
2022-03-11,2022,0,10,0.0,86968.0,-6659.5,0
2022-03-13,2022,0,10,0.0,86968.0,-6659.5,0
2022-03-14,2022,0,10,0.0,86968.0,-6659.5,0
2022-03-15,2022,0,10,0.0,86968.0,-6659.5,0
2022-03-16,2022,0,10,0.0,86968.0,-6659.5,0
2022-03-17,2022,0,10,0.0,86968.0,-6659.5,0
2022-03-18,2022,0,10,0.0,86968.0,-6659.5,0
2022-03-20,2022,0,10,0.0,86968.0,-6659.5,0
2022-03-21,2022,0,10,0.0,86968.0,-6659.5,0
2022-03-22,2022,0,10,0.0,86968.0,-6659.5,0
2022-03-23,2022,0,10,0.0,86968.0,-6659.5,0
2022-03-24,2022,0,10,0.0,86968.0,-6659.5,0
2022-03-25,2022,0,10,0.0,86968.0,-6659.5,0
2022-03-27,2022,0,10,0.0,86968.0,-6659.5,0
2022-03-28,2022,0,10,0.0,86968.0,-6659.5,0
2022-03-29,2022,0,10,0.0,86968.0,-6659.5,0
2022-03-30,2022,0,10,0.0,86968.0,-6659.5,0
2022-03-31,2022,0,10,0.0,86968.0,-6659.5,0
2022-04-01,2022,0,10,0.0,86968.0,-6659.5,0
2022-04-03,2022,0,10,0.0,86968.0,-6659.5,0
2022-04-04,2022,0,10,0.0,86968.0,-6659.5,0
2022-04-05,2022,0,10,0.0,86968.0,-6659.5,0
2022-04-06,2022,0,10,0.0,86968.0,-6659.5,0
2022-04-07,2022,0,10,0.0,86968.0,-6659.5,0
2022-04-08,2022,0,10,0.0,86968.0,-6659.5,0
2022-04-10,2022,0,10,0.0,86968.0,-6659.5,0
2022-04-11,2022,0,10,0.0,86968.0,-6659.5,0
2022-04-12,2022,0,10,0.0,86968.0,-6659.5,0
2022-04-13,2022,0,10,0.0,86968.0,-6659.5,0
2022-04-14,2022,0,10,0.0,86968.0,-6659.5,0
2022-04-17,2022,0,10,0.0,86968.0,-6659.5,0
2022-04-18,2022,0,10,0.0,86968.0,-6659.5,0
2022-04-19,2022,0,10,0.0,86968.0,-6659.5,0
2022-04-20,2022,0,10,0.0,86968.0,-6659.5,0
2022-04-21,2022,0,10,0.0,86968.0,-6659.5,0
2022-04-22,2022,0,10,0.0,86968.0,-6659.5,0
2022-04-24,2022,0,10,0.0,86968.0,-6659.5,0
2022-04-25,2022,0,10,0.0,86968.0,-6659.5,0
2022-04-26,2022,0,10,0.0,86968.0,-6659.5,0
2022-04-27,2022,0,10,0.0,86968.0,-6659.5,0
2022-04-28,2022,0,10,0.0,86968.0,-6659.5,0
2022-04-29,2022,0,10,0.0,86968.0,-6659.5,0
2022-05-01,2022,0,10,0.0,86968.0,-6659.5,0
2022-05-02,2022,0,10,0.0,86968.0,-6659.5,0
2022-05-03,2022,0,10,0.0,86968.0,-6659.5,0
2022-05-04,2022,0,10,0.0,86968.0,-6659.5,0
2022-05-05,2022,0,10,0.0,86968.0,-6659.5,0
2022-05-06,2022,0,10,0.0,86968.0,-6659.5,0
2022-05-08,2022,0,10,0.0,86968.0,-6659.5,0
2022-05-09,2022,0,10,0.0,86968.0,-6659.5,0
2022-05-10,2022,0,10,0.0,86968.0,-6659.5,0
2022-05-11,2022,0,10,0.0,86968.0,-6659.5,0
2022-05-12,2022,0,10,0.0,86968.0,-6659.5,0
2022-05-13,2022,0,10,0.0,86968.0,-6659.5,0
2022-05-15,2022,0,10,0.0,86968.0,-6659.5,0
2022-05-16,2022,0,10,0.0,86968.0,-6659.5,0
2022-05-17,2022,0,10,0.0,86968.0,-6659.5,0
2022-05-18,2022,0,10,0.0,86968.0,-6659.5,0
2022-05-19,2022,0,10,0.0,86968.0,-6659.5,0
2022-05-20,2022,0,10,0.0,86968.0,-6659.5,0
2022-05-22,2022,0,10,0.0,86968.0,-6659.5,0
2022-05-23,2022,0,10,0.0,86968.0,-6659.5,0
2022-05-24,2022,0,10,0.0,86968.0,-6659.5,0
2022-05-25,2022,0,10,0.0,86968.0,-6659.5,0
2022-05-26,2022,0,10,0.0,86968.0,-6659.5,0
2022-05-27,2022,0,10,0.0,86968.0,-6659.5,0
2022-05-29,2022,0,10,0.0,86968.0,-6659.5,0
2022-05-30,2022,0,10,0.0,86968.0,-6659.5,0
2022-05-31,2022,0,10,0.0,86968.0,-6659.5,0
2022-06-01,2022,0,10,0.0,86968.0,-6659.5,0
2022-06-02,2022,0,10,0.0,86968.0,-6659.5,0
2022-06-03,2022,0,10,0.0,86968.0,-6659.5,0
2022-06-05,2022,0,10,0.0,86968.0,-6659.5,0
2022-06-06,2022,0,10,0.0,86968.0,-6659.5,0
2022-06-07,2022,0,10,0.0,86968.0,-6659.5,0
2022-06-08,2022,0,10,0.0,86968.0,-6659.5,0
2022-06-09,2022,0,10,0.0,86968.0,-6659.5,0
2022-06-10,2022,0,10,0.0,86968.0,-6659.5,0
2022-06-12,2022,0,10,0.0,86968.0,-6659.5,0
2022-06-13,2022,0,10,0.0,86968.0,-6659.5,0
2022-06-14,2022,0,10,0.0,86968.0,-6659.5,0
2022-06-15,2022,0,10,0.0,86968.0,-6659.5,0
2022-06-16,2022,0,10,0.0,86968.0,-6659.5,0
2022-06-17,2022,0,10,0.0,86968.0,-6659.5,0
2022-06-19,2022,0,10,0.0,86968.0,-6659.5,0
2022-06-20,2022,0,10,0.0,86968.0,-6659.5,0
2022-06-21,2022,0,10,0.0,86968.0,-6659.5,0
2022-06-22,2022,0,10,0.0,86968.0,-6659.5,0
2022-06-23,2022,0,10,0.0,86968.0,-6659.5,0
2022-06-24,2022,0,10,0.0,86968.0,-6659.5,0
2022-06-26,2022,0,10,0.0,86968.0,-6659.5,0
2022-06-27,2022,0,10,0.0,86968.0,-6659.5,0
2022-06-28,2022,0,10,0.0,86968.0,-6659.5,0
2022-06-29,2022,0,10,0.0,86968.0,-6659.5,0
2022-06-30,2022,0,10,0.0,86968.0,-6659.5,0
2022-07-01,2022,0,10,0.0,86968.0,-6659.5,0
2022-07-03,2022,0,10,0.0,86968.0,-6659.5,0
2022-07-04,2022,0,10,0.0,86968.0,-6659.5,0
2022-07-05,2022,0,10,0.0,86968.0,-6659.5,0
2022-07-06,2022,0,10,0.0,86968.0,-6659.5,0
2022-07-07,2022,0,10,0.0,86968.0,-6659.5,0
2022-07-08,2022,0,10,0.0,86968.0,-6659.5,0
2022-07-10,2022,0,10,0.0,86968.0,-6659.5,0
2022-07-11,2022,0,10,0.0,86968.0,-6659.5,0
2022-07-12,2022,0,10,0.0,86968.0,-6659.5,0
2022-07-13,2022,0,10,0.0,86968.0,-6659.5,0
2022-07-14,2022,0,10,0.0,86968.0,-6659.5,0
2022-07-15,2022,0,10,0.0,86968.0,-6659.5,0
2022-07-17,2022,0,10,0.0,86968.0,-6659.5,0
2022-07-18,2022,0,10,0.0,86968.0,-6659.5,0
2022-07-19,2022,0,10,0.0,86968.0,-6659.5,0
2022-07-20,2022,0,10,0.0,86968.0,-6659.5,0
2022-07-21,2022,0,10,0.0,86968.0,-6659.5,0
2022-07-22,2022,0,10,0.0,86968.0,-6659.5,0
2022-07-24,2022,0,10,0.0,86968.0,-6659.5,0
2022-07-25,2022,0,10,0.0,86968.0,-6659.5,0
2022-07-26,2022,0,10,0.0,86968.0,-6659.5,0
2022-07-27,2022,0,10,0.0,86968.0,-6659.5,0
2022-07-28,2022,0,10,0.0,86968.0,-6659.5,0
2022-07-29,2022,0,10,0.0,86968.0,-6659.5,0
2022-07-31,2022,0,10,0.0,86968.0,-6659.5,0
2022-08-01,2022,0,10,0.0,86968.0,-6659.5,0
2022-08-02,2022,0,10,0.0,86968.0,-6659.5,0
2022-08-03,2022,0,10,0.0,86968.0,-6659.5,0
2022-08-04,2022,0,10,0.0,86968.0,-6659.5,0
2022-08-05,2022,0,10,0.0,86968.0,-6659.5,0
2022-08-07,2022,0,10,0.0,86968.0,-6659.5,0
2022-08-08,2022,0,10,0.0,86968.0,-6659.5,0
2022-08-09,2022,0,10,0.0,86968.0,-6659.5,0
2022-08-10,2022,0,10,0.0,86968.0,-6659.5,0
2022-08-11,2022,0,10,0.0,86968.0,-6659.5,0
2022-08-12,2022,0,10,0.0,86968.0,-6659.5,0
2022-08-14,2022,0,10,0.0,86968.0,-6659.5,0
2022-08-15,2022,0,10,0.0,86968.0,-6659.5,0
2022-08-16,2022,0,10,0.0,86968.0,-6659.5,0
2022-08-17,2022,0,10,0.0,86968.0,-6659.5,0
2022-08-18,2022,0,10,0.0,86968.0,-6659.5,0
2022-08-19,2022,0,10,0.0,86968.0,-6659.5,0
2022-08-21,2022,0,10,0.0,86968.0,-6659.5,0
2022-08-22,2022,0,10,0.0,86968.0,-6659.5,0
2022-08-23,2022,0,10,0.0,86968.0,-6659.5,0
2022-08-24,2022,0,10,0.0,86968.0,-6659.5,0
2022-08-25,2022,0,10,0.0,86968.0,-6659.5,0
2022-08-26,2022,0,10,0.0,86968.0,-6659.5,0
2022-08-28,2022,0,10,0.0,86968.0,-6659.5,0
2022-08-29,2022,0,10,0.0,86968.0,-6659.5,0
2022-08-30,2022,0,10,0.0,86968.0,-6659.5,0
2022-08-31,2022,0,10,0.0,86968.0,-6659.5,0
2022-09-01,2022,0,10,0.0,86968.0,-6659.5,0
2022-09-02,2022,0,10,0.0,86968.0,-6659.5,0
2022-09-04,2022,0,10,0.0,86968.0,-6659.5,0
2022-09-05,2022,0,10,0.0,86968.0,-6659.5,0
2022-09-06,2022,0,10,0.0,86968.0,-6659.5,0
2022-09-07,2022,0,10,0.0,86968.0,-6659.5,0
2022-09-08,2022,0,10,0.0,86968.0,-6659.5,0
2022-09-09,2022,0,10,0.0,86968.0,-6659.5,0
2022-09-11,2022,0,10,0.0,86968.0,-6659.5,0
2022-09-12,2022,0,10,0.0,86968.0,-6659.5,0
2022-09-13,2022,0,10,0.0,86968.0,-6659.5,0
2022-09-14,2022,0,10,0.0,86968.0,-6659.5,0
2022-09-15,2022,0,10,0.0,86968.0,-6659.5,0
2022-09-16,2022,0,10,0.0,86968.0,-6659.5,0
2022-09-18,2022,0,10,0.0,86968.0,-6659.5,0
2022-09-19,2022,0,10,0.0,86968.0,-6659.5,0
2022-09-20,2022,0,10,0.0,86968.0,-6659.5,0
2022-09-21,2022,0,10,0.0,86968.0,-6659.5,0
2022-09-22,2022,0,10,0.0,86968.0,-6659.5,0
2022-09-23,2022,0,10,0.0,86968.0,-6659.5,0
2022-09-25,2022,0,10,0.0,86968.0,-6659.5,0
2022-09-26,2022,0,10,0.0,86968.0,-6659.5,0
2022-09-27,2022,0,10,0.0,86968.0,-6659.5,0
2022-09-28,2022,0,10,0.0,86968.0,-6659.5,0
2022-09-29,2022,0,10,0.0,86968.0,-6659.5,0
2022-09-30,2022,0,10,0.0,86968.0,-6659.5,0
2022-10-02,2022,0,10,0.0,86968.0,-6659.5,0
2022-10-03,2022,0,10,0.0,86968.0,-6659.5,0
2022-10-04,2022,0,10,0.0,86968.0,-6659.5,0
2022-10-05,2022,0,10,0.0,86968.0,-6659.5,0
2022-10-06,2022,0,10,0.0,86968.0,-6659.5,0
2022-10-07,2022,0,10,0.0,86968.0,-6659.5,0
2022-10-09,2022,0,10,0.0,86968.0,-6659.5,0
2022-10-10,2022,0,10,0.0,86968.0,-6659.5,0
2022-10-11,2022,0,10,0.0,86968.0,-6659.5,0
2022-10-12,2022,0,10,0.0,86968.0,-6659.5,0
2022-10-13,2022,0,10,0.0,86968.0,-6659.5,0
2022-10-14,2022,0,10,0.0,86968.0,-6659.5,0
2022-10-16,2022,0,10,0.0,86968.0,-6659.5,0
2022-10-17,2022,0,10,0.0,86968.0,-6659.5,0
2022-10-18,2022,0,10,0.0,86968.0,-6659.5,0
2022-10-19,2022,0,10,0.0,86968.0,-6659.5,0
2022-10-20,2022,0,10,0.0,86968.0,-6659.5,0
2022-10-21,2022,0,10,0.0,86968.0,-6659.5,0
2022-10-23,2022,0,10,0.0,86968.0,-6659.5,0
2022-10-24,2022,0,10,0.0,86968.0,-6659.5,0
2022-10-25,2022,0,10,0.0,86968.0,-6659.5,0
2022-10-26,2022,0,10,0.0,86968.0,-6659.5,0
2022-10-27,2022,0,10,0.0,86968.0,-6659.5,0
2022-10-28,2022,0,10,0.0,86968.0,-6659.5,0
2022-10-30,2022,0,10,0.0,86968.0,-6659.5,0
2022-10-31,2022,0,10,0.0,86968.0,-6659.5,0
2022-11-01,2022,0,10,0.0,86968.0,-6659.5,0
2022-11-02,2022,0,10,0.0,86968.0,-6659.5,0
2022-11-03,2022,0,10,0.0,86968.0,-6659.5,0
2022-11-04,2022,0,10,0.0,86968.0,-6659.5,0
2022-11-06,2022,0,10,0.0,86968.0,-6659.5,0
2022-11-07,2022,0,10,0.0,86968.0,-6659.5,0
2022-11-08,2022,0,10,0.0,86968.0,-6659.5,0
2022-11-09,2022,0,10,0.0,86968.0,-6659.5,0
2022-11-10,2022,0,10,0.0,86968.0,-6659.5,0
2022-11-11,2022,0,10,0.0,86968.0,-6659.5,0
2022-11-13,2022,0,10,0.0,86968.0,-6659.5,0
2022-11-14,2022,0,10,0.0,86968.0,-6659.5,0
2022-11-15,2022,0,10,0.0,86968.0,-6659.5,0
2022-11-16,2022,0,10,0.0,86968.0,-6659.5,0
2022-11-17,2022,0,10,0.0,86968.0,-6659.5,0
2022-11-18,2022,0,10,0.0,86968.0,-6659.5,0
2022-11-20,2022,0,10,0.0,86968.0,-6659.5,0
2022-11-21,2022,0,10,0.0,86968.0,-6659.5,0
2022-11-22,2022,0,10,0.0,86968.0,-6659.5,0
2022-11-23,2022,0,10,0.0,86968.0,-6659.5,0
2022-11-24,2022,0,10,0.0,86968.0,-6659.5,0
2022-11-25,2022,0,10,0.0,86968.0,-6659.5,0
2022-11-27,2022,0,10,0.0,86968.0,-6659.5,0
2022-11-28,2022,0,10,0.0,86968.0,-6659.5,0
2022-11-29,2022,0,10,0.0,86968.0,-6659.5,0
2022-11-30,2022,0,10,0.0,86968.0,-6659.5,0
2022-12-01,2022,0,10,0.0,86968.0,-6659.5,0
2022-12-02,2022,0,10,0.0,86968.0,-6659.5,0
2022-12-04,2022,0,10,0.0,86968.0,-6659.5,0
2022-12-05,2022,0,10,0.0,86968.0,-6659.5,0
2022-12-06,2022,0,10,0.0,86968.0,-6659.5,0
2022-12-07,2022,0,10,0.0,86968.0,-6659.5,0
2022-12-08,2022,0,10,0.0,86968.0,-6659.5,0
2022-12-09,2022,0,10,0.0,86968.0,-6659.5,0
2022-12-11,2022,0,10,0.0,86968.0,-6659.5,0
2022-12-12,2022,0,10,0.0,86968.0,-6659.5,0
2022-12-13,2022,0,10,0.0,86968.0,-6659.5,0
2022-12-14,2022,0,10,0.0,86968.0,-6659.5,0
2022-12-15,2022,0,10,0.0,86968.0,-6659.5,0
2022-12-16,2022,0,10,0.0,86968.0,-6659.5,0
2022-12-18,2022,0,10,0.0,86968.0,-6659.5,0
2022-12-19,2022,0,10,0.0,86968.0,-6659.5,0
2022-12-20,2022,0,10,0.0,86968.0,-6659.5,0
2022-12-21,2022,0,10,0.0,86968.0,-6659.5,0
2022-12-22,2022,0,10,0.0,86968.0,-6659.5,0
2022-12-23,2022,0,10,0.0,86968.0,-6659.5,0
2022-12-26,2022,0,10,0.0,86968.0,-6659.5,0
2022-12-27,2022,0,10,0.0,86968.0,-6659.5,0
2022-12-28,2022,0,10,0.0,86968.0,-6659.5,0
2022-12-29,2022,0,10,0.0,86968.0,-6659.5,0
2022-12-30,2022,0,10,0.0,86968.0,-6659.5,0
2023-01-02,2023,0,10,0.0,86968.0,-6659.5,0
2023-01-03,2023,0,10,0.0,86968.0,-6659.5,0
2023-01-04,2023,0,10,0.0,86968.0,-6659.5,0
2023-01-05,2023,0,10,0.0,86968.0,-6659.5,0
2023-01-06,2023,0,10,0.0,86968.0,-6659.5,0
2023-01-08,2023,0,10,0.0,86968.0,-6659.5,0
2023-01-09,2023,0,10,0.0,86968.0,-6659.5,0
2023-01-10,2023,0,10,0.0,86968.0,-6659.5,0
2023-01-11,2023,0,10,0.0,86968.0,-6659.5,0
2023-01-12,2023,0,10,0.0,86968.0,-6659.5,0
2023-01-13,2023,0,10,0.0,86968.0,-6659.5,0
2023-01-15,2023,0,10,0.0,86968.0,-6659.5,0
2023-01-16,2023,0,10,0.0,86968.0,-6659.5,0
2023-01-17,2023,0,10,0.0,86968.0,-6659.5,0
2023-01-18,2023,0,10,0.0,86968.0,-6659.5,0
2023-01-19,2023,0,10,0.0,86968.0,-6659.5,0
2023-01-20,2023,0,10,0.0,86968.0,-6659.5,0
2023-01-22,2023,0,10,0.0,86968.0,-6659.5,0
2023-01-23,2023,0,10,0.0,86968.0,-6659.5,0
2023-01-24,2023,0,10,0.0,86968.0,-6659.5,0
2023-01-25,2023,0,10,0.0,86968.0,-6659.5,0
2023-01-26,2023,0,10,0.0,86968.0,-6659.5,0
2023-01-27,2023,0,10,0.0,86968.0,-6659.5,0
2023-01-29,2023,0,10,0.0,86968.0,-6659.5,0
2023-01-30,2023,0,10,0.0,86968.0,-6659.5,0
2023-01-31,2023,0,10,0.0,86968.0,-6659.5,0
2023-02-01,2023,0,10,0.0,86968.0,-6659.5,0
2023-02-02,2023,0,10,0.0,86968.0,-6659.5,0
2023-02-03,2023,0,10,0.0,86968.0,-6659.5,0
2023-02-05,2023,0,10,0.0,86968.0,-6659.5,0
2023-02-06,2023,0,10,0.0,86968.0,-6659.5,0
2023-02-07,2023,0,10,0.0,86968.0,-6659.5,0
2023-02-08,2023,0,10,0.0,86968.0,-6659.5,0
2023-02-09,2023,0,10,0.0,86968.0,-6659.5,0
2023-02-10,2023,0,10,0.0,86968.0,-6659.5,0
2023-02-12,2023,0,10,0.0,86968.0,-6659.5,0
2023-02-13,2023,0,10,0.0,86968.0,-6659.5,0
2023-02-14,2023,0,10,0.0,86968.0,-6659.5,0
2023-02-15,2023,0,10,0.0,86968.0,-6659.5,0
2023-02-16,2023,0,10,0.0,86968.0,-6659.5,0
2023-02-17,2023,0,10,0.0,86968.0,-6659.5,0
2023-02-19,2023,0,10,0.0,86968.0,-6659.5,0
2023-02-20,2023,0,10,0.0,86968.0,-6659.5,0
2023-02-21,2023,0,10,0.0,86968.0,-6659.5,0
2023-02-22,2023,0,10,0.0,86968.0,-6659.5,0
2023-02-23,2023,0,10,0.0,86968.0,-6659.5,0
2023-02-24,2023,0,10,0.0,86968.0,-6659.5,0
2023-02-26,2023,0,10,0.0,86968.0,-6659.5,0
2023-02-27,2023,0,10,0.0,86968.0,-6659.5,0
2023-02-28,2023,0,10,0.0,86968.0,-6659.5,0
2023-03-01,2023,0,10,0.0,86968.0,-6659.5,0
2023-03-02,2023,0,10,0.0,86968.0,-6659.5,0
2023-03-03,2023,0,10,0.0,86968.0,-6659.5,0
2023-03-05,2023,0,10,0.0,86968.0,-6659.5,0
2023-03-06,2023,0,10,0.0,86968.0,-6659.5,0
2023-03-07,2023,0,10,0.0,86968.0,-6659.5,0
2023-03-08,2023,0,10,0.0,86968.0,-6659.5,0
2023-03-09,2023,0,10,0.0,86968.0,-6659.5,0
2023-03-10,2023,0,10,0.0,86968.0,-6659.5,0
2023-03-12,2023,0,10,0.0,86968.0,-6659.5,0
2023-03-13,2023,0,10,0.0,86968.0,-6659.5,0
2023-03-14,2023,0,10,0.0,86968.0,-6659.5,0
2023-03-15,2023,0,10,0.0,86968.0,-6659.5,0
2023-03-16,2023,0,10,0.0,86968.0,-6659.5,0
2023-03-17,2023,0,10,0.0,86968.0,-6659.5,0
2023-03-19,2023,0,10,0.0,86968.0,-6659.5,0
2023-03-20,2023,0,10,0.0,86968.0,-6659.5,0
2023-03-21,2023,0,10,0.0,86968.0,-6659.5,0
2023-03-22,2023,0,10,0.0,86968.0,-6659.5,0
2023-03-23,2023,0,10,0.0,86968.0,-6659.5,0
2023-03-24,2023,0,10,0.0,86968.0,-6659.5,0
2023-03-26,2023,0,10,0.0,86968.0,-6659.5,0
2023-03-27,2023,0,10,0.0,86968.0,-6659.5,0
2023-03-28,2023,0,10,0.0,86968.0,-6659.5,0
2023-03-29,2023,0,10,0.0,86968.0,-6659.5,0
2023-03-30,2023,0,10,0.0,86968.0,-6659.5,0
2023-03-31,2023,0,10,0.0,86968.0,-6659.5,0
2023-04-02,2023,0,10,0.0,86968.0,-6659.5,0
2023-04-03,2023,0,10,0.0,86968.0,-6659.5,0
2023-04-04,2023,0,10,0.0,86968.0,-6659.5,0
2023-04-05,2023,0,10,0.0,86968.0,-6659.5,0
2023-04-06,2023,0,10,0.0,86968.0,-6659.5,0
2023-04-07,2023,0,10,0.0,86968.0,-6659.5,0
2023-04-09,2023,0,10,0.0,86968.0,-6659.5,0
2023-04-10,2023,0,10,0.0,86968.0,-6659.5,0
2023-04-11,2023,0,10,0.0,86968.0,-6659.5,0
2023-04-12,2023,0,10,0.0,86968.0,-6659.5,0
2023-04-13,2023,0,10,0.0,86968.0,-6659.5,0
2023-04-14,2023,0,10,0.0,86968.0,-6659.5,0
2023-04-16,2023,0,10,0.0,86968.0,-6659.5,0
2023-04-17,2023,0,10,0.0,86968.0,-6659.5,0
2023-04-18,2023,0,10,0.0,86968.0,-6659.5,0
2023-04-19,2023,0,10,0.0,86968.0,-6659.5,0
2023-04-20,2023,0,10,0.0,86968.0,-6659.5,0
2023-04-21,2023,0,10,0.0,86968.0,-6659.5,0
2023-04-23,2023,0,10,0.0,86968.0,-6659.5,0
2023-04-24,2023,0,10,0.0,86968.0,-6659.5,0
2023-04-25,2023,0,10,0.0,86968.0,-6659.5,0
2023-04-26,2023,0,10,0.0,86968.0,-6659.5,0
2023-04-27,2023,0,10,0.0,86968.0,-6659.5,0
2023-04-28,2023,0,10,0.0,86968.0,-6659.5,0
2023-04-30,2023,0,10,0.0,86968.0,-6659.5,0
2023-05-01,2023,0,10,0.0,86968.0,-6659.5,0
2023-05-02,2023,0,10,0.0,86968.0,-6659.5,0
2023-05-03,2023,0,10,0.0,86968.0,-6659.5,0
2023-05-04,2023,0,10,0.0,86968.0,-6659.5,0
2023-05-05,2023,0,10,0.0,86968.0,-6659.5,0
2023-05-07,2023,0,10,0.0,86968.0,-6659.5,0
2023-05-08,2023,0,10,0.0,86968.0,-6659.5,0
2023-05-09,2023,0,10,0.0,86968.0,-6659.5,0
2023-05-10,2023,0,10,0.0,86968.0,-6659.5,0
2023-05-11,2023,0,10,0.0,86968.0,-6659.5,0
2023-05-12,2023,0,10,0.0,86968.0,-6659.5,0
2023-05-14,2023,0,10,0.0,86968.0,-6659.5,0
2023-05-15,2023,0,10,0.0,86968.0,-6659.5,0
2023-05-16,2023,0,10,0.0,86968.0,-6659.5,0
2023-05-17,2023,0,10,0.0,86968.0,-6659.5,0
2023-05-18,2023,0,10,0.0,86968.0,-6659.5,0
2023-05-19,2023,0,10,0.0,86968.0,-6659.5,0
2023-05-21,2023,0,10,0.0,86968.0,-6659.5,0
2023-05-22,2023,0,10,0.0,86968.0,-6659.5,0
2023-05-23,2023,0,10,0.0,86968.0,-6659.5,0
2023-05-24,2023,0,10,0.0,86968.0,-6659.5,0
2023-05-25,2023,0,10,0.0,86968.0,-6659.5,0
2023-05-26,2023,0,10,0.0,86968.0,-6659.5,0
2023-05-28,2023,0,10,0.0,86968.0,-6659.5,0
2023-05-29,2023,0,10,0.0,86968.0,-6659.5,0
2023-05-30,2023,0,10,0.0,86968.0,-6659.5,0
2023-05-31,2023,0,10,0.0,86968.0,-6659.5,0
2023-06-01,2023,0,10,0.0,86968.0,-6659.5,0
2023-06-02,2023,0,10,0.0,86968.0,-6659.5,0
2023-06-04,2023,0,10,0.0,86968.0,-6659.5,0
2023-06-05,2023,0,10,0.0,86968.0,-6659.5,0
2023-06-06,2023,0,10,0.0,86968.0,-6659.5,0
2023-06-07,2023,0,10,0.0,86968.0,-6659.5,0
2023-06-08,2023,0,10,0.0,86968.0,-6659.5,0
2023-06-09,2023,0,10,0.0,86968.0,-6659.5,0
2023-06-11,2023,0,10,0.0,86968.0,-6659.5,0
2023-06-12,2023,0,10,0.0,86968.0,-6659.5,0
2023-06-13,2023,0,10,0.0,86968.0,-6659.5,0
2023-06-14,2023,0,10,0.0,86968.0,-6659.5,0
2023-06-15,2023,0,10,0.0,86968.0,-6659.5,0
2023-06-16,2023,0,10,0.0,86968.0,-6659.5,0
2023-06-18,2023,0,10,0.0,86968.0,-6659.5,0
2023-06-19,2023,0,10,0.0,86968.0,-6659.5,0
2023-06-20,2023,0,10,0.0,86968.0,-6659.5,0
2023-06-21,2023,0,10,0.0,86968.0,-6659.5,0
2023-06-22,2023,0,10,0.0,86968.0,-6659.5,0
2023-06-23,2023,0,10,0.0,86968.0,-6659.5,0
2023-06-25,2023,0,10,0.0,86968.0,-6659.5,0
2023-06-26,2023,0,10,0.0,86968.0,-6659.5,0
2023-06-27,2023,0,10,0.0,86968.0,-6659.5,0
2023-06-28,2023,0,10,0.0,86968.0,-6659.5,0
2023-06-29,2023,0,10,0.0,86968.0,-6659.5,0
2023-06-30,2023,0,10,0.0,86968.0,-6659.5,0
2023-07-02,2023,0,10,0.0,86968.0,-6659.5,0
2023-07-03,2023,0,10,0.0,86968.0,-6659.5,0
2023-07-04,2023,0,10,0.0,86968.0,-6659.5,0
2023-07-05,2023,0,10,0.0,86968.0,-6659.5,0
2023-07-06,2023,0,10,0.0,86968.0,-6659.5,0
2023-07-07,2023,0,10,0.0,86968.0,-6659.5,0
2023-07-09,2023,0,10,0.0,86968.0,-6659.5,0
2023-07-10,2023,0,10,0.0,86968.0,-6659.5,0
2023-07-11,2023,0,10,0.0,86968.0,-6659.5,0
2023-07-12,2023,0,10,0.0,86968.0,-6659.5,0
2023-07-13,2023,0,10,0.0,86968.0,-6659.5,0
2023-07-14,2023,0,10,0.0,86968.0,-6659.5,0
2023-07-16,2023,0,10,0.0,86968.0,-6659.5,0
2023-07-17,2023,0,10,0.0,86968.0,-6659.5,0
2023-07-18,2023,0,10,0.0,86968.0,-6659.5,0
2023-07-19,2023,0,10,0.0,86968.0,-6659.5,0
2023-07-20,2023,0,10,0.0,86968.0,-6659.5,0
2023-07-21,2023,0,10,0.0,86968.0,-6659.5,0
2023-07-23,2023,0,10,0.0,86968.0,-6659.5,0
2023-07-24,2023,0,10,0.0,86968.0,-6659.5,0
2023-07-25,2023,0,10,0.0,86968.0,-6659.5,0
2023-07-26,2023,0,10,0.0,86968.0,-6659.5,0
2023-07-27,2023,0,10,0.0,86968.0,-6659.5,0
2023-07-28,2023,0,10,0.0,86968.0,-6659.5,0
2023-07-30,2023,0,10,0.0,86968.0,-6659.5,0
2023-07-31,2023,0,10,0.0,86968.0,-6659.5,0
2023-08-01,2023,0,10,0.0,86968.0,-6659.5,0
2023-08-02,2023,0,10,0.0,86968.0,-6659.5,0
2023-08-03,2023,0,10,0.0,86968.0,-6659.5,0
2023-08-04,2023,0,10,0.0,86968.0,-6659.5,0
2023-08-06,2023,0,10,0.0,86968.0,-6659.5,0
2023-08-07,2023,0,10,0.0,86968.0,-6659.5,0
2023-08-08,2023,0,10,0.0,86968.0,-6659.5,0
2023-08-09,2023,0,10,0.0,86968.0,-6659.5,0
2023-08-10,2023,0,10,0.0,86968.0,-6659.5,0
2023-08-11,2023,0,10,0.0,86968.0,-6659.5,0
2023-08-13,2023,0,10,0.0,86968.0,-6659.5,0
2023-08-14,2023,0,10,0.0,86968.0,-6659.5,0
2023-08-15,2023,0,10,0.0,86968.0,-6659.5,0
2023-08-16,2023,0,10,0.0,86968.0,-6659.5,0
2023-08-17,2023,0,10,0.0,86968.0,-6659.5,0
2023-08-18,2023,0,10,0.0,86968.0,-6659.5,0
2023-08-20,2023,0,10,0.0,86968.0,-6659.5,0
2023-08-21,2023,0,10,0.0,86968.0,-6659.5,0
2023-08-22,2023,0,10,0.0,86968.0,-6659.5,0
2023-08-23,2023,0,10,0.0,86968.0,-6659.5,0
2023-08-24,2023,0,10,0.0,86968.0,-6659.5,0
2023-08-25,2023,0,10,0.0,86968.0,-6659.5,0
2023-08-27,2023,0,10,0.0,86968.0,-6659.5,0
2023-08-28,2023,0,10,0.0,86968.0,-6659.5,0
2023-08-29,2023,0,10,0.0,86968.0,-6659.5,0
2023-08-30,2023,0,10,136.5,87104.5,-6523.0,1
2023-08-31,2023,0,10,67.0,87171.5,-6456.0,1
2023-09-01,2023,0,10,-48.0,87123.5,-6504.0,1
2023-09-03,2023,0,10,8.5,87132.0,-6495.5,1
2023-09-04,2023,0,10,19.0,87151.0,-6476.5,1
2023-09-05,2023,0,10,-8.5,87142.5,-6485.0,1
2023-09-06,2023,0,10,-261.5,86881.0,-6746.5,1
2023-09-07,2023,0,10,-1.5,86879.5,-6748.0,0
2023-09-08,2023,0,10,0.0,86879.5,-6748.0,0
2023-09-10,2023,0,10,0.0,86879.5,-6748.0,0
2023-09-11,2023,0,10,0.0,86879.5,-6748.0,0
2023-09-12,2023,0,10,-304.5,86575.0,-7052.5,1
2023-09-13,2023,0,10,148.0,86723.0,-6904.5,1
2023-09-14,2023,0,10,195.0,86918.0,-6709.5,1
2023-09-15,2023,0,10,-588.0,86330.0,-7297.5,1
2023-09-17,2023,0,10,1.0,86331.0,-7296.5,0
2023-09-18,2023,0,10,0.0,86331.0,-7296.5,0
2023-09-19,2023,0,10,0.0,86331.0,-7296.5,0
2023-09-20,2023,0,10,0.0,86331.0,-7296.5,0
2023-09-21,2023,0,10,0.0,86331.0,-7296.5,0
2023-09-22,2023,0,10,0.0,86331.0,-7296.5,0
2023-09-24,2023,0,10,0.0,86331.0,-7296.5,0
2023-09-25,2023,0,10,0.0,86331.0,-7296.5,0
2023-09-26,2023,0,10,0.0,86331.0,-7296.5,0
2023-09-27,2023,0,10,0.0,86331.0,-7296.5,0
2023-09-28,2023,0,10,0.0,86331.0,-7296.5,0
2023-09-29,2023,0,10,0.0,86331.0,-7296.5,0
2023-10-01,2023,0,10,0.0,86331.0,-7296.5,0
2023-10-02,2023,0,10,0.0,86331.0,-7296.5,0
2023-10-03,2023,0,10,0.0,86331.0,-7296.5,0
2023-10-04,2023,0,10,0.0,86331.0,-7296.5,0
2023-10-05,2023,0,10,0.0,86331.0,-7296.5,0
2023-10-06,2023,0,10,0.0,86331.0,-7296.5,0
2023-10-08,2023,0,10,0.0,86331.0,-7296.5,0
2023-10-09,2023,0,10,0.0,86331.0,-7296.5,0
2023-10-10,2023,0,10,0.0,86331.0,-7296.5,0
2023-10-11,2023,0,10,0.0,86331.0,-7296.5,0
2023-10-12,2023,0,10,-169.5,86161.5,-7466.0,1
2023-10-13,2023,0,10,0.0,86161.5,-7466.0,0
2023-10-15,2023,0,10,0.0,86161.5,-7466.0,0
2023-10-16,2023,0,10,0.0,86161.5,-7466.0,0
2023-10-17,2023,0,10,0.0,86161.5,-7466.0,0
2023-10-18,2023,0,10,0.0,86161.5,-7466.0,0
2023-10-19,2023,0,10,0.0,86161.5,-7466.0,0
2023-10-20,2023,0,10,0.0,86161.5,-7466.0,0
2023-10-22,2023,0,10,0.0,86161.5,-7466.0,0
2023-10-23,2023,0,10,0.0,86161.5,-7466.0,0
2023-10-24,2023,0,10,0.0,86161.5,-7466.0,0
2023-10-25,2023,0,10,0.0,86161.5,-7466.0,0
2023-10-26,2023,0,10,0.0,86161.5,-7466.0,0
2023-10-27,2023,0,10,0.0,86161.5,-7466.0,0
2023-10-29,2023,0,10,0.0,86161.5,-7466.0,0
2023-10-30,2023,0,10,0.0,86161.5,-7466.0,0
2023-10-31,2023,0,10,0.0,86161.5,-7466.0,0
2023-11-01,2023,0,10,0.0,86161.5,-7466.0,0
2023-11-02,2023,0,10,0.0,86161.5,-7466.0,0
2023-11-03,2023,0,10,0.0,86161.5,-7466.0,0
2023-11-05,2023,0,10,-22.5,86139.0,-7488.5,1
2023-11-06,2023,0,10,0.0,86139.0,-7488.5,0
2023-11-07,2023,0,10,319.0,86458.0,-7169.5,1
2023-11-08,2023,0,10,-20.5,86437.5,-7190.0,1
2023-11-09,2023,0,10,-250.5,86187.0,-7440.5,1
2023-11-10,2023,0,10,697.0,86884.0,-6743.5,1
2023-11-12,2023,0,10,-42.0,86842.0,-6785.5,1
2023-11-13,2023,0,10,-3.5,86838.5,-6789.0,1
2023-11-14,2023,0,10,692.5,87531.0,-6096.5,1
2023-11-15,2023,0,10,-79.5,87451.5,-6176.0,1
2023-11-16,2023,0,10,41.5,87493.0,-6134.5,1
2023-11-17,2023,0,10,-22.0,87471.0,-6156.5,2
2023-11-19,2023,0,10,-41.0,87430.0,-6197.5,2
2023-11-20,2023,0,10,948.0,88378.0,-5249.5,2
2023-11-21,2023,0,10,-586.0,87792.0,-5835.5,2
2023-11-22,2023,0,10,366.0,88158.0,-5469.5,2
2023-11-23,2023,0,10,75.0,88233.0,-5394.5,2
2023-11-24,2023,0,10,-215.0,88018.0,-5609.5,2
2023-11-26,2023,0,10,-98.0,87920.0,-5707.5,2
2023-11-27,2023,0,10,94.0,88014.0,-5613.5,2
2023-11-28,2023,0,10,174.0,88188.0,-5439.5,2
2023-11-29,2023,0,10,-25.0,88163.0,-5464.5,2
2023-11-30,2023,0,10,-330.0,87833.0,-5794.5,2
2023-12-01,2023,0,10,317.0,88150.0,-5477.5,4
2023-12-03,2023,0,10,-312.0,87838.0,-5789.5,4
2023-12-04,2023,0,10,-1140.0,86698.0,-6929.5,4
2023-12-05,2023,0,10,628.0,87326.0,-6301.5,4
2023-12-06,2023,0,10,-892.0,86434.0,-7193.5,4
2023-12-07,2023,0,10,1628.0,88062.0,-5565.5,4
2023-12-08,2023,0,10,580.0,88642.0,-4985.5,4
2023-12-10,2023,0,10,96.0,88738.0,-4889.5,4
2023-12-11,2023,0,10,2802.0,91540.0,-2087.5,4
2023-12-12,2023,0,10,1238.0,92778.0,-849.5,4
2023-12-13,2023,0,10,1652.0,94430.0,0.0,4
2023-12-14,2023,0,10,-444.0,93986.0,-444.0,4
2023-12-15,2023,0,10,368.0,94354.0,-76.0,6
2023-12-17,2023,0,10,93.0,94447.0,0.0,6
2023-12-18,2023,0,10,1206.0,95653.0,0.0,6
2023-12-19,2023,0,10,1242.0,96895.0,0.0,6
2023-12-20,2023,0,10,-2592.0,94303.0,-2592.0,6
2023-12-21,2023,0,10,1563.0,95866.0,-1029.0,6
2023-12-22,2023,0,10,246.0,96112.0,-783.0,6
2023-12-25,2023,0,10,498.0,96610.0,-285.0,6
2023-12-26,2023,0,10,1026.0,97636.0,0.0,6
2023-12-27,2023,0,10,387.0,98023.0,0.0,6
2023-12-28,2023,0,10,-252.0,97771.0,-252.0,6
2023-12-29,2023,0,10,-1215.0,96556.0,-1467.0,8
2024-01-01,2024,1,11,566.5,97122.5,-900.5,11
2024-01-02,2024,1,11,-6715.5,90407.0,-7616.0,11
2024-01-03,2024,1,11,-3850.0,86557.0,-11466.0,11
2024-01-04,2024,1,11,0.0,86557.0,-11466.0,0
2024-01-05,2024,1,11,0.0,86557.0,-11466.0,0
2024-01-07,2024,1,11,0.0,86557.0,-11466.0,0
2024-01-08,2024,1,11,0.0,86557.0,-11466.0,0
2024-01-09,2024,1,11,0.0,86557.0,-11466.0,0
2024-01-10,2024,1,11,0.0,86557.0,-11466.0,0
2024-01-11,2024,1,11,0.0,86557.0,-11466.0,0
2024-01-12,2024,1,11,0.0,86557.0,-11466.0,0
2024-01-14,2024,1,11,0.0,86557.0,-11466.0,0
2024-01-15,2024,1,11,0.0,86557.0,-11466.0,0
2024-01-16,2024,1,11,0.0,86557.0,-11466.0,0
2024-01-17,2024,1,11,-502.0,86055.0,-11968.0,2
2024-01-18,2024,1,11,0.0,86055.0,-11968.0,0
2024-01-19,2024,1,11,1260.0,87315.0,-10708.0,2
2024-01-21,2024,1,11,82.0,87397.0,-10626.0,2
2024-01-22,2024,1,11,-77.0,87320.0,-10703.0,2
2024-01-23,2024,1,11,446.0,87766.0,-10257.0,2
2024-01-24,2024,1,11,164.0,87930.0,-10093.0,2
2024-01-25,2024,1,11,-298.0,87632.0,-10391.0,2
2024-01-26,2024,1,11,-151.0,87481.0,-10542.0,2
2024-01-28,2024,1,11,-100.0,87381.0,-10642.0,2
2024-01-29,2024,1,11,969.0,88350.0,-9673.0,2
2024-01-30,2024,1,11,-1095.0,87255.0,-10768.0,2
2024-01-31,2024,1,11,-663.0,86592.0,-11431.0,2
2024-02-01,2024,1,11,1244.0,87836.0,-10187.0,2
2024-02-02,2024,1,11,109.0,87945.0,-10078.0,4
2024-02-04,2024,1,11,172.0,88117.0,-9906.0,4
2024-02-05,2024,1,11,-90.0,88027.0,-9996.0,4
2024-02-06,2024,1,11,-354.0,87673.0,-10350.0,4
2024-02-07,2024,1,11,1524.0,89197.0,-8826.0,4
2024-02-08,2024,1,11,198.0,89395.0,-8628.0,4
2024-02-09,2024,1,11,1364.0,90759.0,-7264.0,4
2024-02-11,2024,1,11,-22.0,90737.0,-7286.0,4
2024-02-12,2024,1,11,-782.0,89955.0,-8068.0,4
2024-02-13,2024,1,11,-1976.0,87979.0,-10044.0,4
2024-02-14,2024,1,11,1508.0,89487.0,-8536.0,4
2024-02-15,2024,1,11,590.0,90077.0,-7946.0,4
2024-02-16,2024,1,11,-1908.5,88168.5,-9854.5,7
2024-02-18,2024,1,11,787.5,88956.0,-9067.0,7
2024-02-19,2024,1,11,-409.5,88546.5,-9476.5,7
2024-02-20,2024,1,11,-2520.0,86026.5,-11996.5,7
2024-02-21,2024,1,11,1900.5,87927.0,-10096.0,7
2024-02-22,2024,1,11,4725.0,92652.0,-5371.0,7
2024-02-23,2024,1,11,-1127.0,91525.0,-6498.0,7
2024-02-25,2024,1,11,301.0,91826.0,-6197.0,7
2024-02-26,2024,1,11,-273.0,91553.0,-6470.0,7
2024-02-27,2024,1,11,588.0,92141.0,-5882.0,7
2024-02-28,2024,1,11,-1893.5,90247.5,-7775.5,7
2024-02-29,2024,1,11,2656.5,92904.0,-5119.0,7
2024-03-01,2024,1,11,3525.5,96429.5,-1593.5,10
2024-03-03,2024,1,11,440.0,96869.5,-1153.5,10
2024-03-04,2024,1,11,-2405.0,94464.5,-3558.5,10
2024-03-05,2024,1,11,-5215.0,89249.5,-8773.5,10
2024-03-06,2024,1,11,1120.0,90369.5,-7653.5,10
2024-03-07,2024,1,11,4955.0,95324.5,-2698.5,10
2024-03-08,2024,1,11,-4220.0,91104.5,-6918.5,10
2024-03-10,2024,1,11,-250.0,90854.5,-7168.5,10
2024-03-11,2024,1,11,5025.0,95879.5,-2143.5,10
2024-03-12,2024,1,11,3690.0,99569.5,0.0,10
2024-03-13,2024,1,11,-2110.0,97459.5,-2110.0,10
2024-03-14,2024,1,11,-2690.0,94769.5,-4800.0,10
2024-03-15,2024,1,11,-3512.0,91257.5,-8312.0,11
2024-03-17,2024,1,11,341.0,91598.5,-7971.0,11
2024-03-18,2024,1,11,2475.0,94073.5,-5496.0,11
2024-03-19,2024,1,11,1694.0,95767.5,-3802.0,11
2024-03-20,2024,1,11,6825.5,102593.0,0.0,11
2024-03-21,2024,1,11,225.5,102818.5,0.0,11
2024-03-22,2024,1,11,-550.0,102268.5,-550.0,11
2024-03-24,2024,1,11,484.0,102752.5,-66.0,11
2024-03-25,2024,1,11,-1001.0,101751.5,-1067.0,11
2024-03-26,2024,1,11,-1127.5,100624.0,-2194.5,11
2024-03-27,2024,1,11,-198.0,100426.0,-2392.5,11
2024-03-28,2024,1,11,-330.0,100096.0,-2722.5,11
2024-03-31,2024,1,11,3151.5,103247.5,0.0,11
2024-04-01,2024,1,11,-3041.5,100206.0,-3041.5,11
2024-04-02,2024,1,11,-3118.5,97087.5,-6160.0,11
2024-04-03,2024,1,11,2579.5,99667.0,-3580.5,11
2024-04-04,2024,1,11,-7793.5,91873.5,-11374.0,11
2024-04-05,2024,1,11,4818.0,96691.5,-6556.0,11
2024-04-07,2024,1,11,187.0,96878.5,-6369.0,11
2024-04-08,2024,1,11,-379.5,96499.0,-6748.5,11
2024-04-09,2024,1,11,1457.5,97956.5,-5291.0,11
2024-04-10,2024,1,11,-4609.0,93347.5,-9900.0,11
2024-04-11,2024,1,11,7298.5,100646.0,-2601.5,11
2024-04-12,2024,1,11,-7012.5,93633.5,-9614.0,11
2024-04-14,2024,1,11,1457.5,95091.0,-8156.5,11
2024-04-15,2024,1,11,-8079.5,87011.5,-16236.0,11
2024-04-16,2024,1,11,27.5,87039.0,-16208.5,0
2024-04-17,2024,1,11,0.0,87039.0,-16208.5,0
2024-04-18,2024,1,11,0.0,87039.0,-16208.5,0
2024-04-19,2024,1,11,0.0,87039.0,-16208.5,0
2024-04-21,2024,1,11,0.0,87039.0,-16208.5,0
2024-04-22,2024,1,11,0.0,87039.0,-16208.5,0
2024-04-23,2024,1,11,0.0,87039.0,-16208.5,0
2024-04-24,2024,1,11,0.0,87039.0,-16208.5,0
2024-04-25,2024,1,11,0.0,87039.0,-16208.5,0
2024-04-26,2024,1,11,0.0,87039.0,-16208.5,0
2024-04-28,2024,1,11,0.0,87039.0,-16208.5,0
2024-04-29,2024,1,11,0.0,87039.0,-16208.5,0
2024-04-30,2024,1,11,0.0,87039.0,-16208.5,0
2024-05-01,2024,1,11,0.0,87039.0,-16208.5,0
2024-05-02,2024,1,11,0.0,87039.0,-16208.5,0
2024-05-03,2024,1,11,0.0,87039.0,-16208.5,0
2024-05-05,2024,1,11,0.0,87039.0,-16208.5,0
2024-05-06,2024,1,11,0.0,87039.0,-16208.5,0
2024-05-07,2024,1,11,82.0,87121.0,-16126.5,2
2024-05-08,2024,1,11,-170.0,86951.0,-16296.5,2
2024-05-09,2024,1,11,-1.0,86950.0,-16297.5,0
2024-05-10,2024,1,11,31.0,86981.0,-16266.5,2
2024-05-12,2024,1,11,24.0,87005.0,-16242.5,2
2024-05-13,2024,1,11,153.0,87158.0,-16089.5,2
2024-05-14,2024,1,11,533.0,87691.0,-15556.5,2
2024-05-15,2024,1,11,1216.0,88907.0,-14340.5,2
2024-05-16,2024,1,11,-279.0,88628.0,-14619.5,2
2024-05-17,2024,1,11,-70.0,88558.0,-14689.5,2
2024-05-19,2024,1,11,133.0,88691.0,-14556.5,2
2024-05-20,2024,1,11,339.0,89030.0,-14217.5,2
2024-05-21,2024,1,11,247.0,89277.0,-13970.5,2
2024-05-22,2024,1,11,245.0,89522.0,-13725.5,2
2024-05-23,2024,1,11,-695.0,88827.0,-14420.5,2
2024-05-24,2024,1,11,736.0,89563.0,-13684.5,4
2024-05-26,2024,1,11,-282.0,89281.0,-13966.5,4
2024-05-27,2024,1,11,574.0,89855.0,-13392.5,4
2024-05-28,2024,1,11,174.0,90029.0,-13218.5,4
2024-05-29,2024,1,11,-1652.0,88377.0,-14870.5,4
2024-05-30,2024,1,11,-1316.0,87061.0,-16186.5,4
2024-05-31,2024,1,11,102.0,87163.0,-16084.5,4
2024-06-02,2024,1,11,162.0,87325.0,-15922.5,4
2024-06-03,2024,1,11,468.0,87793.0,-15454.5,4
2024-06-04,2024,1,11,698.0,88491.0,-14756.5,4
2024-06-05,2024,1,11,2828.0,91319.0,-11928.5,4
2024-06-06,2024,1,11,-130.0,91189.0,-12058.5,4
2024-06-07,2024,1,11,-388.0,90801.0,-12446.5,7
2024-06-09,2024,1,11,-56.0,90745.0,-12502.5,7
2024-06-10,2024,1,11,808.5,91553.5,-11694.0,7
2024-06-11,2024,1,11,2408.0,93961.5,-9286.0,7
2024-06-12,2024,1,11,4809.0,98770.5,-4477.0,7
2024-06-13,2024,1,11,255.5,99026.0,-4221.5,7
2024-06-14,2024,1,11,1088.5,100114.5,-3133.0,7
2024-06-16,2024,1,11,213.5,100328.0,-2919.5,7
2024-06-17,2024,1,11,6909.0,107237.0,0.0,7
2024-06-18,2024,1,11,255.5,107492.5,0.0,7
2024-06-19,2024,1,11,178.5,107671.0,0.0,7
2024-06-20,2024,1,11,-2331.0,105340.0,-2331.0,7
2024-06-21,2024,1,11,-730.0,104610.0,-3061.0,10
2024-06-23,2024,1,11,-15.0,104595.0,-3076.0,10
2024-06-24,2024,1,11,-4730.0,99865.0,-7806.0,10
2024-06-25,2024,1,11,3880.0,103745.0,-3926.0,10
2024-06-26,2024,1,11,-940.0,102805.0,-4866.0,10
2024-06-27,2024,1,11,3535.0,106340.0,-1331.0,10
2024-06-28,2024,1,11,-2570.0,103770.0,-3901.0,10
2024-06-30,2024,1,11,-420.0,103350.0,-4321.0,10
2024-07-01,2024,1,11,1460.0,104810.0,-2861.0,10
2024-07-02,2024,1,11,4375.0,109185.0,0.0,10
2024-07-03,2024,1,11,3290.0,112475.0,0.0,10
2024-07-04,2024,1,11,-235.0,112240.0,-235.0,10
2024-07-05,2024,1,11,3921.5,116161.5,0.0,11
2024-07-07,2024,1,11,5.5,116167.0,0.0,11
2024-07-08,2024,1,11,3250.5,119417.5,0.0,11
2024-07-09,2024,1,11,-896.5,118521.0,-896.5,11
2024-07-10,2024,1,11,4042.5,122563.5,0.0,11
2024-07-11,2024,1,11,-10268.5,112295.0,-10268.5,11
2024-07-12,2024,1,11,2755.5,115050.5,-7513.0,11
2024-07-14,2024,1,11,445.5,115496.0,-7067.5,11
2024-07-15,2024,1,11,1578.5,117074.5,-5489.0,11
2024-07-16,2024,1,11,-1463.0,115611.5,-6952.0,11
2024-07-17,2024,1,11,-11148.5,104463.0,-18100.5,11
2024-07-18,2024,1,11,-22.0,104441.0,-18122.5,0
2024-07-19,2024,1,11,0.0,104441.0,-18122.5,0
2024-07-21,2024,1,11,0.0,104441.0,-18122.5,0
2024-07-22,2024,1,11,0.0,104441.0,-18122.5,0
2024-07-23,2024,1,11,0.0,104441.0,-18122.5,0
2024-07-24,2024,1,11,0.0,104441.0,-18122.5,0
2024-07-25,2024,1,11,0.0,104441.0,-18122.5,0
2024-07-26,2024,1,11,0.0,104441.0,-18122.5,0
2024-07-28,2024,1,11,0.0,104441.0,-18122.5,0
2024-07-29,2024,1,11,0.0,104441.0,-18122.5,0
2024-07-30,2024,1,11,0.0,104441.0,-18122.5,0
2024-07-31,2024,1,11,0.0,104441.0,-18122.5,0
2024-08-01,2024,1,11,0.0,104441.0,-18122.5,0
2024-08-02,2024,1,11,0.0,104441.0,-18122.5,0
2024-08-04,2024,1,11,0.0,104441.0,-18122.5,0
2024-08-05,2024,1,11,0.0,104441.0,-18122.5,0
2024-08-06,2024,1,11,0.0,104441.0,-18122.5,0
2024-08-07,2024,1,11,0.0,104441.0,-18122.5,0
2024-08-08,2024,1,11,0.0,104441.0,-18122.5,0
2024-08-09,2024,1,11,0.0,104441.0,-18122.5,0
2024-08-11,2024,1,11,0.0,104441.0,-18122.5,0
2024-08-12,2024,1,11,0.0,104441.0,-18122.5,0
2024-08-13,2024,1,11,0.0,104441.0,-18122.5,0
2024-08-14,2024,1,11,0.0,104441.0,-18122.5,0
2024-08-15,2024,1,11,0.0,104441.0,-18122.5,0
2024-08-16,2024,1,11,0.0,104441.0,-18122.5,0
2024-08-18,2024,1,11,0.0,104441.0,-18122.5,0
2024-08-19,2024,1,11,0.0,104441.0,-18122.5,0
2024-08-20,2024,1,11,0.0,104441.0,-18122.5,0
2024-08-21,2024,1,11,0.0,104441.0,-18122.5,0
2024-08-22,2024,1,11,0.0,104441.0,-18122.5,0
2024-08-23,2024,1,11,0.0,104441.0,-18122.5,0
2024-08-25,2024,1,11,0.0,104441.0,-18122.5,0
2024-08-26,2024,1,11,0.0,104441.0,-18122.5,0
2024-08-27,2024,1,11,0.0,104441.0,-18122.5,0
2024-08-28,2024,1,11,0.0,104441.0,-18122.5,0
2024-08-29,2024,1,11,0.0,104441.0,-18122.5,0
2024-08-30,2024,1,11,0.0,104441.0,-18122.5,0
2024-09-01,2024,1,11,0.0,104441.0,-18122.5,0
2024-09-02,2024,1,11,0.0,104441.0,-18122.5,0
2024-09-03,2024,1,11,0.0,104441.0,-18122.5,0
2024-09-04,2024,1,11,0.0,104441.0,-18122.5,0
2024-09-05,2024,1,11,0.0,104441.0,-18122.5,0
2024-09-06,2024,1,11,0.0,104441.0,-18122.5,0
2024-09-08,2024,1,11,0.0,104441.0,-18122.5,0
2024-09-09,2024,1,11,0.0,104441.0,-18122.5,0
2024-09-10,2024,1,11,0.0,104441.0,-18122.5,0
2024-09-11,2024,1,11,0.0,104441.0,-18122.5,0
2024-09-12,2024,1,11,0.0,104441.0,-18122.5,0
2024-09-13,2024,1,11,0.0,104441.0,-18122.5,0
2024-09-15,2024,1,11,0.0,104441.0,-18122.5,0
2024-09-16,2024,1,11,0.0,104441.0,-18122.5,0
2024-09-17,2024,1,11,0.0,104441.0,-18122.5,0
2024-09-18,2024,1,11,0.0,104441.0,-18122.5,0
2024-09-19,2024,1,11,0.0,104441.0,-18122.5,0
2024-09-20,2024,1,11,0.0,104441.0,-18122.5,0
2024-09-22,2024,1,11,0.0,104441.0,-18122.5,0
2024-09-23,2024,1,11,0.0,104441.0,-18122.5,0
2024-09-24,2024,1,11,0.0,104441.0,-18122.5,0
2024-09-25,2024,1,11,0.0,104441.0,-18122.5,0
2024-09-26,2024,1,11,0.0,104441.0,-18122.5,0
2024-09-27,2024,1,11,0.0,104441.0,-18122.5,0
2024-09-29,2024,1,11,0.0,104441.0,-18122.5,0
2024-09-30,2024,1,11,0.0,104441.0,-18122.5,0
2024-10-01,2024,1,11,0.0,104441.0,-18122.5,0
2024-10-02,2024,1,11,0.0,104441.0,-18122.5,0
2024-10-03,2024,1,11,0.0,104441.0,-18122.5,0
2024-10-04,2024,1,11,0.0,104441.0,-18122.5,0
2024-10-06,2024,1,11,0.0,104441.0,-18122.5,0
2024-10-07,2024,1,11,0.0,104441.0,-18122.5,0
2024-10-08,2024,1,11,0.0,104441.0,-18122.5,0
2024-10-09,2024,1,11,0.0,104441.0,-18122.5,0
2024-10-10,2024,1,11,0.0,104441.0,-18122.5,0
2024-10-11,2024,1,11,0.0,104441.0,-18122.5,0
2024-10-13,2024,1,11,0.0,104441.0,-18122.5,0
2024-10-14,2024,1,11,0.0,104441.0,-18122.5,0
2024-10-15,2024,1,11,0.0,104441.0,-18122.5,0
2024-10-16,2024,1,11,0.0,104441.0,-18122.5,0
2024-10-17,2024,1,11,0.0,104441.0,-18122.5,0
2024-10-18,2024,1,11,0.0,104441.0,-18122.5,0
2024-10-20,2024,1,11,0.0,104441.0,-18122.5,0
2024-10-21,2024,1,11,0.0,104441.0,-18122.5,0
2024-10-22,2024,1,11,0.0,104441.0,-18122.5,0
2024-10-23,2024,1,11,0.0,104441.0,-18122.5,0
2024-10-24,2024,1,11,0.0,104441.0,-18122.5,0
2024-10-25,2024,1,11,0.0,104441.0,-18122.5,0
2024-10-27,2024,1,11,0.0,104441.0,-18122.5,0
2024-10-28,2024,1,11,0.0,104441.0,-18122.5,0
2024-10-29,2024,1,11,0.0,104441.0,-18122.5,0
2024-10-30,2024,1,11,0.0,104441.0,-18122.5,0
2024-10-31,2024,1,11,0.0,104441.0,-18122.5,0
2024-11-01,2024,1,11,0.0,104441.0,-18122.5,0
2024-11-03,2024,1,11,0.0,104441.0,-18122.5,0
2024-11-04,2024,1,11,0.0,104441.0,-18122.5,0
2024-11-05,2024,1,11,0.0,104441.0,-18122.5,0
2024-11-06,2024,1,11,0.0,104441.0,-18122.5,0
2024-11-07,2024,1,11,0.0,104441.0,-18122.5,0
2024-11-08,2024,1,11,0.0,104441.0,-18122.5,0
2024-11-10,2024,1,11,0.0,104441.0,-18122.5,0
2024-11-11,2024,1,11,0.0,104441.0,-18122.5,0
2024-11-12,2024,1,11,0.0,104441.0,-18122.5,0
2024-11-13,2024,1,11,0.0,104441.0,-18122.5,0
2024-11-14,2024,1,11,0.0,104441.0,-18122.5,0
2024-11-15,2024,1,11,0.0,104441.0,-18122.5,0
2024-11-17,2024,1,11,0.0,104441.0,-18122.5,0
2024-11-18,2024,1,11,0.0,104441.0,-18122.5,0
2024-11-19,2024,1,11,0.0,104441.0,-18122.5,0
2024-11-20,2024,1,11,0.0,104441.0,-18122.5,0
2024-11-21,2024,1,11,0.0,104441.0,-18122.5,0
2024-11-22,2024,1,11,0.0,104441.0,-18122.5,0
2024-11-24,2024,1,11,0.0,104441.0,-18122.5,0
2024-11-25,2024,1,11,0.0,104441.0,-18122.5,0
2024-11-26,2024,1,11,0.0,104441.0,-18122.5,0
2024-11-27,2024,1,11,0.0,104441.0,-18122.5,0
2024-11-28,2024,1,11,0.0,104441.0,-18122.5,0
2024-11-29,2024,1,11,0.0,104441.0,-18122.5,0
2024-12-01,2024,1,11,0.0,104441.0,-18122.5,0
2024-12-02,2024,1,11,0.0,104441.0,-18122.5,0
2024-12-03,2024,1,11,0.0,104441.0,-18122.5,0
2024-12-04,2024,1,11,0.0,104441.0,-18122.5,0
2024-12-05,2024,1,11,0.0,104441.0,-18122.5,0
2024-12-06,2024,1,11,0.0,104441.0,-18122.5,0
2024-12-08,2024,1,11,0.0,104441.0,-18122.5,0
2024-12-09,2024,1,11,0.0,104441.0,-18122.5,0
2024-12-10,2024,1,11,0.0,104441.0,-18122.5,0
2024-12-11,2024,1,11,0.0,104441.0,-18122.5,0
2024-12-12,2024,1,11,0.0,104441.0,-18122.5,0
2024-12-13,2024,1,11,0.0,104441.0,-18122.5,0
2024-12-15,2024,1,11,0.0,104441.0,-18122.5,0
2024-12-16,2024,1,11,0.0,104441.0,-18122.5,0
2024-12-17,2024,1,11,0.0,104441.0,-18122.5,0
2024-12-18,2024,1,11,0.0,104441.0,-18122.5,0
2024-12-19,2024,1,11,0.0,104441.0,-18122.5,0
2024-12-20,2024,1,11,0.0,104441.0,-18122.5,0
2024-12-22,2024,1,11,0.0,104441.0,-18122.5,0
2024-12-23,2024,1,11,0.0,104441.0,-18122.5,0
2024-12-24,2024,1,11,0.0,104441.0,-18122.5,0
2024-12-25,2024,1,11,0.0,104441.0,-18122.5,0
2024-12-26,2024,1,11,0.0,104441.0,-18122.5,0
2024-12-27,2024,1,11,0.0,104441.0,-18122.5,0
2024-12-29,2024,1,11,0.0,104441.0,-18122.5,0
2024-12-30,2024,1,11,0.0,104441.0,-18122.5,0
2024-12-31,2024,1,11,0.0,104441.0,-18122.5,0
2025-01-01,2025,1,11,0.0,104441.0,-18122.5,0
2025-01-02,2025,1,11,0.0,104441.0,-18122.5,0
2025-01-03,2025,1,11,0.0,104441.0,-18122.5,0
2025-01-05,2025,1,11,0.0,104441.0,-18122.5,0
2025-01-06,2025,1,11,0.0,104441.0,-18122.5,0
2025-01-07,2025,1,11,0.0,104441.0,-18122.5,0
2025-01-08,2025,1,11,0.0,104441.0,-18122.5,0
2025-01-09,2025,1,11,0.0,104441.0,-18122.5,0
2025-01-10,2025,1,11,0.0,104441.0,-18122.5,0
2025-01-12,2025,1,11,0.0,104441.0,-18122.5,0
2025-01-13,2025,1,11,0.0,104441.0,-18122.5,0
2025-01-14,2025,1,11,0.0,104441.0,-18122.5,0
2025-01-15,2025,1,11,0.0,104441.0,-18122.5,0
2025-01-16,2025,1,11,0.0,104441.0,-18122.5,0
2025-01-17,2025,1,11,0.0,104441.0,-18122.5,0
2025-01-19,2025,1,11,0.0,104441.0,-18122.5,0
2025-01-20,2025,1,11,0.0,104441.0,-18122.5,0
2025-01-21,2025,1,11,0.0,104441.0,-18122.5,0
2025-01-22,2025,1,11,0.0,104441.0,-18122.5,0
2025-01-23,2025,1,11,181.0,104622.0,-17941.5,2
2025-01-24,2025,1,11,-409.0,104213.0,-18350.5,2
2025-01-26,2025,1,11,-539.0,103674.0,-18889.5,0
2025-01-27,2025,1,11,0.0,103674.0,-18889.5,0
2025-01-28,2025,1,11,0.0,103674.0,-18889.5,0
2025-01-29,2025,1,11,0.0,103674.0,-18889.5,0
2025-01-30,2025,1,11,0.0,103674.0,-18889.5,0
2025-01-31,2025,1,11,0.0,103674.0,-18889.5,0
2025-02-02,2025,1,11,0.0,103674.0,-18889.5,0
2025-02-03,2025,1,11,0.0,103674.0,-18889.5,0
2025-02-04,2025,1,11,0.0,103674.0,-18889.5,0
2025-02-05,2025,1,11,0.0,103674.0,-18889.5,0
2025-02-06,2025,1,11,0.0,103674.0,-18889.5,0
2025-02-07,2025,1,11,0.0,103674.0,-18889.5,0
2025-02-09,2025,1,11,0.0,103674.0,-18889.5,0
2025-02-10,2025,1,11,0.0,103674.0,-18889.5,0
2025-02-11,2025,1,11,0.0,103674.0,-18889.5,0
2025-02-12,2025,1,11,0.0,103674.0,-18889.5,0
2025-02-13,2025,1,11,0.0,103674.0,-18889.5,0
2025-02-14,2025,1,11,473.0,104147.0,-18416.5,2
2025-02-16,2025,1,11,34.0,104181.0,-18382.5,2
2025-02-17,2025,1,11,36.0,104217.0,-18346.5,2
2025-02-18,2025,1,11,120.0,104337.0,-18226.5,2
2025-02-19,2025,1,11,-132.0,104205.0,-18358.5,2
2025-02-20,2025,1,11,-224.0,103981.0,-18582.5,2
2025-02-21,2025,1,11,-2008.0,101973.0,-20590.5,2
2025-02-23,2025,1,11,165.0,102138.0,-20425.5,0
2025-02-24,2025,1,11,0.0,102138.0,-20425.5,0
2025-02-25,2025,1,11,0.0,102138.0,-20425.5,0
2025-02-26,2025,1,11,0.0,102138.0,-20425.5,0
2025-02-27,2025,1,11,0.0,102138.0,-20425.5,0
2025-02-28,2025,1,11,0.0,102138.0,-20425.5,0
2025-03-02,2025,1,11,0.0,102138.0,-20425.5,0
2025-03-03,2025,1,11,0.0,102138.0,-20425.5,0
2025-03-04,2025,1,11,0.0,102138.0,-20425.5,0
2025-03-05,2025,1,11,0.0,102138.0,-20425.5,0
2025-03-06,2025,1,11,0.0,102138.0,-20425.5,0
2025-03-07,2025,1,11,0.0,102138.0,-20425.5,0
2025-03-09,2025,1,11,0.0,102138.0,-20425.5,0
2025-03-10,2025,1,11,0.0,102138.0,-20425.5,0
2025-03-11,2025,1,11,0.0,102138.0,-20425.5,0
2025-03-12,2025,1,11,0.0,102138.0,-20425.5,0
2025-03-13,2025,1,11,0.0,102138.0,-20425.5,0
2025-03-14,2025,1,11,0.0,102138.0,-20425.5,0
2025-03-16,2025,1,11,0.0,102138.0,-20425.5,0
2025-03-17,2025,1,11,0.0,102138.0,-20425.5,0
2025-03-18,2025,1,11,0.0,102138.0,-20425.5,0
2025-03-19,2025,1,11,0.0,102138.0,-20425.5,0
2025-03-20,2025,1,11,0.0,102138.0,-20425.5,0
2025-03-21,2025,1,11,0.0,102138.0,-20425.5,0
2025-03-23,2025,1,11,0.0,102138.0,-20425.5,0
2025-03-24,2025,1,11,0.0,102138.0,-20425.5,0
2025-03-25,2025,1,11,0.0,102138.0,-20425.5,0
2025-03-26,2025,1,11,0.0,102138.0,-20425.5,0
2025-03-27,2025,1,11,0.0,102138.0,-20425.5,0
2025-03-28,2025,1,11,0.0,102138.0,-20425.5,0
2025-03-30,2025,1,11,0.0,102138.0,-20425.5,0
2025-03-31,2025,1,11,0.0,102138.0,-20425.5,0
2025-04-01,2025,1,11,0.0,102138.0,-20425.5,0
2025-04-02,2025,1,11,0.0,102138.0,-20425.5,0
2025-04-03,2025,1,11,0.0,102138.0,-20425.5,0
2025-04-04,2025,1,11,0.0,102138.0,-20425.5,0
2025-04-06,2025,1,11,0.0,102138.0,-20425.5,0
2025-04-07,2025,1,11,0.0,102138.0,-20425.5,0
2025-04-08,2025,1,11,0.0,102138.0,-20425.5,0
2025-04-09,2025,1,11,0.0,102138.0,-20425.5,0
2025-04-10,2025,1,11,0.0,102138.0,-20425.5,0
2025-04-11,2025,1,11,0.0,102138.0,-20425.5,0
2025-04-13,2025,1,11,0.0,102138.0,-20425.5,0
2025-04-14,2025,1,11,0.0,102138.0,-20425.5,0
2025-04-15,2025,1,11,0.0,102138.0,-20425.5,0
2025-04-16,2025,1,11,0.0,102138.0,-20425.5,0
2025-04-17,2025,1,11,0.0,102138.0,-20425.5,0
2025-04-20,2025,1,11,0.0,102138.0,-20425.5,0
2025-04-21,2025,1,11,0.0,102138.0,-20425.5,0
2025-04-22,2025,1,11,0.0,102138.0,-20425.5,0
2025-04-23,2025,1,11,0.0,102138.0,-20425.5,0
2025-04-24,2025,1,11,0.0,102138.0,-20425.5,0
2025-04-25,2025,1,11,0.0,102138.0,-20425.5,0
2025-04-27,2025,1,11,0.0,102138.0,-20425.5,0
2025-04-28,2025,1,11,0.0,102138.0,-20425.5,0
2025-04-29,2025,1,11,0.0,102138.0,-20425.5,0
2025-04-30,2025,1,11,0.0,102138.0,-20425.5,0
2025-05-01,2025,1,11,0.0,102138.0,-20425.5,0
2025-05-02,2025,1,11,0.0,102138.0,-20425.5,0
2025-05-04,2025,1,11,0.0,102138.0,-20425.5,0
2025-05-05,2025,1,11,0.0,102138.0,-20425.5,0
2025-05-06,2025,1,11,0.0,102138.0,-20425.5,0
2025-05-07,2025,1,11,0.0,102138.0,-20425.5,0
2025-05-08,2025,1,11,0.0,102138.0,-20425.5,0
2025-05-09,2025,1,11,0.0,102138.0,-20425.5,0
2025-05-11,2025,1,11,0.0,102138.0,-20425.5,0
2025-05-12,2025,1,11,0.0,102138.0,-20425.5,0
2025-05-13,2025,1,11,0.0,102138.0,-20425.5,0
2025-05-14,2025,1,11,0.0,102138.0,-20425.5,0
2025-05-15,2025,1,11,0.0,102138.0,-20425.5,0
2025-05-16,2025,1,11,0.0,102138.0,-20425.5,0
2025-05-18,2025,1,11,0.0,102138.0,-20425.5,0
2025-05-19,2025,1,11,0.0,102138.0,-20425.5,0
2025-05-20,2025,1,11,0.0,102138.0,-20425.5,0
2025-05-21,2025,1,11,0.0,102138.0,-20425.5,0
2025-05-22,2025,1,11,0.0,102138.0,-20425.5,0
2025-05-23,2025,1,11,0.0,102138.0,-20425.5,0
2025-05-25,2025,1,11,0.0,102138.0,-20425.5,0
2025-05-26,2025,1,11,0.0,102138.0,-20425.5,0
2025-05-27,2025,1,11,0.0,102138.0,-20425.5,0
2025-05-28,2025,1,11,0.0,102138.0,-20425.5,0
2025-05-29,2025,1,11,0.0,102138.0,-20425.5,0
2025-05-30,2025,1,11,0.0,102138.0,-20425.5,0
2025-06-01,2025,1,11,0.0,102138.0,-20425.5,0
2025-06-02,2025,1,11,0.0,102138.0,-20425.5,0
2025-06-03,2025,1,11,0.0,102138.0,-20425.5,0
2025-06-04,2025,1,11,0.0,102138.0,-20425.5,0
2025-06-05,2025,1,11,0.0,102138.0,-20425.5,0
2025-06-06,2025,1,11,0.0,102138.0,-20425.5,0
2025-06-08,2025,1,11,0.0,102138.0,-20425.5,0
2025-06-09,2025,1,11,0.0,102138.0,-20425.5,0
2025-06-10,2025,1,11,0.0,102138.0,-20425.5,0
2025-06-11,2025,1,11,0.0,102138.0,-20425.5,0
2025-06-12,2025,1,11,0.0,102138.0,-20425.5,0
2025-06-13,2025,1,11,0.0,102138.0,-20425.5,0
2025-06-15,2025,1,11,0.0,102138.0,-20425.5,0
2025-06-16,2025,1,11,0.0,102138.0,-20425.5,0
2025-06-17,2025,1,11,0.0,102138.0,-20425.5,0
2025-06-18,2025,1,11,0.0,102138.0,-20425.5,0
2025-06-19,2025,1,11,0.0,102138.0,-20425.5,0
2025-06-20,2025,1,11,0.0,102138.0,-20425.5,0
2025-06-22,2025,1,11,0.0,102138.0,-20425.5,0
2025-06-23,2025,1,11,0.0,102138.0,-20425.5,0
2025-06-24,2025,1,11,0.0,102138.0,-20425.5,0
2025-06-25,2025,1,11,0.0,102138.0,-20425.5,0
2025-06-26,2025,1,11,0.0,102138.0,-20425.5,0
2025-06-27,2025,1,11,0.0,102138.0,-20425.5,0
2025-06-29,2025,1,11,0.0,102138.0,-20425.5,0
2025-06-30,2025,1,11,0.0,102138.0,-20425.5,0
2025-07-01,2025,1,11,0.0,102138.0,-20425.5,0
2025-07-02,2025,1,11,0.0,102138.0,-20425.5,0
2025-07-03,2025,1,11,0.0,102138.0,-20425.5,0
2025-07-04,2025,1,11,0.0,102138.0,-20425.5,0
2025-07-06,2025,1,11,0.0,102138.0,-20425.5,0
2025-07-07,2025,1,11,0.0,102138.0,-20425.5,0
2025-07-08,2025,1,11,0.0,102138.0,-20425.5,0
2025-07-09,2025,1,11,0.0,102138.0,-20425.5,0
2025-07-10,2025,1,11,0.0,102138.0,-20425.5,0
2025-07-11,2025,1,11,0.0,102138.0,-20425.5,0
2025-07-13,2025,1,11,0.0,102138.0,-20425.5,0
2025-07-14,2025,1,11,0.0,102138.0,-20425.5,0
2025-07-15,2025,1,11,0.0,102138.0,-20425.5,0
2025-07-16,2025,1,11,0.0,102138.0,-20425.5,0
2025-07-17,2025,1,11,0.0,102138.0,-20425.5,0
2025-07-18,2025,1,11,0.0,102138.0,-20425.5,0
2025-07-20,2025,1,11,0.0,102138.0,-20425.5,0
2025-07-21,2025,1,11,0.0,102138.0,-20425.5,0
2025-07-22,2025,1,11,0.0,102138.0,-20425.5,0
2025-07-23,2025,1,11,0.0,102138.0,-20425.5,0
2025-07-24,2025,1,11,0.0,102138.0,-20425.5,0
2025-07-25,2025,1,11,0.0,102138.0,-20425.5,0
2025-07-27,2025,1,11,0.0,102138.0,-20425.5,0
2025-07-28,2025,1,11,0.0,102138.0,-20425.5,0
2025-07-29,2025,1,11,0.0,102138.0,-20425.5,0
2025-07-30,2025,1,11,0.0,102138.0,-20425.5,0
2025-07-31,2025,1,11,0.0,102138.0,-20425.5,0
2025-08-01,2025,1,11,0.0,102138.0,-20425.5,0
2025-08-03,2025,1,11,0.0,102138.0,-20425.5,0
2025-08-04,2025,1,11,0.0,102138.0,-20425.5,0
2025-08-05,2025,1,11,0.0,102138.0,-20425.5,0
2025-08-06,2025,1,11,0.0,102138.0,-20425.5,0
2025-08-07,2025,1,11,0.0,102138.0,-20425.5,0
2025-08-08,2025,1,11,0.0,102138.0,-20425.5,0
2025-08-10,2025,1,11,-238.0,101900.0,-20663.5,2
2025-08-11,2025,1,11,-3.0,101897.0,-20666.5,0
2025-08-12,2025,1,11,0.0,101897.0,-20666.5,0
2025-08-13,2025,1,11,-42.0,101855.0,-20708.5,2
2025-08-14,2025,1,11,-242.0,101613.0,-20950.5,2
2025-08-15,2025,1,11,-369.0,101244.0,-21319.5,2
2025-08-17,2025,1,11,218.0,101462.0,-21101.5,2
2025-08-18,2025,1,11,-185.0,101277.0,-21286.5,2
2025-08-19,2025,1,11,-1531.0,99746.0,-22817.5,2
2025-08-20,2025,1,11,3.0,99749.0,-22814.5,0
2025-08-21,2025,1,11,0.0,99749.0,-22814.5,0
2025-08-22,2025,1,11,0.0,99749.0,-22814.5,0
2025-08-24,2025,1,11,0.0,99749.0,-22814.5,0
2025-08-25,2025,1,11,0.0,99749.0,-22814.5,0
2025-08-26,2025,1,11,0.0,99749.0,-22814.5,0
2025-08-27,2025,1,11,0.0,99749.0,-22814.5,0
2025-08-28,2025,1,11,0.0,99749.0,-22814.5,0
2025-08-29,2025,1,11,0.0,99749.0,-22814.5,0
2025-08-31,2025,1,11,0.0,99749.0,-22814.5,0
2025-09-01,2025,1,11,0.0,99749.0,-22814.5,0
2025-09-02,2025,1,11,0.0,99749.0,-22814.5,0
2025-09-03,2025,1,11,0.0,99749.0,-22814.5,0
2025-09-04,2025,1,11,0.0,99749.0,-22814.5,0
2025-09-05,2025,1,11,0.0,99749.0,-22814.5,0
2025-09-07,2025,1,11,0.0,99749.0,-22814.5,0
2025-09-08,2025,1,11,117.0,99866.0,-22697.5,2
2025-09-09,2025,1,11,314.0,100180.0,-22383.5,2
2025-09-10,2025,1,11,60.0,100240.0,-22323.5,2
2025-09-11,2025,1,11,474.0,100714.0,-21849.5,2
2025-09-12,2025,1,11,381.0,101095.0,-21468.5,2
2025-09-14,2025,1,11,-14.0,101081.0,-21482.5,2
2025-09-15,2025,1,11,776.0,101857.0,-20706.5,2
2025-09-16,2025,1,11,952.0,102809.0,-19754.5,2
2025-09-17,2025,1,11,164.0,102973.0,-19590.5,2
2025-09-18,2025,1,11,624.0,103597.0,-18966.5,2
2025-09-19,2025,1,11,554.0,104151.0,-18412.5,4
2025-09-21,2025,1,11,-80.0,104071.0,-18492.5,4
2025-09-22,2025,1,11,1170.0,105241.0,-17322.5,4
2025-09-23,2025,1,11,-1254.0,103987.0,-18576.5,4
2025-09-24,2025,1,11,-680.0,103307.0,-19256.5,4
2025-09-25,2025,1,11,-1112.0,102195.0,-20368.5,4
2025-09-26,2025,1,11,886.0,103081.0,-19482.5,4
2025-09-28,2025,1,11,358.0,103439.0,-19124.5,4
2025-09-29,2025,1,11,414.0,103853.0,-18710.5,4
2025-09-30,2025,1,11,50.0,103903.0,-18660.5,4
2025-10-01,2025,1,11,1538.0,105441.0,-17122.5,4
2025-10-02,2025,1,11,814.0,106255.0,-16308.5,4
2025-10-03,2025,1,11,-1365.5,104889.5,-17674.0,7
2025-10-05,2025,1,11,1193.5,106083.0,-16480.5,7
2025-10-06,2025,1,11,1053.5,107136.5,-15427.0,7
2025-10-07,2025,1,11,-1519.0,105617.5,-16946.0,7
2025-10-08,2025,1,11,4837.0,110454.5,-12109.0,7
2025-10-09,2025,1,11,-616.0,109838.5,-12725.0,7
2025-10-10,2025,1,11,-16054.5,93784.0,-28779.5,7
2025-10-12,2025,1,11,4112.5,97896.5,-24667.0,0
2025-10-13,2025,1,11,0.0,97896.5,-24667.0,0
2025-10-14,2025,1,11,0.0,97896.5,-24667.0,0
2025-10-15,2025,1,11,0.0,97896.5,-24667.0,0
2025-10-16,2025,1,11,0.0,97896.5,-24667.0,0
2025-10-17,2025,1,11,0.0,97896.5,-24667.0,0
2025-10-19,2025,1,11,0.0,97896.5,-24667.0,0
2025-10-20,2025,1,11,0.0,97896.5,-24667.0,0
2025-10-21,2025,1,11,0.0,97896.5,-24667.0,0
2025-10-22,2025,1,11,0.0,97896.5,-24667.0,0
2025-10-23,2025,1,11,0.0,97896.5,-24667.0,0
2025-10-24,2025,1,11,0.0,97896.5,-24667.0,0
2025-10-26,2025,1,11,0.0,97896.5,-24667.0,0
2025-10-27,2025,1,11,1111.0,99007.5,-23556.0,2
2025-10-28,2025,1,11,757.0,99764.5,-22799.0,2
2025-10-29,2025,1,11,207.0,99971.5,-22592.0,2
2025-10-30,2025,1,11,-261.0,99710.5,-22853.0,2
2025-10-31,2025,1,11,-747.0,98963.5,-23600.0,2
2025-11-02,2025,1,11,388.0,99351.5,-23212.0,2
2025-11-03,2025,1,11,-47.0,99304.5,-23259.0,2
2025-11-04,2025,1,11,-2261.0,97043.5,-25520.0,2
2025-11-05,2025,1,11,2.0,97045.5,-25518.0,0
2025-11-06,2025,1,11,-1824.0,95221.5,-27342.0,2
2025-11-07,2025,1,11,0.0,95221.5,-27342.0,0
2025-11-09,2025,1,11,0.0,95221.5,-27342.0,0
2025-11-10,2025,1,11,0.0,95221.5,-27342.0,0
2025-11-11,2025,1,11,-367.0,94854.5,-27709.0,2
2025-11-12,2025,1,11,1.0,94855.5,-27708.0,0
2025-11-13,2025,1,11,0.0,94855.5,-27708.0,0
2025-11-14,2025,1,11,0.0,94855.5,-27708.0,0
2025-11-16,2025,1,11,0.0,94855.5,-27708.0,0
2025-11-17,2025,1,11,0.0,94855.5,-27708.0,0
2025-11-18,2025,1,11,0.0,94855.5,-27708.0,0
2025-11-19,2025,1,11,0.0,94855.5,-27708.0,0
2025-11-20,2025,1,11,0.0,94855.5,-27708.0,0
2025-11-21,2025,1,11,0.0,94855.5,-27708.0,0
2025-11-23,2025,1,11,0.0,94855.5,-27708.0,0
2025-11-24,2025,1,11,0.0,94855.5,-27708.0,0
2025-11-25,2025,1,11,0.0,94855.5,-27708.0,0
2025-11-26,2025,1,11,0.0,94855.5,-27708.0,0
2025-11-27,2025,1,11,0.0,94855.5,-27708.0,0
2025-11-28,2025,1,11,0.0,94855.5,-27708.0,0
2025-11-30,2025,1,11,0.0,94855.5,-27708.0,0
2025-12-01,2025,1,11,0.0,94855.5,-27708.0,0
2025-12-02,2025,1,11,0.0,94855.5,-27708.0,0
2025-12-03,2025,1,11,0.0,94855.5,-27708.0,0
2025-12-04,2025,1,11,0.0,94855.5,-27708.0,0
2025-12-05,2025,1,11,0.0,94855.5,-27708.0,0
2025-12-07,2025,1,11,0.0,94855.5,-27708.0,0
2025-12-08,2025,1,11,0.0,94855.5,-27708.0,0
2025-12-09,2025,1,11,0.0,94855.5,-27708.0,0
2025-12-10,2025,1,11,0.0,94855.5,-27708.0,0
2025-12-11,2025,1,11,0.0,94855.5,-27708.0,0
2025-12-12,2025,1,11,0.0,94855.5,-27708.0,0
2025-12-14,2025,1,11,0.0,94855.5,-27708.0,0
2025-12-15,2025,1,11,0.0,94855.5,-27708.0,0
2025-12-16,2025,1,11,0.0,94855.5,-27708.0,0
2025-12-17,2025,1,11,0.0,94855.5,-27708.0,0
2025-12-18,2025,1,11,0.0,94855.5,-27708.0,0
2025-12-19,2025,1,11,0.0,94855.5,-27708.0,0
2025-12-21,2025,1,11,0.0,94855.5,-27708.0,0
2025-12-22,2025,1,11,0.0,94855.5,-27708.0,0
2025-12-23,2025,1,11,0.0,94855.5,-27708.0,0
2025-12-24,2025,1,11,0.0,94855.5,-27708.0,0
2025-12-25,2025,1,11,69.0,94924.5,-27639.0,2
2025-12-26,2025,1,11,-121.0,94803.5,-27760.0,2
2025-12-28,2025,1,11,48.0,94851.5,-27712.0,0
2025-12-29,2025,1,11,0.0,94851.5,-27712.0,0
2025-12-30,2025,1,11,0.0,94851.5,-27712.0,0
2025-12-31,2025,1,11,0.0,94851.5,-27712.0,0
2026-01-01,2026,1,11,0.0,94851.5,-27712.0,0
2026-01-02,2026,1,11,0.0,94851.5,-27712.0,0
2026-01-04,2026,1,11,0.0,94851.5,-27712.0,0
2026-01-05,2026,1,11,0.0,94851.5,-27712.0,0
2026-01-06,2026,1,11,0.0,94851.5,-27712.0,0
2026-01-07,2026,1,11,0.0,94851.5,-27712.0,0
2026-01-08,2026,1,11,0.0,94851.5,-27712.0,0
2026-01-09,2026,1,11,0.0,94851.5,-27712.0,0
2026-01-11,2026,1,11,-210.0,94641.5,-27922.0,2
2026-01-12,2026,1,11,7.0,94648.5,-27915.0,2
2026-01-13,2026,1,11,-19.0,94629.5,-27934.0,2
2026-01-14,2026,1,11,-1142.0,93487.5,-29076.0,2
2026-01-15,2026,1,11,0.0,93487.5,-29076.0,0
2026-01-16,2026,1,11,0.0,93487.5,-29076.0,0
2026-01-18,2026,1,11,0.0,93487.5,-29076.0,0
2026-01-19,2026,1,11,0.0,93487.5,-29076.0,0
2026-01-20,2026,1,11,0.0,93487.5,-29076.0,0
2026-01-21,2026,1,11,0.0,93487.5,-29076.0,0
2026-01-22,2026,1,11,0.0,93487.5,-29076.0,0
2026-01-23,2026,1,11,0.0,93487.5,-29076.0,0
2026-01-25,2026,1,11,0.0,93487.5,-29076.0,0
2026-01-26,2026,1,11,0.0,93487.5,-29076.0,0
2026-01-27,2026,1,11,0.0,93487.5,-29076.0,0
2026-01-28,2026,1,11,128.0,93615.5,-28948.0,2
2026-01-29,2026,1,11,-792.0,92823.5,-29740.0,2
2026-01-30,2026,1,11,-2.0,92821.5,-29742.0,0
2026-02-01,2026,1,11,0.0,92821.5,-29742.0,0
2026-02-02,2026,1,11,0.0,92821.5,-29742.0,0
2026-02-03,2026,1,11,0.0,92821.5,-29742.0,0
2026-02-04,2026,1,11,0.0,92821.5,-29742.0,0
2026-02-05,2026,1,11,0.0,92821.5,-29742.0,0
2026-02-06,2026,1,11,0.0,92821.5,-29742.0,0
2026-02-08,2026,1,11,0.0,92821.5,-29742.0,0
2026-02-09,2026,1,11,0.0,92821.5,-29742.0,0
2026-02-10,2026,1,11,0.0,92821.5,-29742.0,0
2026-02-11,2026,1,11,0.0,92821.5,-29742.0,0
2026-02-12,2026,1,11,0.0,92821.5,-29742.0,0
2026-02-13,2026,1,11,0.0,92821.5,-29742.0,0
2026-02-15,2026,1,11,0.0,92821.5,-29742.0,0
2026-02-16,2026,1,11,0.0,92821.5,-29742.0,0
2026-02-17,2026,1,11,0.0,92821.5,-29742.0,0
2026-02-18,2026,1,11,0.0,92821.5,-29742.0,0
2026-02-19,2026,1,11,0.0,92821.5,-29742.0,0
2026-02-20,2026,1,11,0.0,92821.5,-29742.0,0
2026-02-22,2026,1,11,0.0,92821.5,-29742.0,0
2026-02-23,2026,1,11,0.0,92821.5,-29742.0,0
2026-02-24,2026,1,11,0.0,92821.5,-29742.0,0
2026-02-25,2026,1,11,0.0,92821.5,-29742.0,0
2026-02-26,2026,1,11,0.0,92821.5,-29742.0,0
2026-02-27,2026,1,11,0.0,92821.5,-29742.0,0
2026-03-01,2026,1,11,0.0,92821.5,-29742.0,0
2026-03-02,2026,1,11,0.0,92821.5,-29742.0,0
2026-03-03,2026,1,11,0.0,92821.5,-29742.0,0
2026-03-04,2026,1,11,0.0,92821.5,-29742.0,0
2026-03-05,2026,1,11,0.0,92821.5,-29742.0,0
2026-03-06,2026,1,11,0.0,92821.5,-29742.0,0
2026-03-08,2026,1,11,0.0,92821.5,-29742.0,0
