date,year,bump_level,max_contracts,daily_equity_delta_usd,equity_usd,drawdown_usd,open_units
2019-05-05,2019,0,10,0.0,71269.5,0.0,0
2019-05-06,2019,0,10,0.0,71269.5,0.0,0
2019-05-07,2019,0,10,0.0,71269.5,0.0,0
2019-05-08,2019,0,10,0.0,71269.5,0.0,0
2019-05-09,2019,0,10,0.0,71269.5,0.0,0
2019-05-10,2019,0,10,0.0,71269.5,0.0,0
2019-05-12,2019,0,10,0.0,71269.5,0.0,0
2019-05-13,2019,0,10,0.0,71269.5,0.0,0
2019-05-14,2019,0,10,0.0,71269.5,0.0,0
2019-05-15,2019,0,10,0.0,71269.5,0.0,0
2019-05-16,2019,0,10,0.0,71269.5,0.0,0
2019-05-17,2019,0,10,0.0,71269.5,0.0,0
2019-05-19,2019,0,10,0.0,71269.5,0.0,0
2019-05-20,2019,0,10,0.0,71269.5,0.0,0
2019-05-21,2019,0,10,0.0,71269.5,0.0,0
2019-05-22,2019,0,10,0.0,71269.5,0.0,0
2019-05-23,2019,0,10,0.0,71269.5,0.0,0
2019-05-24,2019,0,10,0.0,71269.5,0.0,0
2019-05-26,2019,0,10,0.0,71269.5,0.0,0
2019-05-27,2019,0,10,0.0,71269.5,0.0,0
2019-05-28,2019,0,10,0.0,71269.5,0.0,0
2019-05-29,2019,0,10,0.0,71269.5,0.0,0
2019-05-30,2019,0,10,0.0,71269.5,0.0,0
2019-05-31,2019,0,10,0.0,71269.5,0.0,0
2019-06-02,2019,0,10,0.0,71269.5,0.0,0
2019-06-03,2019,0,10,0.0,71269.5,0.0,0
2019-06-04,2019,0,10,0.0,71269.5,0.0,0
2019-06-05,2019,0,10,0.0,71269.5,0.0,0
2019-06-06,2019,0,10,0.0,71269.5,0.0,0
2019-06-07,2019,0,10,0.0,71269.5,0.0,0
2019-06-09,2019,0,10,-31.5,71238.0,-31.5,3
2019-06-10,2019,0,10,0.0,71238.0,-31.5,0
2019-06-11,2019,0,10,37.5,71275.5,0.0,3
2019-06-12,2019,0,10,-145.5,71130.0,-145.5,3
2019-06-13,2019,0,10,34.5,71164.5,-111.0,3
2019-06-14,2019,0,10,-69.0,71095.5,-180.0,3
2019-06-16,2019,0,10,252.0,71347.5,0.0,3
2019-06-17,2019,0,10,220.5,71568.0,0.0,3
2019-06-18,2019,0,10,733.5,72301.5,0.0,3
2019-06-19,2019,0,10,253.5,72555.0,0.0,3
2019-06-20,2019,0,10,219.0,72774.0,0.0,3
2019-06-21,2019,0,10,-149.5,72624.5,-149.5,4
2019-06-23,2019,0,10,190.0,72814.5,0.0,4
2019-06-24,2019,0,10,-90.0,72724.5,-90.0,4
2019-06-25,2019,0,10,-1062.0,71662.5,-1152.0,4
2019-06-26,2019,0,10,220.0,71882.5,-932.0,4
2019-06-27,2019,0,10,336.0,72218.5,-596.0,4
2019-06-28,2019,0,10,226.0,72444.5,-370.0,4
2019-06-30,2019,0,10,628.0,73072.5,0.0,4
2019-07-01,2019,0,10,-200.0,72872.5,-200.0,4
2019-07-02,2019,0,10,464.0,73336.5,0.0,4
2019-07-03,2019,0,10,436.0,73772.5,0.0,4
2019-07-04,2019,0,10,114.0,73886.5,0.0,4
2019-07-05,2019,0,10,-417.0,73469.5,-417.0,5
2019-07-07,2019,0,10,-120.0,73349.5,-537.0,5
2019-07-08,2019,0,10,-487.5,72862.0,-1024.5,5
2019-07-09,2019,0,10,530.0,73392.0,-494.5,5
2019-07-10,2019,0,10,802.5,74194.5,0.0,5
2019-07-11,2019,0,10,-55.0,74139.5,-55.0,5
2019-07-12,2019,0,10,362.5,74502.0,0.0,5
2019-07-14,2019,0,10,-60.0,74442.0,-60.0,5
2019-07-15,2019,0,10,425.0,74867.0,0.0,5
2019-07-16,2019,0,10,-530.0,74337.0,-530.0,5
2019-07-17,2019,0,10,-685.0,73652.0,-1215.0,5
2019-07-18,2019,0,10,727.5,74379.5,-487.5,5
2019-07-19,2019,0,10,-1351.5,73028.0,-1839.0,6
2019-07-21,2019,0,10,384.0,73412.0,-1455.0,6
2019-07-22,2019,0,10,933.0,74345.0,-522.0,6
2019-07-23,2019,0,10,297.0,74642.0,-225.0,6
2019-07-24,2019,0,10,759.0,75401.0,0.0,6
2019-07-25,2019,0,10,-288.0,75113.0,-288.0,6
2019-07-26,2019,0,10,267.0,75380.0,-21.0,6
2019-07-28,2019,0,10,36.0,75416.0,0.0,6
2019-07-29,2019,0,10,-96.0,75320.0,-96.0,6
2019-07-30,2019,0,10,-246.0,75074.0,-342.0,6
2019-07-31,2019,0,10,-1824.0,73250.0,-2166.0,6
2019-08-01,2019,0,10,-621.0,72629.0,-2787.0,6
2019-08-02,2019,0,10,-930.0,71699.0,-3717.0,6
2019-08-04,2019,0,10,-27.0,71672.0,-3744.0,0
2019-08-05,2019,0,10,0.0,71672.0,-3744.0,0
2019-08-06,2019,0,10,0.0,71672.0,-3744.0,0
2019-08-07,2019,0,10,0.0,71672.0,-3744.0,0
2019-08-08,2019,0,10,0.0,71672.0,-3744.0,0
2019-08-09,2019,0,10,0.0,71672.0,-3744.0,0
2019-08-11,2019,0,10,0.0,71672.0,-3744.0,0
2019-08-12,2019,0,10,0.0,71672.0,-3744.0,0
2019-08-13,2019,0,10,0.0,71672.0,-3744.0,0
2019-08-14,2019,0,10,0.0,71672.0,-3744.0,0
2019-08-15,2019,0,10,0.0,71672.0,-3744.0,0
2019-08-16,2019,0,10,0.0,71672.0,-3744.0,0
2019-08-18,2019,0,10,0.0,71672.0,-3744.0,0
2019-08-19,2019,0,10,0.0,71672.0,-3744.0,0
2019-08-20,2019,0,10,0.0,71672.0,-3744.0,0
2019-08-21,2019,0,10,0.0,71672.0,-3744.0,0
2019-08-22,2019,0,10,0.0,71672.0,-3744.0,0
2019-08-23,2019,0,10,0.0,71672.0,-3744.0,0
2019-08-25,2019,0,10,0.0,71672.0,-3744.0,0
2019-08-26,2019,0,10,0.0,71672.0,-3744.0,0
2019-08-27,2019,0,10,0.0,71672.0,-3744.0,0
2019-08-28,2019,0,10,0.0,71672.0,-3744.0,0
2019-08-29,2019,0,10,0.0,71672.0,-3744.0,0
2019-08-30,2019,0,10,0.0,71672.0,-3744.0,0
2019-09-01,2019,0,10,0.0,71672.0,-3744.0,0
2019-09-02,2019,0,10,0.0,71672.0,-3744.0,0
2019-09-03,2019,0,10,0.0,71672.0,-3744.0,0
2019-09-04,2019,0,10,0.0,71672.0,-3744.0,0
2019-09-05,2019,0,10,0.0,71672.0,-3744.0,0
2019-09-06,2019,0,10,-48.0,71624.0,-3792.0,3
2019-09-08,2019,0,10,-45.0,71579.0,-3837.0,0
2019-09-09,2019,0,10,0.0,71579.0,-3837.0,0
2019-09-10,2019,0,10,0.0,71579.0,-3837.0,0
2019-09-11,2019,0,10,0.0,71579.0,-3837.0,0
2019-09-12,2019,0,10,-112.5,71466.5,-3949.5,3
2019-09-13,2019,0,10,-132.0,71334.5,-4081.5,3
2019-09-15,2019,0,10,-432.0,70902.5,-4513.5,3
2019-09-16,2019,0,10,0.0,70902.5,-4513.5,0
2019-09-17,2019,0,10,156.0,71058.5,-4357.5,3
2019-09-18,2019,0,10,-31.5,71027.0,-4389.0,3
2019-09-19,2019,0,10,126.0,71153.0,-4263.0,3
2019-09-20,2019,0,10,-571.5,70581.5,-4834.5,3
2019-09-22,2019,0,10,12.0,70593.5,-4822.5,0
2019-09-23,2019,0,10,54.0,70647.5,-4768.5,3
2019-09-24,2019,0,10,-795.0,69852.5,-5563.5,3
2019-09-25,2019,0,10,0.0,69852.5,-5563.5,0
2019-09-26,2019,0,10,0.0,69852.5,-5563.5,0
2019-09-27,2019,0,10,0.0,69852.5,-5563.5,0
2019-09-29,2019,0,10,0.0,69852.5,-5563.5,0
2019-09-30,2019,0,10,0.0,69852.5,-5563.5,0
2019-10-01,2019,0,10,0.0,69852.5,-5563.5,0
2019-10-02,2019,0,10,0.0,69852.5,-5563.5,0
2019-10-03,2019,0,10,0.0,69852.5,-5563.5,0
2019-10-04,2019,0,10,0.0,69852.5,-5563.5,0
2019-10-06,2019,0,10,0.0,69852.5,-5563.5,0
2019-10-07,2019,0,10,0.0,69852.5,-5563.5,0
2019-10-08,2019,0,10,0.0,69852.5,-5563.5,0
2019-10-09,2019,0,10,0.0,69852.5,-5563.5,0
2019-10-10,2019,0,10,0.0,69852.5,-5563.5,0
2019-10-11,2019,0,10,0.0,69852.5,-5563.5,0
2019-10-13,2019,0,10,0.0,69852.5,-5563.5,0
2019-10-14,2019,0,10,0.0,69852.5,-5563.5,0
2019-10-15,2019,0,10,0.0,69852.5,-5563.5,0
2019-10-16,2019,0,10,0.0,69852.5,-5563.5,0
2019-10-17,2019,0,10,0.0,69852.5,-5563.5,0
2019-10-18,2019,0,10,0.0,69852.5,-5563.5,0
2019-10-20,2019,0,10,0.0,69852.5,-5563.5,0
2019-10-21,2019,0,10,0.0,69852.5,-5563.5,0
2019-10-22,2019,0,10,0.0,69852.5,-5563.5,0
2019-10-23,2019,0,10,0.0,69852.5,-5563.5,0
2019-10-24,2019,0,10,0.0,69852.5,-5563.5,0
2019-10-25,2019,0,10,0.0,69852.5,-5563.5,0
2019-10-27,2019,0,10,54.0,69906.5,-5509.5,3
2019-10-28,2019,0,10,334.5,70241.0,-5175.0,3
2019-10-29,2019,0,10,-322.5,69918.5,-5497.5,3
2019-10-30,2019,0,10,385.5,70304.0,-5112.0,3
2019-10-31,2019,0,10,-202.5,70101.5,-5314.5,3
2019-11-01,2019,0,10,441.0,70542.5,-4873.5,3
2019-11-03,2019,0,10,82.5,70625.0,-4791.0,3
2019-11-04,2019,0,10,378.0,71003.0,-4413.0,3
2019-11-05,2019,0,10,-159.0,70844.0,-4572.0,3
2019-11-06,2019,0,10,-60.0,70784.0,-4632.0,3
2019-11-07,2019,0,10,204.0,70988.0,-4428.0,3
2019-11-08,2019,0,10,160.5,71148.5,-4267.5,4
2019-11-10,2019,0,10,-62.0,71086.5,-4329.5,4
2019-11-11,2019,0,10,-66.0,71020.5,-4395.5,4
2019-11-12,2019,0,10,164.0,71184.5,-4231.5,4
2019-11-13,2019,0,10,-2.0,71182.5,-4233.5,4
2019-11-14,2019,0,10,58.0,71240.5,-4175.5,4
2019-11-15,2019,0,10,418.0,71658.5,-3757.5,4
2019-11-17,2019,0,10,-108.0,71550.5,-3865.5,4
2019-11-18,2019,0,10,140.0,71690.5,-3725.5,4
2019-11-19,2019,0,10,-80.0,71610.5,-3805.5,4
2019-11-20,2019,0,10,-380.0,71230.5,-4185.5,4
2019-11-21,2019,0,10,-2.0,71228.5,-4187.5,4
2019-11-22,2019,0,10,127.5,71356.0,-4060.0,5
2019-11-24,2019,0,10,247.5,71603.5,-3812.5,5
2019-11-25,2019,0,10,687.5,72291.0,-3125.0,5
2019-11-26,2019,0,10,260.0,72551.0,-2865.0,5
2019-11-27,2019,0,10,240.0,72791.0,-2625.0,5
2019-11-28,2019,0,10,237.5,73028.5,-2387.5,5
2019-11-29,2019,0,10,-280.0,72748.5,-2667.5,5
2019-12-01,2019,0,10,97.5,72846.0,-2570.0,5
2019-12-02,2019,0,10,-1267.5,71578.5,-3837.5,5
2019-12-03,2019,0,10,-425.0,71153.5,-4262.5,5
2019-12-04,2019,0,10,290.0,71443.5,-3972.5,5
2019-12-05,2019,0,10,240.0,71683.5,-3732.5,5
2019-12-06,2019,0,10,886.5,72570.0,-2846.0,6
2019-12-08,2019,0,10,15.0,72585.0,-2831.0,6
2019-12-09,2019,0,10,-555.0,72030.0,-3386.0,6
2019-12-10,2019,0,10,33.0,72063.0,-3353.0,6
2019-12-11,2019,0,10,645.0,72708.0,-2708.0,6
2019-12-12,2019,0,10,1047.0,73755.0,-1661.0,6
2019-12-13,2019,0,10,243.0,73998.0,-1418.0,6
2019-12-15,2019,0,10,159.0,74157.0,-1259.0,6
2019-12-16,2019,0,10,759.0,74916.0,-500.0,6
2019-12-17,2019,0,10,54.0,74970.0,-446.0,6
2019-12-18,2019,0,10,225.0,75195.0,-221.0,6
2019-12-19,2019,0,10,696.0,75891.0,0.0,6
2019-12-20,2019,0,10,386.5,76277.5,0.0,7
2019-12-22,2019,0,10,168.0,76445.5,0.0,7
2019-12-23,2019,0,10,98.0,76543.5,0.0,7
2019-12-24,2019,0,10,10.5,76554.0,0.0,7
2019-12-25,2019,0,10,3.5,76557.5,0.0,7
2019-12-26,2019,0,10,1088.5,77646.0,0.0,7
2019-12-27,2019,0,10,-409.5,77236.5,-409.5,7
2019-12-29,2019,0,10,266.0,77502.5,-143.5,7
2019-12-30,2019,0,10,-878.5,76624.0,-1022.0,7
2019-12-31,2019,0,10,511.0,77135.0,-511.0,7
2020-01-01,2020,0,10,63.0,77198.0,-448.0,7
2020-01-02,2020,0,10,1718.5,78916.5,0.0,7
2020-01-03,2020,0,10,-1260.0,77656.5,-1260.0,8
2020-01-05,2020,0,10,-516.0,77140.5,-1776.0,8
2020-01-06,2020,0,10,1136.0,78276.5,-640.0,8
2020-01-07,2020,0,10,-1552.0,76724.5,-2192.0,8
2020-01-08,2020,0,10,3200.0,79924.5,0.0,8
2020-01-09,2020,0,10,1016.0,80940.5,0.0,8
2020-01-10,2020,0,10,-596.0,80344.5,-596.0,8
2020-01-12,2020,0,10,148.0,80492.5,-448.0,8
2020-01-13,2020,0,10,1880.0,82372.5,0.0,8
2020-01-14,2020,0,10,-1184.0,81188.5,-1184.0,8
2020-01-15,2020,0,10,692.0,81880.5,-492.0,8
2020-01-16,2020,0,10,1144.0,83024.5,0.0,8
2020-01-17,2020,0,10,409.0,83433.5,0.0,9
2020-01-19,2020,0,10,243.0,83676.5,0.0,9
2020-01-20,2020,0,10,-265.5,83411.0,-265.5,9
2020-01-21,2020,0,10,148.5,83559.5,-117.0,9
2020-01-22,2020,0,10,76.5,83636.0,-40.5,9
2020-01-23,2020,0,10,1575.0,85211.0,0.0,9
2020-01-24,2020,0,10,-2389.5,82821.5,-2389.5,9
2020-01-26,2020,0,10,-2209.5,80612.0,-4599.0,9
2020-01-27,2020,0,10,-643.5,79968.5,-5242.5,9
2020-01-28,2020,0,10,2182.5,82151.0,-3060.0,9
2020-01-29,2020,0,10,391.5,82542.5,-2668.5,9
2020-01-30,2020,0,10,1732.5,84275.0,-936.0,9
2020-01-31,2020,0,10,-3652.5,80622.5,-4588.5,10
2020-02-02,2020,0,10,155.0,80777.5,-4433.5,10
2020-02-03,2020,0,10,1390.0,82167.5,-3043.5,10
2020-02-04,2020,0,10,4965.0,87132.5,0.0,10
2020-02-05,2020,0,10,860.0,87992.5,0.0,10
2020-02-06,2020,0,10,1715.0,89707.5,0.0,10
2020-02-07,2020,0,10,-1335.0,88372.5,-1335.0,10
2020-02-09,2020,0,10,-875.0,87497.5,-2210.0,10
2020-02-10,2020,0,10,3380.0,90877.5,0.0,10
2020-02-11,2020,0,10,320.0,91197.5,0.0,10
2020-02-12,2020,0,10,705.0,91902.5,0.0,10
2020-02-13,2020,0,10,665.0,92567.5,0.0,10
2020-02-14,2020,0,10,420.0,92987.5,0.0,10
2020-02-16,2020,0,10,665.0,93652.5,0.0,10
2020-02-17,2020,0,10,-1225.0,92427.5,-1225.0,10
2020-02-18,2020,0,10,1230.0,93657.5,0.0,10
2020-02-19,2020,0,10,1615.0,95272.5,0.0,10
2020-02-20,2020,0,10,-3445.0,91827.5,-3445.0,10
2020-02-21,2020,0,10,-2330.0,89497.5,-5775.0,10
2020-02-23,2020,0,10,-2930.0,86567.5,-8705.0,10
2020-02-24,2020,0,10,5.0,86572.5,-8700.0,0
2020-02-25,2020,0,10,0.0,86572.5,-8700.0,0
2020-02-26,2020,0,10,0.0,86572.5,-8700.0,0
2020-02-27,2020,0,10,0.0,86572.5,-8700.0,0
2020-02-28,2020,0,10,0.0,86572.5,-8700.0,0
2020-03-01,2020,0,10,0.0,86572.5,-8700.0,0
2020-03-02,2020,0,10,0.0,86572.5,-8700.0,0
2020-03-03,2020,0,10,0.0,86572.5,-8700.0,0
2020-03-04,2020,0,10,0.0,86572.5,-8700.0,0
2020-03-05,2020,0,10,0.0,86572.5,-8700.0,0
2020-03-06,2020,0,10,0.0,86572.5,-8700.0,0
2020-03-08,2020,0,10,0.0,86572.5,-8700.0,0
2020-03-09,2020,0,10,0.0,86572.5,-8700.0,0
2020-03-10,2020,0,10,0.0,86572.5,-8700.0,0
2020-03-11,2020,0,10,0.0,86572.5,-8700.0,0
2020-03-12,2020,0,10,0.0,86572.5,-8700.0,0
2020-03-13,2020,0,10,0.0,86572.5,-8700.0,0
2020-03-15,2020,0,10,0.0,86572.5,-8700.0,0
2020-03-16,2020,0,10,0.0,86572.5,-8700.0,0
2020-03-17,2020,0,10,0.0,86572.5,-8700.0,0
2020-03-18,2020,0,10,0.0,86572.5,-8700.0,0
2020-03-19,2020,0,10,0.0,86572.5,-8700.0,0
2020-03-20,2020,0,10,0.0,86572.5,-8700.0,0
2020-03-22,2020,0,10,0.0,86572.5,-8700.0,0
2020-03-23,2020,0,10,0.0,86572.5,-8700.0,0
2020-03-24,2020,0,10,0.0,86572.5,-8700.0,0
2020-03-25,2020,0,10,0.0,86572.5,-8700.0,0
2020-03-26,2020,0,10,0.0,86572.5,-8700.0,0
2020-03-27,2020,0,10,0.0,86572.5,-8700.0,0
2020-03-29,2020,0,10,0.0,86572.5,-8700.0,0
2020-03-30,2020,0,10,0.0,86572.5,-8700.0,0
2020-03-31,2020,0,10,0.0,86572.5,-8700.0,0
2020-04-01,2020,0,10,0.0,86572.5,-8700.0,0
2020-04-02,2020,0,10,0.0,86572.5,-8700.0,0
2020-04-03,2020,0,10,0.0,86572.5,-8700.0,0
2020-04-05,2020,0,10,0.0,86572.5,-8700.0,0
2020-04-06,2020,0,10,0.0,86572.5,-8700.0,0
2020-04-07,2020,0,10,0.0,86572.5,-8700.0,0
2020-04-08,2020,0,10,0.0,86572.5,-8700.0,0
2020-04-09,2020,0,10,0.0,86572.5,-8700.0,0
2020-04-12,2020,0,10,0.0,86572.5,-8700.0,0
2020-04-13,2020,0,10,0.0,86572.5,-8700.0,0
2020-04-14,2020,0,10,0.0,86572.5,-8700.0,0
2020-04-15,2020,0,10,0.0,86572.5,-8700.0,0
2020-04-16,2020,0,10,0.0,86572.5,-8700.0,0
2020-04-17,2020,0,10,0.0,86572.5,-8700.0,0
2020-04-19,2020,0,10,0.0,86572.5,-8700.0,0
2020-04-20,2020,0,10,0.0,86572.5,-8700.0,0
2020-04-21,2020,0,10,0.0,86572.5,-8700.0,0
2020-04-22,2020,0,10,0.0,86572.5,-8700.0,0
2020-04-23,2020,0,10,0.0,86572.5,-8700.0,0
2020-04-24,2020,0,10,0.0,86572.5,-8700.0,0
2020-04-26,2020,0,10,0.0,86572.5,-8700.0,0
2020-04-27,2020,0,10,0.0,86572.5,-8700.0,0
2020-04-28,2020,0,10,0.0,86572.5,-8700.0,0
2020-04-29,2020,0,10,0.0,86572.5,-8700.0,0
2020-04-30,2020,0,10,0.0,86572.5,-8700.0,0
2020-05-01,2020,0,10,0.0,86572.5,-8700.0,0
2020-05-03,2020,0,10,0.0,86572.5,-8700.0,0
2020-05-04,2020,0,10,0.0,86572.5,-8700.0,0
2020-05-05,2020,0,10,0.0,86572.5,-8700.0,0
2020-05-06,2020,0,10,0.0,86572.5,-8700.0,0
2020-05-07,2020,0,10,0.0,86572.5,-8700.0,0
2020-05-08,2020,0,10,0.0,86572.5,-8700.0,0
2020-05-10,2020,0,10,0.0,86572.5,-8700.0,0
2020-05-11,2020,0,10,0.0,86572.5,-8700.0,0
2020-05-12,2020,0,10,0.0,86572.5,-8700.0,0
2020-05-13,2020,0,10,0.0,86572.5,-8700.0,0
2020-05-14,2020,0,10,0.0,86572.5,-8700.0,0
2020-05-15,2020,0,10,0.0,86572.5,-8700.0,0
2020-05-17,2020,0,10,0.0,86572.5,-8700.0,0
2020-05-18,2020,0,10,0.0,86572.5,-8700.0,0
2020-05-19,2020,0,10,0.0,86572.5,-8700.0,0
2020-05-20,2020,0,10,0.0,86572.5,-8700.0,0
2020-05-21,2020,0,10,0.0,86572.5,-8700.0,0
2020-05-22,2020,0,10,0.0,86572.5,-8700.0,0
2020-05-24,2020,0,10,0.0,86572.5,-8700.0,0
2020-05-25,2020,0,10,0.0,86572.5,-8700.0,0
2020-05-26,2020,0,10,0.0,86572.5,-8700.0,0
2020-05-27,2020,0,10,0.0,86572.5,-8700.0,0
2020-05-28,2020,0,10,0.0,86572.5,-8700.0,0
2020-05-29,2020,0,10,0.0,86572.5,-8700.0,0
2020-05-31,2020,0,10,0.0,86572.5,-8700.0,0
2020-06-01,2020,0,10,0.0,86572.5,-8700.0,0
2020-06-02,2020,0,10,0.0,86572.5,-8700.0,0
2020-06-03,2020,0,10,0.0,86572.5,-8700.0,0
2020-06-04,2020,0,10,0.0,86572.5,-8700.0,0
2020-06-05,2020,0,10,0.0,86572.5,-8700.0,0
2020-06-07,2020,0,10,0.0,86572.5,-8700.0,0
2020-06-08,2020,0,10,0.0,86572.5,-8700.0,0
2020-06-09,2020,0,10,0.0,86572.5,-8700.0,0
2020-06-10,2020,0,10,0.0,86572.5,-8700.0,0
2020-06-11,2020,0,10,0.0,86572.5,-8700.0,0
2020-06-12,2020,0,10,0.0,86572.5,-8700.0,0
2020-06-14,2020,0,10,0.0,86572.5,-8700.0,0
2020-06-15,2020,0,10,0.0,86572.5,-8700.0,0
2020-06-16,2020,0,10,0.0,86572.5,-8700.0,0
2020-06-17,2020,0,10,0.0,86572.5,-8700.0,0
2020-06-18,2020,0,10,0.0,86572.5,-8700.0,0
2020-06-19,2020,0,10,0.0,86572.5,-8700.0,0
2020-06-21,2020,0,10,0.0,86572.5,-8700.0,0
2020-06-22,2020,0,10,0.0,86572.5,-8700.0,0
2020-06-23,2020,0,10,0.0,86572.5,-8700.0,0
2020-06-24,2020,0,10,0.0,86572.5,-8700.0,0
2020-06-25,2020,0,10,0.0,86572.5,-8700.0,0
2020-06-26,2020,0,10,0.0,86572.5,-8700.0,0
2020-06-28,2020,0,10,0.0,86572.5,-8700.0,0
2020-06-29,2020,0,10,0.0,86572.5,-8700.0,0
2020-06-30,2020,0,10,0.0,86572.5,-8700.0,0
2020-07-01,2020,0,10,0.0,86572.5,-8700.0,0
2020-07-02,2020,0,10,0.0,86572.5,-8700.0,0
2020-07-03,2020,0,10,0.0,86572.5,-8700.0,0
2020-07-05,2020,0,10,0.0,86572.5,-8700.0,0
2020-07-06,2020,0,10,0.0,86572.5,-8700.0,0
2020-07-07,2020,0,10,0.0,86572.5,-8700.0,0
2020-07-08,2020,0,10,0.0,86572.5,-8700.0,0
2020-07-09,2020,0,10,0.0,86572.5,-8700.0,0
2020-07-10,2020,0,10,0.0,86572.5,-8700.0,0
2020-07-12,2020,0,10,0.0,86572.5,-8700.0,0
2020-07-13,2020,0,10,0.0,86572.5,-8700.0,0
2020-07-14,2020,0,10,0.0,86572.5,-8700.0,0
2020-07-15,2020,0,10,0.0,86572.5,-8700.0,0
2020-07-16,2020,0,10,0.0,86572.5,-8700.0,0
2020-07-17,2020,0,10,0.0,86572.5,-8700.0,0
2020-07-19,2020,0,10,0.0,86572.5,-8700.0,0
2020-07-20,2020,0,10,0.0,86572.5,-8700.0,0
2020-07-21,2020,0,10,0.0,86572.5,-8700.0,0
2020-07-22,2020,0,10,0.0,86572.5,-8700.0,0
2020-07-23,2020,0,10,0.0,86572.5,-8700.0,0
2020-07-24,2020,0,10,0.0,86572.5,-8700.0,0
2020-07-26,2020,0,10,0.0,86572.5,-8700.0,0
2020-07-27,2020,0,10,0.0,86572.5,-8700.0,0
2020-07-28,2020,0,10,0.0,86572.5,-8700.0,0
2020-07-29,2020,0,10,0.0,86572.5,-8700.0,0
2020-07-30,2020,0,10,0.0,86572.5,-8700.0,0
2020-07-31,2020,0,10,0.0,86572.5,-8700.0,0
2020-08-02,2020,0,10,0.0,86572.5,-8700.0,0
2020-08-03,2020,0,10,0.0,86572.5,-8700.0,0
2020-08-04,2020,0,10,0.0,86572.5,-8700.0,0
2020-08-05,2020,0,10,0.0,86572.5,-8700.0,0
2020-08-06,2020,0,10,0.0,86572.5,-8700.0,0
2020-08-07,2020,0,10,0.0,86572.5,-8700.0,0
2020-08-09,2020,0,10,0.0,86572.5,-8700.0,0
2020-08-10,2020,0,10,0.0,86572.5,-8700.0,0
2020-08-11,2020,0,10,0.0,86572.5,-8700.0,0
2020-08-12,2020,0,10,0.0,86572.5,-8700.0,0
2020-08-13,2020,0,10,0.0,86572.5,-8700.0,0
2020-08-14,2020,0,10,0.0,86572.5,-8700.0,0
2020-08-16,2020,0,10,0.0,86572.5,-8700.0,0
2020-08-17,2020,0,10,0.0,86572.5,-8700.0,0
2020-08-18,2020,0,10,0.0,86572.5,-8700.0,0
2020-08-19,2020,0,10,0.0,86572.5,-8700.0,0
2020-08-20,2020,0,10,0.0,86572.5,-8700.0,0
2020-08-21,2020,0,10,0.0,86572.5,-8700.0,0
2020-08-23,2020,0,10,0.0,86572.5,-8700.0,0
2020-08-24,2020,0,10,0.0,86572.5,-8700.0,0
2020-08-25,2020,0,10,0.0,86572.5,-8700.0,0
2020-08-26,2020,0,10,0.0,86572.5,-8700.0,0
2020-08-27,2020,0,10,0.0,86572.5,-8700.0,0
2020-08-28,2020,0,10,0.0,86572.5,-8700.0,0
2020-08-30,2020,0,10,0.0,86572.5,-8700.0,0
2020-08-31,2020,0,10,0.0,86572.5,-8700.0,0
2020-09-01,2020,0,10,0.0,86572.5,-8700.0,0
2020-09-02,2020,0,10,0.0,86572.5,-8700.0,0
2020-09-03,2020,0,10,0.0,86572.5,-8700.0,0
2020-09-04,2020,0,10,0.0,86572.5,-8700.0,0
2020-09-06,2020,0,10,0.0,86572.5,-8700.0,0
2020-09-07,2020,0,10,0.0,86572.5,-8700.0,0
2020-09-08,2020,0,10,0.0,86572.5,-8700.0,0
2020-09-09,2020,0,10,0.0,86572.5,-8700.0,0
2020-09-10,2020,0,10,0.0,86572.5,-8700.0,0
2020-09-11,2020,0,10,0.0,86572.5,-8700.0,0
2020-09-13,2020,0,10,0.0,86572.5,-8700.0,0
2020-09-14,2020,0,10,0.0,86572.5,-8700.0,0
2020-09-15,2020,0,10,0.0,86572.5,-8700.0,0
2020-09-16,2020,0,10,0.0,86572.5,-8700.0,0
2020-09-17,2020,0,10,0.0,86572.5,-8700.0,0
2020-09-18,2020,0,10,0.0,86572.5,-8700.0,0
2020-09-20,2020,0,10,0.0,86572.5,-8700.0,0
2020-09-21,2020,0,10,0.0,86572.5,-8700.0,0
2020-09-22,2020,0,10,0.0,86572.5,-8700.0,0
2020-09-23,2020,0,10,0.0,86572.5,-8700.0,0
2020-09-24,2020,0,10,0.0,86572.5,-8700.0,0
2020-09-25,2020,0,10,0.0,86572.5,-8700.0,0
2020-09-27,2020,0,10,0.0,86572.5,-8700.0,0
2020-09-28,2020,0,10,0.0,86572.5,-8700.0,0
2020-09-29,2020,0,10,0.0,86572.5,-8700.0,0
2020-09-30,2020,0,10,0.0,86572.5,-8700.0,0
2020-10-01,2020,0,10,0.0,86572.5,-8700.0,0
2020-10-02,2020,0,10,0.0,86572.5,-8700.0,0
2020-10-04,2020,0,10,0.0,86572.5,-8700.0,0
2020-10-05,2020,0,10,0.0,86572.5,-8700.0,0
2020-10-06,2020,0,10,0.0,86572.5,-8700.0,0
2020-10-07,2020,0,10,0.0,86572.5,-8700.0,0
2020-10-08,2020,0,10,0.0,86572.5,-8700.0,0
2020-10-09,2020,0,10,0.0,86572.5,-8700.0,0
2020-10-11,2020,0,10,0.0,86572.5,-8700.0,0
2020-10-12,2020,0,10,2194.5,88767.0,-6505.5,3
2020-10-13,2020,0,10,33.0,88800.0,-6472.5,3
2020-10-14,2020,0,10,-922.5,87877.5,-7395.0,3
2020-10-15,2020,0,10,-273.0,87604.5,-7668.0,3
2020-10-16,2020,0,10,-733.5,86871.0,-8401.5,3
2020-10-18,2020,0,10,478.5,87349.5,-7923.0,3
2020-10-19,2020,0,10,-948.0,86401.5,-8871.0,3
2020-10-20,2020,0,10,1.5,86403.0,-8869.5,0
2020-10-21,2020,0,10,0.0,86403.0,-8869.5,0
2020-10-22,2020,0,10,0.0,86403.0,-8869.5,0
2020-10-23,2020,0,10,0.0,86403.0,-8869.5,0
2020-10-25,2020,0,10,0.0,86403.0,-8869.5,0
2020-10-26,2020,0,10,0.0,86403.0,-8869.5,0
2020-10-27,2020,0,10,0.0,86403.0,-8869.5,0
2020-10-28,2020,0,10,0.0,86403.0,-8869.5,0
2020-10-29,2020,0,10,0.0,86403.0,-8869.5,0
2020-10-30,2020,0,10,0.0,86403.0,-8869.5,0
2020-11-01,2020,0,10,0.0,86403.0,-8869.5,0
2020-11-02,2020,0,10,0.0,86403.0,-8869.5,0
2020-11-03,2020,0,10,0.0,86403.0,-8869.5,0
2020-11-04,2020,0,10,0.0,86403.0,-8869.5,0
2020-11-05,2020,0,10,1633.5,88036.5,-7236.0,3
2020-11-06,2020,0,10,168.0,88204.5,-7068.0,3
2020-11-08,2020,0,10,826.5,89031.0,-6241.5,3
2020-11-09,2020,0,10,-2269.5,86761.5,-8511.0,3
2020-11-10,2020,0,10,-1540.5,85221.0,-10051.5,3
2020-11-11,2020,0,10,-3.0,85218.0,-10054.5,0
2020-11-12,2020,0,10,-265.5,84952.5,-10320.0,3
2020-11-13,2020,0,10,568.5,85521.0,-9751.5,3
2020-11-15,2020,0,10,595.5,86116.5,-9156.0,3
2020-11-16,2020,0,10,19.5,86136.0,-9136.5,3
2020-11-17,2020,0,10,-417.0,85719.0,-9553.5,3
2020-11-18,2020,0,10,-592.5,85126.5,-10146.0,3
2020-11-19,2020,0,10,342.0,85468.5,-9804.0,3
2020-11-20,2020,0,10,-230.5,85238.0,-10034.5,4
2020-11-22,2020,0,10,162.0,85400.0,-9872.5,4
2020-11-23,2020,0,10,164.0,85564.0,-9708.5,4
2020-11-24,2020,0,10,1394.0,86958.0,-8314.5,4
2020-11-25,2020,0,10,428.0,87386.0,-7886.5,4
2020-11-26,2020,0,10,-200.0,87186.0,-8086.5,4
2020-11-27,2020,0,10,952.0,88138.0,-7134.5,4
2020-11-29,2020,0,10,346.0,88484.0,-6788.5,4
2020-11-30,2020,0,10,256.0,88740.0,-6532.5,4
2020-12-01,2020,0,10,816.0,89556.0,-5716.5,4
2020-12-02,2020,0,10,122.0,89678.0,-5594.5,4
2020-12-03,2020,0,10,152.0,89830.0,-5442.5,4
2020-12-04,2020,0,10,202.0,90032.0,-5240.5,5
2020-12-06,2020,0,10,345.0,90377.0,-4895.5,5
2020-12-07,2020,0,10,305.0,90682.0,-4590.5,5
2020-12-08,2020,0,10,720.0,91402.0,-3870.5,5
2020-12-09,2020,0,10,-2840.0,88562.0,-6710.5,5
2020-12-10,2020,0,10,400.0,88962.0,-6310.5,5
2020-12-11,2020,0,10,-367.5,88594.5,-6678.0,5
2020-12-13,2020,0,10,500.0,89094.5,-6178.0,5
2020-12-14,2020,0,10,630.0,89724.5,-5548.0,5
2020-12-15,2020,0,10,1155.0,90879.5,-4393.0,5
2020-12-16,2020,0,10,877.5,91757.0,-3515.5,5
2020-12-17,2020,0,10,672.5,92429.5,-2843.0,5
2020-12-18,2020,0,10,202.5,92632.0,-2640.5,6
2020-12-20,2020,0,10,9.0,92641.0,-2631.5,6
2020-12-21,2020,0,10,-573.0,92068.0,-3204.5,6
2020-12-22,2020,0,10,228.0,92296.0,-2976.5,6
2020-12-23,2020,0,10,-786.0,91510.0,-3762.5,6
2020-12-24,2020,0,10,591.0,92101.0,-3171.5,6
2020-12-27,2020,0,10,363.0,92464.0,-2808.5,6
2020-12-28,2020,0,10,1410.0,93874.0,-1398.5,6
2020-12-29,2020,0,10,-87.0,93787.0,-1485.5,6
2020-12-30,2020,0,10,48.0,93835.0,-1437.5,6
2020-12-31,2020,0,10,429.0,94264.0,-1008.5,6
2021-01-03,2021,0,10,-246.0,94018.0,-1254.5,6
2021-01-04,2021,0,10,-2268.0,91750.0,-3522.5,6
2021-01-05,2021,0,10,1440.0,93190.0,-2082.5,6
2021-01-06,2021,0,10,-1464.0,91726.0,-3546.5,6
2021-01-07,2021,0,10,3186.0,94912.0,-360.5,6
2021-01-08,2021,0,10,2235.0,97147.0,0.0,6
2021-01-10,2021,0,10,-504.0,96643.0,-504.0,6
2021-01-11,2021,0,10,-1926.0,94717.0,-2430.0,6
2021-01-12,2021,0,10,-303.0,94414.0,-2733.0,6
2021-01-13,2021,0,10,879.0,95293.0,-1854.0,6
2021-01-14,2021,0,10,-636.0,94657.0,-2490.0,6
2021-01-15,2021,0,10,-1932.0,92725.0,-4422.0,7
2021-01-17,2021,0,10,-248.5,92476.5,-4670.5,7
2021-01-18,2021,0,10,1197.0,93673.5,-3473.5,7
2021-01-19,2021,0,10,3055.5,96729.0,-418.0,7
2021-01-20,2021,0,10,3706.5,100435.5,0.0,7
2021-01-21,2021,0,10,969.5,101405.0,0.0,7
2021-01-22,2021,0,10,-448.0,100957.0,-448.0,7
2021-01-24,2021,0,10,647.5,101604.5,0.0,7
2021-01-25,2021,0,10,896.0,102500.5,0.0,7
2021-01-26,2021,0,10,1361.5,103862.0,0.0,7
2021-01-27,2021,0,10,-8137.5,95724.5,-8137.5,7
2021-01-28,2021,0,10,2222.5,97947.0,-5915.0,7
2021-01-29,2021,0,10,-3724.0,94223.0,-9639.0,7
2021-01-31,2021,0,10,-301.0,93922.0,-9940.0,0
2021-02-01,2021,0,10,0.0,93922.0,-9940.0,0
2021-02-02,2021,0,10,0.0,93922.0,-9940.0,0
2021-02-03,2021,0,10,0.0,93922.0,-9940.0,0
2021-02-04,2021,0,10,0.0,93922.0,-9940.0,0
2021-02-05,2021,0,10,304.5,94226.5,-9635.5,3
2021-02-07,2021,0,10,210.0,94436.5,-9425.5,3
2021-02-08,2021,0,10,256.5,94693.0,-9169.0,3
2021-02-09,2021,0,10,36.0,94729.0,-9133.0,3
2021-02-10,2021,0,10,-202.5,94526.5,-9335.5,3
2021-02-11,2021,0,10,463.5,94990.0,-8872.0,3
2021-02-12,2021,0,10,544.5,95534.5,-8327.5,3
2021-02-14,2021,0,10,24.0,95558.5,-8303.5,3
2021-02-15,2021,0,10,193.5,95752.0,-8110.0,3
2021-02-16,2021,0,10,-759.0,94993.0,-8869.0,3
2021-02-17,2021,0,10,-171.0,94822.0,-9040.0,3
2021-02-18,2021,0,10,-525.0,94297.0,-9565.0,3
2021-02-19,2021,0,10,-296.0,94001.0,-9861.0,4
2021-02-21,2021,0,10,160.0,94161.0,-9701.0,4
2021-02-22,2021,0,10,-2908.0,91253.0,-12609.0,4
2021-02-23,2021,0,10,0.0,91253.0,-12609.0,0
2021-02-24,2021,0,10,0.0,91253.0,-12609.0,0
2021-02-25,2021,0,10,0.0,91253.0,-12609.0,0
2021-02-26,2021,0,10,0.0,91253.0,-12609.0,0
2021-02-28,2021,0,10,0.0,91253.0,-12609.0,0
2021-03-01,2021,0,10,0.0,91253.0,-12609.0,0
2021-03-02,2021,0,10,0.0,91253.0,-12609.0,0
2021-03-03,2021,0,10,0.0,91253.0,-12609.0,0
2021-03-04,2021,0,10,0.0,91253.0,-12609.0,0
2021-03-05,2021,0,10,0.0,91253.0,-12609.0,0
2021-03-07,2021,0,10,0.0,91253.0,-12609.0,0
2021-03-08,2021,0,10,0.0,91253.0,-12609.0,0
2021-03-09,2021,0,10,0.0,91253.0,-12609.0,0
2021-03-10,2021,0,10,0.0,91253.0,-12609.0,0
2021-03-11,2021,0,10,0.0,91253.0,-12609.0,0
2021-03-12,2021,0,10,0.0,91253.0,-12609.0,0
2021-03-14,2021,0,10,0.0,91253.0,-12609.0,0
2021-03-15,2021,0,10,0.0,91253.0,-12609.0,0
2021-03-16,2021,0,10,0.0,91253.0,-12609.0,0
2021-03-17,2021,0,10,0.0,91253.0,-12609.0,0
2021-03-18,2021,0,10,0.0,91253.0,-12609.0,0
2021-03-19,2021,0,10,0.0,91253.0,-12609.0,0
2021-03-21,2021,0,10,0.0,91253.0,-12609.0,0
2021-03-22,2021,0,10,0.0,91253.0,-12609.0,0
2021-03-23,2021,0,10,0.0,91253.0,-12609.0,0
2021-03-24,2021,0,10,0.0,91253.0,-12609.0,0
2021-03-25,2021,0,10,0.0,91253.0,-12609.0,0
2021-03-26,2021,0,10,0.0,91253.0,-12609.0,0
2021-03-28,2021,0,10,0.0,91253.0,-12609.0,0
2021-03-29,2021,0,10,0.0,91253.0,-12609.0,0
2021-03-30,2021,0,10,0.0,91253.0,-12609.0,0
2021-03-31,2021,0,10,0.0,91253.0,-12609.0,0
2021-04-01,2021,0,10,0.0,91253.0,-12609.0,0
2021-04-02,2021,0,10,0.0,91253.0,-12609.0,0
2021-04-04,2021,0,10,0.0,91253.0,-12609.0,0
2021-04-05,2021,0,10,0.0,91253.0,-12609.0,0
2021-04-06,2021,0,10,-129.0,91124.0,-12738.0,3
2021-04-07,2021,0,10,-3.0,91121.0,-12741.0,0
2021-04-08,2021,0,10,981.0,92102.0,-11760.0,3
2021-04-09,2021,0,10,40.5,92142.5,-11719.5,3
2021-04-11,2021,0,10,-180.0,91962.5,-11899.5,3
2021-04-12,2021,0,10,231.0,92193.5,-11668.5,3
2021-04-13,2021,0,10,897.0,93090.5,-10771.5,3
2021-04-14,2021,0,10,-931.5,92159.0,-11703.0,3
2021-04-15,2021,0,10,1192.5,93351.5,-10510.5,3
2021-04-16,2021,0,10,63.0,93414.5,-10447.5,4
2021-04-18,2021,0,10,-250.0,93164.5,-10697.5,4
2021-04-19,2021,0,10,-590.0,92574.5,-11287.5,4
2021-04-20,2021,0,10,-1370.0,91204.5,-12657.5,4
2021-04-21,2021,0,10,1098.0,92302.5,-11559.5,4
2021-04-22,2021,0,10,-990.0,91312.5,-12549.5,4
2021-04-23,2021,0,10,1168.0,92480.5,-11381.5,4
2021-04-25,2021,0,10,38.0,92518.5,-11343.5,4
2021-04-26,2021,0,10,938.0,93456.5,-10405.5,4
2021-04-27,2021,0,10,-516.0,92940.5,-10921.5,4
2021-04-28,2021,0,10,72.0,93012.5,-10849.5,4
2021-04-29,2021,0,10,-450.0,92562.5,-11299.5,4
2021-04-30,2021,0,10,-383.0,92179.5,-11682.5,5
2021-05-02,2021,0,10,142.5,92322.0,-11540.0,5
2021-05-03,2021,0,10,-1107.5,91214.5,-12647.5,5
2021-05-04,2021,0,10,-2445.0,88769.5,-15092.5,5
2021-05-05,2021,0,10,0.0,88769.5,-15092.5,0
2021-05-06,2021,0,10,0.0,88769.5,-15092.5,0
2021-05-07,2021,0,10,0.0,88769.5,-15092.5,0
2021-05-09,2021,0,10,123.0,88892.5,-14969.5,3
2021-05-10,2021,0,10,-2425.5,86467.0,-17395.0,3
2021-05-11,2021,0,10,-4.5,86462.5,-17399.5,0
2021-05-12,2021,0,10,0.0,86462.5,-17399.5,0
2021-05-13,2021,0,10,0.0,86462.5,-17399.5,0
2021-05-14,2021,0,10,0.0,86462.5,-17399.5,0
2021-05-16,2021,0,10,0.0,86462.5,-17399.5,0
2021-05-17,2021,0,10,0.0,86462.5,-17399.5,0
2021-05-18,2021,0,10,0.0,86462.5,-17399.5,0
2021-05-19,2021,0,10,0.0,86462.5,-17399.5,0
2021-05-20,2021,0,10,0.0,86462.5,-17399.5,0
2021-05-21,2021,0,10,0.0,86462.5,-17399.5,0
2021-05-23,2021,0,10,0.0,86462.5,-17399.5,0
2021-05-24,2021,0,10,0.0,86462.5,-17399.5,0
2021-05-25,2021,0,10,0.0,86462.5,-17399.5,0
2021-05-26,2021,0,10,0.0,86462.5,-17399.5,0
2021-05-27,2021,0,10,0.0,86462.5,-17399.5,0
2021-05-28,2021,0,10,0.0,86462.5,-17399.5,0
2021-05-30,2021,0,10,0.0,86462.5,-17399.5,0
2021-05-31,2021,0,10,0.0,86462.5,-17399.5,0
2021-06-01,2021,0,10,0.0,86462.5,-17399.5,0
2021-06-02,2021,0,10,0.0,86462.5,-17399.5,0
2021-06-03,2021,0,10,0.0,86462.5,-17399.5,0
2021-06-04,2021,0,10,0.0,86462.5,-17399.5,0
2021-06-06,2021,0,10,-27.0,86435.5,-17426.5,3
2021-06-07,2021,0,10,-1.5,86434.0,-17428.0,0
2021-06-08,2021,0,10,-33.0,86401.0,-17461.0,3
2021-06-09,2021,0,10,-12.0,86389.0,-17473.0,3
2021-06-10,2021,0,10,916.5,87305.5,-16556.5,3
2021-06-11,2021,0,10,102.0,87407.5,-16454.5,3
2021-06-13,2021,0,10,148.5,87556.0,-16306.0,3
2021-06-14,2021,0,10,580.5,88136.5,-15725.5,3
2021-06-15,2021,0,10,-450.0,87686.5,-16175.5,3
2021-06-16,2021,0,10,-868.5,86818.0,-17044.0,3
2021-06-17,2021,0,10,1734.0,88552.0,-15310.0,3
2021-06-18,2021,0,10,-1035.0,87517.0,-16345.0,4
2021-06-20,2021,0,10,162.0,87679.0,-16183.0,4
2021-06-21,2021,0,10,774.0,88453.0,-15409.0,4
2021-06-22,2021,0,10,1100.0,89553.0,-14309.0,4
2021-06-23,2021,0,10,110.0,89663.0,-14199.0,4
2021-06-24,2021,0,10,482.0,90145.0,-13717.0,4
2021-06-25,2021,0,10,-122.0,90023.0,-13839.0,4
2021-06-27,2021,0,10,188.0,90211.0,-13651.0,4
2021-06-28,2021,0,10,1096.0,91307.0,-12555.0,4
2021-06-29,2021,0,10,768.0,92075.0,-11787.0,4
2021-06-30,2021,0,10,-218.0,91857.0,-12005.0,4
2021-07-01,2021,0,10,-220.0,91637.0,-12225.0,4
2021-07-02,2021,0,10,1310.0,92947.0,-10915.0,5
2021-07-04,2021,0,10,140.0,93087.0,-10775.0,5
2021-07-05,2021,0,10,-2.5,93084.5,-10777.5,5
2021-07-06,2021,0,10,505.0,93589.5,-10272.5,5
2021-07-07,2021,0,10,455.0,94044.5,-9817.5,5
2021-07-08,2021,0,10,-1182.5,92862.0,-11000.0,5
2021-07-09,2021,0,10,1225.0,94087.0,-9775.0,5
2021-07-11,2021,0,10,150.0,94237.0,-9625.0,5
2021-07-12,2021,0,10,502.5,94739.5,-9122.5,5
2021-07-13,2021,0,10,-347.5,94392.0,-9470.0,5
2021-07-14,2021,0,10,592.5,94984.5,-8877.5,5
2021-07-15,2021,0,10,-1472.5,93512.0,-10350.0,5
2021-07-16,2021,0,10,-845.0,92667.0,-11195.0,6
2021-07-18,2021,0,10,-330.0,92337.0,-11525.0,6
2021-07-19,2021,0,10,-639.0,91698.0,-12164.0,6
2021-07-20,2021,0,10,1842.0,93540.0,-10322.0,6
2021-07-21,2021,0,10,1110.0,94650.0,-9212.0,6
2021-07-22,2021,0,10,1623.0,96273.0,-7589.0,6
2021-07-23,2021,0,10,1461.0,97734.0,-6128.0,6
2021-07-25,2021,0,10,342.0,98076.0,-5786.0,6
2021-07-26,2021,0,10,-114.0,97962.0,-5900.0,6
2021-07-27,2021,0,10,-2295.0,95667.0,-8195.0,6
2021-07-28,2021,0,10,816.0,96483.0,-7379.0,6
2021-07-29,2021,0,10,-1419.0,95064.0,-8798.0,6
2021-07-30,2021,0,10,1207.0,96271.0,-7591.0,7
2021-08-01,2021,0,10,483.0,96754.0,-7108.0,7
2021-08-02,2021,0,10,-567.0,96187.0,-7675.0,7
2021-08-03,2021,0,10,976.5,97163.5,-6698.5,7
2021-08-04,2021,0,10,738.5,97902.0,-5960.0,7
2021-08-05,2021,0,10,1074.5,98976.5,-4885.5,7
2021-08-06,2021,0,10,-948.5,98028.0,-5834.0,7
2021-08-08,2021,0,10,-990.5,97037.5,-6824.5,7
2021-08-09,2021,0,10,1354.5,98392.0,-5470.0,7
2021-08-10,2021,0,10,-1165.5,97226.5,-6635.5,7
2021-08-11,2021,0,10,-556.5,96670.0,-7192.0,7
2021-08-12,2021,0,10,1008.0,97678.0,-6184.0,7
2021-08-13,2021,0,10,800.0,98478.0,-5384.0,8
2021-08-15,2021,0,10,-156.0,98322.0,-5540.0,8
2021-08-16,2021,0,10,264.0,98586.0,-5276.0,8
2021-08-17,2021,0,10,-2776.0,95810.0,-8052.0,8
2021-08-18,2021,0,10,-1784.0,94026.0,-9836.0,8
2021-08-19,2021,0,10,1140.0,95166.0,-8696.0,8
2021-08-20,2021,0,10,2852.0,98018.0,-5844.0,8
2021-08-22,2021,0,10,196.0,98214.0,-5648.0,8
2021-08-23,2021,0,10,3556.0,101770.0,-2092.0,8
2021-08-24,2021,0,10,452.0,102222.0,-1640.0,8
2021-08-25,2021,0,10,64.0,102286.0,-1576.0,8
2021-08-26,2021,0,10,-1336.0,100950.0,-2912.0,8
2021-08-27,2021,0,10,2386.5,103336.5,-525.5,9
2021-08-29,2021,0,10,441.0,103777.5,-84.5,9
2021-08-30,2021,0,10,2623.5,106401.0,0.0,9
2021-08-31,2021,0,10,-22.5,106378.5,-22.5,9
2021-09-01,2021,0,10,387.0,106765.5,0.0,9
2021-09-02,2021,0,10,-387.0,106378.5,-387.0,9
2021-09-03,2021,0,10,1017.0,107395.5,0.0,9
2021-09-05,2021,0,10,-58.5,107337.0,-58.5,9
2021-09-06,2021,0,10,702.0,108039.0,0.0,9
2021-09-07,2021,0,10,-490.5,107548.5,-490.5,9
2021-09-08,2021,0,10,-1116.0,106432.5,-1606.5,9
2021-09-09,2021,0,10,-648.0,105784.5,-2254.5,9
2021-09-10,2021,0,10,-2286.5,103498.0,-4541.0,10
2021-09-12,2021,0,10,935.0,104433.0,-3606.0,10
2021-09-13,2021,0,10,-785.0,103648.0,-4391.0,10
2021-09-14,2021,0,10,-765.0,102883.0,-5156.0,10
2021-09-15,2021,0,10,1895.0,104778.0,-3261.0,10
2021-09-16,2021,0,10,-405.0,104373.0,-3666.0,10
2021-09-17,2021,0,10,-3930.0,100443.0,-7596.0,10
2021-09-19,2021,0,10,0.0,100443.0,-7596.0,0
2021-09-20,2021,0,10,0.0,100443.0,-7596.0,0
2021-09-21,2021,0,10,0.0,100443.0,-7596.0,0
2021-09-22,2021,0,10,0.0,100443.0,-7596.0,0
2021-09-23,2021,0,10,0.0,100443.0,-7596.0,0
2021-09-24,2021,0,10,0.0,100443.0,-7596.0,0
2021-09-26,2021,0,10,0.0,100443.0,-7596.0,0
2021-09-27,2021,0,10,0.0,100443.0,-7596.0,0
2021-09-28,2021,0,10,0.0,100443.0,-7596.0,0
2021-09-29,2021,0,10,0.0,100443.0,-7596.0,0
2021-09-30,2021,0,10,0.0,100443.0,-7596.0,0
2021-10-01,2021,0,10,0.0,100443.0,-7596.0,0
2021-10-03,2021,0,10,0.0,100443.0,-7596.0,0
2021-10-04,2021,0,10,0.0,100443.0,-7596.0,0
2021-10-05,2021,0,10,0.0,100443.0,-7596.0,0
2021-10-06,2021,0,10,0.0,100443.0,-7596.0,0
2021-10-07,2021,0,10,0.0,100443.0,-7596.0,0
2021-10-08,2021,0,10,0.0,100443.0,-7596.0,0
2021-10-10,2021,0,10,0.0,100443.0,-7596.0,0
2021-10-11,2021,0,10,0.0,100443.0,-7596.0,0
2021-10-12,2021,0,10,0.0,100443.0,-7596.0,0
2021-10-13,2021,0,10,0.0,100443.0,-7596.0,0
2021-10-14,2021,0,10,0.0,100443.0,-7596.0,0
2021-10-15,2021,0,10,0.0,100443.0,-7596.0,0
2021-10-17,2021,0,10,0.0,100443.0,-7596.0,0
2021-10-18,2021,0,10,0.0,100443.0,-7596.0,0
2021-10-19,2021,0,10,702.0,101145.0,-6894.0,3
2021-10-20,2021,0,10,-444.0,100701.0,-7338.0,3
2021-10-21,2021,0,10,339.0,101040.0,-6999.0,3
2021-10-22,2021,0,10,-406.5,100633.5,-7405.5,3
2021-10-24,2021,0,10,-106.5,100527.0,-7512.0,3
2021-10-25,2021,0,10,1396.5,101923.5,-6115.5,3
2021-10-26,2021,0,10,126.0,102049.5,-5989.5,3
2021-10-27,2021,0,10,397.5,102447.0,-5592.0,3
2021-10-28,2021,0,10,276.0,102723.0,-5316.0,3
2021-10-29,2021,0,10,1316.0,104039.0,-4000.0,4
2021-10-31,2021,0,10,92.0,104131.0,-3908.0,4
2021-11-01,2021,0,10,-34.0,104097.0,-3942.0,4
2021-11-02,2021,0,10,532.0,104629.0,-3410.0,4
2021-11-03,2021,0,10,1946.0,106575.0,-1464.0,4
2021-11-04,2021,0,10,1234.0,107809.0,-230.0,4
2021-11-05,2021,0,10,24.0,107833.0,-206.0,4
2021-11-07,2021,0,10,-248.0,107585.0,-454.0,4
2021-11-08,2021,0,10,-12.0,107573.0,-466.0,4
2021-11-09,2021,0,10,-1000.0,106573.0,-1466.0,4
2021-11-10,2021,0,10,-1562.0,105011.0,-3028.0,4
2021-11-11,2021,0,10,592.0,105603.0,-2436.0,4
2021-11-12,2021,0,10,1139.0,106742.0,-1297.0,5
2021-11-14,2021,0,10,245.0,106987.0,-1052.0,5
2021-11-15,2021,0,10,-365.0,106622.0,-1417.0,5
2021-11-16,2021,0,10,1155.0,107777.0,-262.0,5
2021-11-17,2021,0,10,242.5,108019.5,-19.5,5
2021-11-18,2021,0,10,1665.0,109684.5,0.0,5
2021-11-19,2021,0,10,922.5,110607.0,0.0,5
2021-11-21,2021,0,10,5.0,110612.0,0.0,5
2021-11-22,2021,0,10,-1920.0,108692.0,-1920.0,5
2021-11-23,2021,0,10,-1102.5,107589.5,-3022.5,5
2021-11-24,2021,0,10,712.5,108302.0,-2310.0,5
2021-11-25,2021,0,10,132.5,108434.5,-2177.5,5
2021-11-26,2021,0,10,-3262.5,105172.0,-5440.0,5
2021-11-28,2021,0,10,15.0,105187.0,-5425.0,0
2021-11-29,2021,0,10,0.0,105187.0,-5425.0,0
2021-11-30,2021,0,10,0.0,105187.0,-5425.0,0
2021-12-01,2021,0,10,0.0,105187.0,-5425.0,0
2021-12-02,2021,0,10,0.0,105187.0,-5425.0,0
2021-12-03,2021,0,10,0.0,105187.0,-5425.0,0
2021-12-05,2021,0,10,0.0,105187.0,-5425.0,0
2021-12-06,2021,0,10,0.0,105187.0,-5425.0,0
2021-12-07,2021,0,10,0.0,105187.0,-5425.0,0
2021-12-08,2021,0,10,0.0,105187.0,-5425.0,0
2021-12-09,2021,0,10,0.0,105187.0,-5425.0,0
2021-12-10,2021,0,10,0.0,105187.0,-5425.0,0
2021-12-12,2021,0,10,0.0,105187.0,-5425.0,0
2021-12-13,2021,0,10,0.0,105187.0,-5425.0,0
2021-12-14,2021,0,10,0.0,105187.0,-5425.0,0
2021-12-15,2021,0,10,0.0,105187.0,-5425.0,0
2021-12-16,2021,0,10,0.0,105187.0,-5425.0,0
2021-12-17,2021,0,10,0.0,105187.0,-5425.0,0
2021-12-19,2021,0,10,0.0,105187.0,-5425.0,0
2021-12-20,2021,0,10,0.0,105187.0,-5425.0,0
2021-12-21,2021,0,10,0.0,105187.0,-5425.0,0
2021-12-22,2021,0,10,0.0,105187.0,-5425.0,0
2021-12-23,2021,0,10,0.0,105187.0,-5425.0,0
2021-12-26,2021,0,10,0.0,105187.0,-5425.0,0
2021-12-27,2021,0,10,0.0,105187.0,-5425.0,0
2021-12-28,2021,0,10,-94.5,105092.5,-5519.5,3
2021-12-29,2021,0,10,-3.0,105089.5,-5522.5,0
2021-12-30,2021,0,10,0.0,105089.5,-5522.5,0
2021-12-31,2021,0,10,0.0,105089.5,-5522.5,0
2022-01-02,2022,0,10,0.0,105089.5,-5522.5,0
2022-01-03,2022,0,10,0.0,105089.5,-5522.5,0
2022-01-04,2022,0,10,0.0,105089.5,-5522.5,0
2022-01-05,2022,0,10,0.0,105089.5,-5522.5,0
2022-01-06,2022,0,10,0.0,105089.5,-5522.5,0
2022-01-07,2022,0,10,0.0,105089.5,-5522.5,0
2022-01-09,2022,0,10,0.0,105089.5,-5522.5,0
2022-01-10,2022,0,10,0.0,105089.5,-5522.5,0
2022-01-11,2022,0,10,0.0,105089.5,-5522.5,0
2022-01-12,2022,0,10,0.0,105089.5,-5522.5,0
2022-01-13,2022,0,10,0.0,105089.5,-5522.5,0
2022-01-14,2022,0,10,0.0,105089.5,-5522.5,0
2022-01-16,2022,0,10,0.0,105089.5,-5522.5,0
2022-01-17,2022,0,10,0.0,105089.5,-5522.5,0
2022-01-18,2022,0,10,0.0,105089.5,-5522.5,0
2022-01-19,2022,0,10,0.0,105089.5,-5522.5,0
2022-01-20,2022,0,10,0.0,105089.5,-5522.5,0
2022-01-21,2022,0,10,0.0,105089.5,-5522.5,0
2022-01-23,2022,0,10,0.0,105089.5,-5522.5,0
2022-01-24,2022,0,10,0.0,105089.5,-5522.5,0
2022-01-25,2022,0,10,0.0,105089.5,-5522.5,0
2022-01-26,2022,0,10,0.0,105089.5,-5522.5,0
2022-01-27,2022,0,10,0.0,105089.5,-5522.5,0
2022-01-28,2022,0,10,0.0,105089.5,-5522.5,0
2022-01-30,2022,0,10,0.0,105089.5,-5522.5,0
2022-01-31,2022,0,10,0.0,105089.5,-5522.5,0
2022-02-01,2022,0,10,0.0,105089.5,-5522.5,0
2022-02-02,2022,0,10,0.0,105089.5,-5522.5,0
2022-02-03,2022,0,10,0.0,105089.5,-5522.5,0
2022-02-04,2022,0,10,0.0,105089.5,-5522.5,0
2022-02-06,2022,0,10,0.0,105089.5,-5522.5,0
2022-02-07,2022,0,10,0.0,105089.5,-5522.5,0
2022-02-08,2022,0,10,0.0,105089.5,-5522.5,0
2022-02-09,2022,0,10,0.0,105089.5,-5522.5,0
2022-02-10,2022,0,10,0.0,105089.5,-5522.5,0
2022-02-11,2022,0,10,0.0,105089.5,-5522.5,0
2022-02-13,2022,0,10,0.0,105089.5,-5522.5,0
2022-02-14,2022,0,10,0.0,105089.5,-5522.5,0
2022-02-15,2022,0,10,0.0,105089.5,-5522.5,0
2022-02-16,2022,0,10,0.0,105089.5,-5522.5,0
2022-02-17,2022,0,10,0.0,105089.5,-5522.5,0
2022-02-18,2022,0,10,0.0,105089.5,-5522.5,0
2022-02-20,2022,0,10,0.0,105089.5,-5522.5,0
2022-02-21,2022,0,10,0.0,105089.5,-5522.5,0
2022-02-22,2022,0,10,0.0,105089.5,-5522.5,0
2022-02-23,2022,0,10,0.0,105089.5,-5522.5,0
2022-02-24,2022,0,10,0.0,105089.5,-5522.5,0
2022-02-25,2022,0,10,0.0,105089.5,-5522.5,0
2022-02-27,2022,0,10,0.0,105089.5,-5522.5,0
2022-02-28,2022,0,10,0.0,105089.5,-5522.5,0
2022-03-01,2022,0,10,0.0,105089.5,-5522.5,0
2022-03-02,2022,0,10,0.0,105089.5,-5522.5,0
2022-03-03,2022,0,10,0.0,105089.5,-5522.5,0
2022-03-04,2022,0,10,0.0,105089.5,-5522.5,0
2022-03-06,2022,0,10,0.0,105089.5,-5522.5,0
2022-03-07,2022,0,10,0.0,105089.5,-5522.5,0
2022-03-08,2022,0,10,0.0,105089.5,-5522.5,0
2022-03-09,2022,0,10,0.0,105089.5,-5522.5,0
2022-03-10,2022,0,10,0.0,105089.5,-5522.5,0
2022-03-11,2022,0,10,0.0,105089.5,-5522.5,0
2022-03-13,2022,0,10,0.0,105089.5,-5522.5,0
2022-03-14,2022,0,10,0.0,105089.5,-5522.5,0
2022-03-15,2022,0,10,0.0,105089.5,-5522.5,0
2022-03-16,2022,0,10,0.0,105089.5,-5522.5,0
2022-03-17,2022,0,10,0.0,105089.5,-5522.5,0
2022-03-18,2022,0,10,0.0,105089.5,-5522.5,0
2022-03-20,2022,0,10,0.0,105089.5,-5522.5,0
2022-03-21,2022,0,10,0.0,105089.5,-5522.5,0
2022-03-22,2022,0,10,0.0,105089.5,-5522.5,0
2022-03-23,2022,0,10,0.0,105089.5,-5522.5,0
2022-03-24,2022,0,10,0.0,105089.5,-5522.5,0
2022-03-25,2022,0,10,0.0,105089.5,-5522.5,0
2022-03-27,2022,0,10,0.0,105089.5,-5522.5,0
2022-03-28,2022,0,10,0.0,105089.5,-5522.5,0
2022-03-29,2022,0,10,0.0,105089.5,-5522.5,0
2022-03-30,2022,0,10,0.0,105089.5,-5522.5,0
2022-03-31,2022,0,10,0.0,105089.5,-5522.5,0
2022-04-01,2022,0,10,0.0,105089.5,-5522.5,0
2022-04-03,2022,0,10,0.0,105089.5,-5522.5,0
2022-04-04,2022,0,10,0.0,105089.5,-5522.5,0
2022-04-05,2022,0,10,0.0,105089.5,-5522.5,0
2022-04-06,2022,0,10,0.0,105089.5,-5522.5,0
2022-04-07,2022,0,10,0.0,105089.5,-5522.5,0
2022-04-08,2022,0,10,0.0,105089.5,-5522.5,0
2022-04-10,2022,0,10,0.0,105089.5,-5522.5,0
2022-04-11,2022,0,10,0.0,105089.5,-5522.5,0
2022-04-12,2022,0,10,0.0,105089.5,-5522.5,0
2022-04-13,2022,0,10,0.0,105089.5,-5522.5,0
2022-04-14,2022,0,10,0.0,105089.5,-5522.5,0
2022-04-17,2022,0,10,0.0,105089.5,-5522.5,0
2022-04-18,2022,0,10,0.0,105089.5,-5522.5,0
2022-04-19,2022,0,10,0.0,105089.5,-5522.5,0
2022-04-20,2022,0,10,0.0,105089.5,-5522.5,0
2022-04-21,2022,0,10,0.0,105089.5,-5522.5,0
2022-04-22,2022,0,10,0.0,105089.5,-5522.5,0
2022-04-24,2022,0,10,0.0,105089.5,-5522.5,0
2022-04-25,2022,0,10,0.0,105089.5,-5522.5,0
2022-04-26,2022,0,10,0.0,105089.5,-5522.5,0
2022-04-27,2022,0,10,0.0,105089.5,-5522.5,0
2022-04-28,2022,0,10,0.0,105089.5,-5522.5,0
2022-04-29,2022,0,10,0.0,105089.5,-5522.5,0
2022-05-01,2022,0,10,0.0,105089.5,-5522.5,0
2022-05-02,2022,0,10,0.0,105089.5,-5522.5,0
2022-05-03,2022,0,10,0.0,105089.5,-5522.5,0
2022-05-04,2022,0,10,0.0,105089.5,-5522.5,0
2022-05-05,2022,0,10,0.0,105089.5,-5522.5,0
2022-05-06,2022,0,10,0.0,105089.5,-5522.5,0
2022-05-08,2022,0,10,0.0,105089.5,-5522.5,0
2022-05-09,2022,0,10,0.0,105089.5,-5522.5,0
2022-05-10,2022,0,10,0.0,105089.5,-5522.5,0
2022-05-11,2022,0,10,0.0,105089.5,-5522.5,0
2022-05-12,2022,0,10,0.0,105089.5,-5522.5,0
2022-05-13,2022,0,10,0.0,105089.5,-5522.5,0
2022-05-15,2022,0,10,0.0,105089.5,-5522.5,0
2022-05-16,2022,0,10,0.0,105089.5,-5522.5,0
2022-05-17,2022,0,10,0.0,105089.5,-5522.5,0
2022-05-18,2022,0,10,0.0,105089.5,-5522.5,0
2022-05-19,2022,0,10,0.0,105089.5,-5522.5,0
2022-05-20,2022,0,10,0.0,105089.5,-5522.5,0
2022-05-22,2022,0,10,0.0,105089.5,-5522.5,0
2022-05-23,2022,0,10,0.0,105089.5,-5522.5,0
2022-05-24,2022,0,10,0.0,105089.5,-5522.5,0
2022-05-25,2022,0,10,0.0,105089.5,-5522.5,0
2022-05-26,2022,0,10,0.0,105089.5,-5522.5,0
2022-05-27,2022,0,10,0.0,105089.5,-5522.5,0
2022-05-29,2022,0,10,0.0,105089.5,-5522.5,0
2022-05-30,2022,0,10,0.0,105089.5,-5522.5,0
2022-05-31,2022,0,10,0.0,105089.5,-5522.5,0
2022-06-01,2022,0,10,0.0,105089.5,-5522.5,0
2022-06-02,2022,0,10,0.0,105089.5,-5522.5,0
2022-06-03,2022,0,10,0.0,105089.5,-5522.5,0
2022-06-05,2022,0,10,0.0,105089.5,-5522.5,0
2022-06-06,2022,0,10,0.0,105089.5,-5522.5,0
2022-06-07,2022,0,10,0.0,105089.5,-5522.5,0
2022-06-08,2022,0,10,0.0,105089.5,-5522.5,0
2022-06-09,2022,0,10,0.0,105089.5,-5522.5,0
2022-06-10,2022,0,10,0.0,105089.5,-5522.5,0
2022-06-12,2022,0,10,0.0,105089.5,-5522.5,0
2022-06-13,2022,0,10,0.0,105089.5,-5522.5,0
2022-06-14,2022,0,10,0.0,105089.5,-5522.5,0
2022-06-15,2022,0,10,0.0,105089.5,-5522.5,0
2022-06-16,2022,0,10,0.0,105089.5,-5522.5,0
2022-06-17,2022,0,10,0.0,105089.5,-5522.5,0
2022-06-19,2022,0,10,0.0,105089.5,-5522.5,0
2022-06-20,2022,0,10,0.0,105089.5,-5522.5,0
2022-06-21,2022,0,10,0.0,105089.5,-5522.5,0
2022-06-22,2022,0,10,0.0,105089.5,-5522.5,0
2022-06-23,2022,0,10,0.0,105089.5,-5522.5,0
2022-06-24,2022,0,10,0.0,105089.5,-5522.5,0
2022-06-26,2022,0,10,0.0,105089.5,-5522.5,0
2022-06-27,2022,0,10,0.0,105089.5,-5522.5,0
2022-06-28,2022,0,10,0.0,105089.5,-5522.5,0
2022-06-29,2022,0,10,0.0,105089.5,-5522.5,0
2022-06-30,2022,0,10,0.0,105089.5,-5522.5,0
2022-07-01,2022,0,10,0.0,105089.5,-5522.5,0
2022-07-03,2022,0,10,0.0,105089.5,-5522.5,0
2022-07-04,2022,0,10,0.0,105089.5,-5522.5,0
2022-07-05,2022,0,10,0.0,105089.5,-5522.5,0
2022-07-06,2022,0,10,0.0,105089.5,-5522.5,0
2022-07-07,2022,0,10,0.0,105089.5,-5522.5,0
2022-07-08,2022,0,10,0.0,105089.5,-5522.5,0
2022-07-10,2022,0,10,0.0,105089.5,-5522.5,0
2022-07-11,2022,0,10,0.0,105089.5,-5522.5,0
2022-07-12,2022,0,10,0.0,105089.5,-5522.5,0
2022-07-13,2022,0,10,0.0,105089.5,-5522.5,0
2022-07-14,2022,0,10,0.0,105089.5,-5522.5,0
2022-07-15,2022,0,10,0.0,105089.5,-5522.5,0
2022-07-17,2022,0,10,0.0,105089.5,-5522.5,0
2022-07-18,2022,0,10,0.0,105089.5,-5522.5,0
2022-07-19,2022,0,10,0.0,105089.5,-5522.5,0
2022-07-20,2022,0,10,0.0,105089.5,-5522.5,0
2022-07-21,2022,0,10,0.0,105089.5,-5522.5,0
2022-07-22,2022,0,10,0.0,105089.5,-5522.5,0
2022-07-24,2022,0,10,0.0,105089.5,-5522.5,0
2022-07-25,2022,0,10,0.0,105089.5,-5522.5,0
2022-07-26,2022,0,10,0.0,105089.5,-5522.5,0
2022-07-27,2022,0,10,0.0,105089.5,-5522.5,0
2022-07-28,2022,0,10,0.0,105089.5,-5522.5,0
2022-07-29,2022,0,10,0.0,105089.5,-5522.5,0
2022-07-31,2022,0,10,0.0,105089.5,-5522.5,0
2022-08-01,2022,0,10,0.0,105089.5,-5522.5,0
2022-08-02,2022,0,10,0.0,105089.5,-5522.5,0
2022-08-03,2022,0,10,0.0,105089.5,-5522.5,0
2022-08-04,2022,0,10,0.0,105089.5,-5522.5,0
2022-08-05,2022,0,10,0.0,105089.5,-5522.5,0
2022-08-07,2022,0,10,0.0,105089.5,-5522.5,0
2022-08-08,2022,0,10,0.0,105089.5,-5522.5,0
2022-08-09,2022,0,10,0.0,105089.5,-5522.5,0
2022-08-10,2022,0,10,0.0,105089.5,-5522.5,0
2022-08-11,2022,0,10,0.0,105089.5,-5522.5,0
2022-08-12,2022,0,10,0.0,105089.5,-5522.5,0
2022-08-14,2022,0,10,0.0,105089.5,-5522.5,0
2022-08-15,2022,0,10,0.0,105089.5,-5522.5,0
2022-08-16,2022,0,10,0.0,105089.5,-5522.5,0
2022-08-17,2022,0,10,0.0,105089.5,-5522.5,0
2022-08-18,2022,0,10,0.0,105089.5,-5522.5,0
2022-08-19,2022,0,10,0.0,105089.5,-5522.5,0
2022-08-21,2022,0,10,0.0,105089.5,-5522.5,0
2022-08-22,2022,0,10,0.0,105089.5,-5522.5,0
2022-08-23,2022,0,10,0.0,105089.5,-5522.5,0
2022-08-24,2022,0,10,0.0,105089.5,-5522.5,0
2022-08-25,2022,0,10,0.0,105089.5,-5522.5,0
2022-08-26,2022,0,10,0.0,105089.5,-5522.5,0
2022-08-28,2022,0,10,0.0,105089.5,-5522.5,0
2022-08-29,2022,0,10,0.0,105089.5,-5522.5,0
2022-08-30,2022,0,10,0.0,105089.5,-5522.5,0
2022-08-31,2022,0,10,0.0,105089.5,-5522.5,0
2022-09-01,2022,0,10,0.0,105089.5,-5522.5,0
2022-09-02,2022,0,10,0.0,105089.5,-5522.5,0
2022-09-04,2022,0,10,0.0,105089.5,-5522.5,0
2022-09-05,2022,0,10,0.0,105089.5,-5522.5,0
2022-09-06,2022,0,10,0.0,105089.5,-5522.5,0
2022-09-07,2022,0,10,0.0,105089.5,-5522.5,0
2022-09-08,2022,0,10,0.0,105089.5,-5522.5,0
2022-09-09,2022,0,10,0.0,105089.5,-5522.5,0
2022-09-11,2022,0,10,0.0,105089.5,-5522.5,0
2022-09-12,2022,0,10,0.0,105089.5,-5522.5,0
2022-09-13,2022,0,10,0.0,105089.5,-5522.5,0
2022-09-14,2022,0,10,0.0,105089.5,-5522.5,0
2022-09-15,2022,0,10,0.0,105089.5,-5522.5,0
2022-09-16,2022,0,10,0.0,105089.5,-5522.5,0
2022-09-18,2022,0,10,0.0,105089.5,-5522.5,0
2022-09-19,2022,0,10,0.0,105089.5,-5522.5,0
2022-09-20,2022,0,10,0.0,105089.5,-5522.5,0
2022-09-21,2022,0,10,0.0,105089.5,-5522.5,0
2022-09-22,2022,0,10,0.0,105089.5,-5522.5,0
2022-09-23,2022,0,10,0.0,105089.5,-5522.5,0
2022-09-25,2022,0,10,0.0,105089.5,-5522.5,0
2022-09-26,2022,0,10,0.0,105089.5,-5522.5,0
2022-09-27,2022,0,10,0.0,105089.5,-5522.5,0
2022-09-28,2022,0,10,0.0,105089.5,-5522.5,0
2022-09-29,2022,0,10,0.0,105089.5,-5522.5,0
2022-09-30,2022,0,10,0.0,105089.5,-5522.5,0
2022-10-02,2022,0,10,0.0,105089.5,-5522.5,0
2022-10-03,2022,0,10,0.0,105089.5,-5522.5,0
2022-10-04,2022,0,10,0.0,105089.5,-5522.5,0
2022-10-05,2022,0,10,0.0,105089.5,-5522.5,0
2022-10-06,2022,0,10,0.0,105089.5,-5522.5,0
2022-10-07,2022,0,10,0.0,105089.5,-5522.5,0
2022-10-09,2022,0,10,0.0,105089.5,-5522.5,0
2022-10-10,2022,0,10,0.0,105089.5,-5522.5,0
2022-10-11,2022,0,10,0.0,105089.5,-5522.5,0
2022-10-12,2022,0,10,0.0,105089.5,-5522.5,0
2022-10-13,2022,0,10,0.0,105089.5,-5522.5,0
2022-10-14,2022,0,10,0.0,105089.5,-5522.5,0
2022-10-16,2022,0,10,0.0,105089.5,-5522.5,0
2022-10-17,2022,0,10,0.0,105089.5,-5522.5,0
2022-10-18,2022,0,10,0.0,105089.5,-5522.5,0
2022-10-19,2022,0,10,0.0,105089.5,-5522.5,0
2022-10-20,2022,0,10,0.0,105089.5,-5522.5,0
2022-10-21,2022,0,10,0.0,105089.5,-5522.5,0
2022-10-23,2022,0,10,0.0,105089.5,-5522.5,0
2022-10-24,2022,0,10,0.0,105089.5,-5522.5,0
2022-10-25,2022,0,10,0.0,105089.5,-5522.5,0
2022-10-26,2022,0,10,0.0,105089.5,-5522.5,0
2022-10-27,2022,0,10,0.0,105089.5,-5522.5,0
2022-10-28,2022,0,10,0.0,105089.5,-5522.5,0
2022-10-30,2022,0,10,0.0,105089.5,-5522.5,0
2022-10-31,2022,0,10,0.0,105089.5,-5522.5,0
2022-11-01,2022,0,10,0.0,105089.5,-5522.5,0
2022-11-02,2022,0,10,0.0,105089.5,-5522.5,0
2022-11-03,2022,0,10,0.0,105089.5,-5522.5,0
2022-11-04,2022,0,10,0.0,105089.5,-5522.5,0
2022-11-06,2022,0,10,0.0,105089.5,-5522.5,0
2022-11-07,2022,0,10,0.0,105089.5,-5522.5,0
2022-11-08,2022,0,10,0.0,105089.5,-5522.5,0
2022-11-09,2022,0,10,0.0,105089.5,-5522.5,0
2022-11-10,2022,0,10,0.0,105089.5,-5522.5,0
2022-11-11,2022,0,10,0.0,105089.5,-5522.5,0
2022-11-13,2022,0,10,0.0,105089.5,-5522.5,0
2022-11-14,2022,0,10,0.0,105089.5,-5522.5,0
2022-11-15,2022,0,10,0.0,105089.5,-5522.5,0
2022-11-16,2022,0,10,0.0,105089.5,-5522.5,0
2022-11-17,2022,0,10,0.0,105089.5,-5522.5,0
2022-11-18,2022,0,10,0.0,105089.5,-5522.5,0
2022-11-20,2022,0,10,0.0,105089.5,-5522.5,0
2022-11-21,2022,0,10,0.0,105089.5,-5522.5,0
2022-11-22,2022,0,10,0.0,105089.5,-5522.5,0
2022-11-23,2022,0,10,0.0,105089.5,-5522.5,0
2022-11-24,2022,0,10,0.0,105089.5,-5522.5,0
2022-11-25,2022,0,10,0.0,105089.5,-5522.5,0
2022-11-27,2022,0,10,0.0,105089.5,-5522.5,0
2022-11-28,2022,0,10,0.0,105089.5,-5522.5,0
2022-11-29,2022,0,10,0.0,105089.5,-5522.5,0
2022-11-30,2022,0,10,0.0,105089.5,-5522.5,0
2022-12-01,2022,0,10,0.0,105089.5,-5522.5,0
2022-12-02,2022,0,10,0.0,105089.5,-5522.5,0
2022-12-04,2022,0,10,0.0,105089.5,-5522.5,0
2022-12-05,2022,0,10,0.0,105089.5,-5522.5,0
2022-12-06,2022,0,10,0.0,105089.5,-5522.5,0
2022-12-07,2022,0,10,0.0,105089.5,-5522.5,0
2022-12-08,2022,0,10,0.0,105089.5,-5522.5,0
2022-12-09,2022,0,10,0.0,105089.5,-5522.5,0
2022-12-11,2022,0,10,0.0,105089.5,-5522.5,0
2022-12-12,2022,0,10,0.0,105089.5,-5522.5,0
2022-12-13,2022,0,10,0.0,105089.5,-5522.5,0
2022-12-14,2022,0,10,0.0,105089.5,-5522.5,0
2022-12-15,2022,0,10,0.0,105089.5,-5522.5,0
2022-12-16,2022,0,10,0.0,105089.5,-5522.5,0
2022-12-18,2022,0,10,0.0,105089.5,-5522.5,0
2022-12-19,2022,0,10,0.0,105089.5,-5522.5,0
2022-12-20,2022,0,10,0.0,105089.5,-5522.5,0
2022-12-21,2022,0,10,0.0,105089.5,-5522.5,0
2022-12-22,2022,0,10,0.0,105089.5,-5522.5,0
2022-12-23,2022,0,10,0.0,105089.5,-5522.5,0
2022-12-26,2022,0,10,0.0,105089.5,-5522.5,0
2022-12-27,2022,0,10,0.0,105089.5,-5522.5,0
2022-12-28,2022,0,10,0.0,105089.5,-5522.5,0
2022-12-29,2022,0,10,0.0,105089.5,-5522.5,0
2022-12-30,2022,0,10,0.0,105089.5,-5522.5,0
2023-01-02,2023,0,10,0.0,105089.5,-5522.5,0
2023-01-03,2023,0,10,0.0,105089.5,-5522.5,0
2023-01-04,2023,0,10,0.0,105089.5,-5522.5,0
2023-01-05,2023,0,10,0.0,105089.5,-5522.5,0
2023-01-06,2023,0,10,0.0,105089.5,-5522.5,0
2023-01-08,2023,0,10,0.0,105089.5,-5522.5,0
2023-01-09,2023,0,10,0.0,105089.5,-5522.5,0
2023-01-10,2023,0,10,0.0,105089.5,-5522.5,0
2023-01-11,2023,0,10,0.0,105089.5,-5522.5,0
2023-01-12,2023,0,10,0.0,105089.5,-5522.5,0
2023-01-13,2023,0,10,0.0,105089.5,-5522.5,0
2023-01-15,2023,0,10,0.0,105089.5,-5522.5,0
2023-01-16,2023,0,10,0.0,105089.5,-5522.5,0
2023-01-17,2023,0,10,0.0,105089.5,-5522.5,0
2023-01-18,2023,0,10,0.0,105089.5,-5522.5,0
2023-01-19,2023,0,10,0.0,105089.5,-5522.5,0
2023-01-20,2023,0,10,0.0,105089.5,-5522.5,0
2023-01-22,2023,0,10,0.0,105089.5,-5522.5,0
2023-01-23,2023,0,10,0.0,105089.5,-5522.5,0
2023-01-24,2023,0,10,0.0,105089.5,-5522.5,0
2023-01-25,2023,0,10,0.0,105089.5,-5522.5,0
2023-01-26,2023,0,10,0.0,105089.5,-5522.5,0
2023-01-27,2023,0,10,0.0,105089.5,-5522.5,0
2023-01-29,2023,0,10,0.0,105089.5,-5522.5,0
2023-01-30,2023,0,10,0.0,105089.5,-5522.5,0
2023-01-31,2023,0,10,0.0,105089.5,-5522.5,0
2023-02-01,2023,0,10,0.0,105089.5,-5522.5,0
2023-02-02,2023,0,10,0.0,105089.5,-5522.5,0
2023-02-03,2023,0,10,0.0,105089.5,-5522.5,0
2023-02-05,2023,0,10,0.0,105089.5,-5522.5,0
2023-02-06,2023,0,10,0.0,105089.5,-5522.5,0
2023-02-07,2023,0,10,0.0,105089.5,-5522.5,0
2023-02-08,2023,0,10,0.0,105089.5,-5522.5,0
2023-02-09,2023,0,10,0.0,105089.5,-5522.5,0
2023-02-10,2023,0,10,0.0,105089.5,-5522.5,0
2023-02-12,2023,0,10,0.0,105089.5,-5522.5,0
2023-02-13,2023,0,10,0.0,105089.5,-5522.5,0
2023-02-14,2023,0,10,0.0,105089.5,-5522.5,0
2023-02-15,2023,0,10,0.0,105089.5,-5522.5,0
2023-02-16,2023,0,10,0.0,105089.5,-5522.5,0
2023-02-17,2023,0,10,0.0,105089.5,-5522.5,0
2023-02-19,2023,0,10,0.0,105089.5,-5522.5,0
2023-02-20,2023,0,10,0.0,105089.5,-5522.5,0
2023-02-21,2023,0,10,0.0,105089.5,-5522.5,0
2023-02-22,2023,0,10,0.0,105089.5,-5522.5,0
2023-02-23,2023,0,10,0.0,105089.5,-5522.5,0
2023-02-24,2023,0,10,0.0,105089.5,-5522.5,0
2023-02-26,2023,0,10,0.0,105089.5,-5522.5,0
2023-02-27,2023,0,10,0.0,105089.5,-5522.5,0
2023-02-28,2023,0,10,0.0,105089.5,-5522.5,0
2023-03-01,2023,0,10,0.0,105089.5,-5522.5,0
2023-03-02,2023,0,10,0.0,105089.5,-5522.5,0
2023-03-03,2023,0,10,0.0,105089.5,-5522.5,0
2023-03-05,2023,0,10,0.0,105089.5,-5522.5,0
2023-03-06,2023,0,10,0.0,105089.5,-5522.5,0
2023-03-07,2023,0,10,0.0,105089.5,-5522.5,0
2023-03-08,2023,0,10,0.0,105089.5,-5522.5,0
2023-03-09,2023,0,10,0.0,105089.5,-5522.5,0
2023-03-10,2023,0,10,0.0,105089.5,-5522.5,0
2023-03-12,2023,0,10,0.0,105089.5,-5522.5,0
2023-03-13,2023,0,10,0.0,105089.5,-5522.5,0
2023-03-14,2023,0,10,0.0,105089.5,-5522.5,0
2023-03-15,2023,0,10,0.0,105089.5,-5522.5,0
2023-03-16,2023,0,10,0.0,105089.5,-5522.5,0
2023-03-17,2023,0,10,0.0,105089.5,-5522.5,0
2023-03-19,2023,0,10,0.0,105089.5,-5522.5,0
2023-03-20,2023,0,10,0.0,105089.5,-5522.5,0
2023-03-21,2023,0,10,0.0,105089.5,-5522.5,0
2023-03-22,2023,0,10,0.0,105089.5,-5522.5,0
2023-03-23,2023,0,10,0.0,105089.5,-5522.5,0
2023-03-24,2023,0,10,0.0,105089.5,-5522.5,0
2023-03-26,2023,0,10,0.0,105089.5,-5522.5,0
2023-03-27,2023,0,10,0.0,105089.5,-5522.5,0
2023-03-28,2023,0,10,0.0,105089.5,-5522.5,0
2023-03-29,2023,0,10,0.0,105089.5,-5522.5,0
2023-03-30,2023,0,10,0.0,105089.5,-5522.5,0
2023-03-31,2023,0,10,0.0,105089.5,-5522.5,0
2023-04-02,2023,0,10,0.0,105089.5,-5522.5,0
2023-04-03,2023,0,10,0.0,105089.5,-5522.5,0
2023-04-04,2023,0,10,0.0,105089.5,-5522.5,0
2023-04-05,2023,0,10,0.0,105089.5,-5522.5,0
2023-04-06,2023,0,10,0.0,105089.5,-5522.5,0
2023-04-07,2023,0,10,0.0,105089.5,-5522.5,0
2023-04-09,2023,0,10,0.0,105089.5,-5522.5,0
2023-04-10,2023,0,10,0.0,105089.5,-5522.5,0
2023-04-11,2023,0,10,0.0,105089.5,-5522.5,0
2023-04-12,2023,0,10,0.0,105089.5,-5522.5,0
2023-04-13,2023,0,10,0.0,105089.5,-5522.5,0
2023-04-14,2023,0,10,0.0,105089.5,-5522.5,0
2023-04-16,2023,0,10,0.0,105089.5,-5522.5,0
2023-04-17,2023,0,10,0.0,105089.5,-5522.5,0
2023-04-18,2023,0,10,0.0,105089.5,-5522.5,0
2023-04-19,2023,0,10,0.0,105089.5,-5522.5,0
2023-04-20,2023,0,10,0.0,105089.5,-5522.5,0
2023-04-21,2023,0,10,0.0,105089.5,-5522.5,0
2023-04-23,2023,0,10,0.0,105089.5,-5522.5,0
2023-04-24,2023,0,10,0.0,105089.5,-5522.5,0
2023-04-25,2023,0,10,0.0,105089.5,-5522.5,0
2023-04-26,2023,0,10,0.0,105089.5,-5522.5,0
2023-04-27,2023,0,10,0.0,105089.5,-5522.5,0
2023-04-28,2023,0,10,0.0,105089.5,-5522.5,0
2023-04-30,2023,0,10,0.0,105089.5,-5522.5,0
2023-05-01,2023,0,10,0.0,105089.5,-5522.5,0
2023-05-02,2023,0,10,0.0,105089.5,-5522.5,0
2023-05-03,2023,0,10,0.0,105089.5,-5522.5,0
2023-05-04,2023,0,10,0.0,105089.5,-5522.5,0
2023-05-05,2023,0,10,0.0,105089.5,-5522.5,0
2023-05-07,2023,0,10,0.0,105089.5,-5522.5,0
2023-05-08,2023,0,10,0.0,105089.5,-5522.5,0
2023-05-09,2023,0,10,0.0,105089.5,-5522.5,0
2023-05-10,2023,0,10,0.0,105089.5,-5522.5,0
2023-05-11,2023,0,10,0.0,105089.5,-5522.5,0
2023-05-12,2023,0,10,0.0,105089.5,-5522.5,0
2023-05-14,2023,0,10,0.0,105089.5,-5522.5,0
2023-05-15,2023,0,10,0.0,105089.5,-5522.5,0
2023-05-16,2023,0,10,0.0,105089.5,-5522.5,0
2023-05-17,2023,0,10,0.0,105089.5,-5522.5,0
2023-05-18,2023,0,10,0.0,105089.5,-5522.5,0
2023-05-19,2023,0,10,0.0,105089.5,-5522.5,0
2023-05-21,2023,0,10,0.0,105089.5,-5522.5,0
2023-05-22,2023,0,10,0.0,105089.5,-5522.5,0
2023-05-23,2023,0,10,0.0,105089.5,-5522.5,0
2023-05-24,2023,0,10,0.0,105089.5,-5522.5,0
2023-05-25,2023,0,10,0.0,105089.5,-5522.5,0
2023-05-26,2023,0,10,0.0,105089.5,-5522.5,0
2023-05-28,2023,0,10,0.0,105089.5,-5522.5,0
2023-05-29,2023,0,10,0.0,105089.5,-5522.5,0
2023-05-30,2023,0,10,0.0,105089.5,-5522.5,0
2023-05-31,2023,0,10,0.0,105089.5,-5522.5,0
2023-06-01,2023,0,10,0.0,105089.5,-5522.5,0
2023-06-02,2023,0,10,0.0,105089.5,-5522.5,0
2023-06-04,2023,0,10,0.0,105089.5,-5522.5,0
2023-06-05,2023,0,10,0.0,105089.5,-5522.5,0
2023-06-06,2023,0,10,0.0,105089.5,-5522.5,0
2023-06-07,2023,0,10,0.0,105089.5,-5522.5,0
2023-06-08,2023,0,10,0.0,105089.5,-5522.5,0
2023-06-09,2023,0,10,0.0,105089.5,-5522.5,0
2023-06-11,2023,0,10,0.0,105089.5,-5522.5,0
2023-06-12,2023,0,10,0.0,105089.5,-5522.5,0
2023-06-13,2023,0,10,0.0,105089.5,-5522.5,0
2023-06-14,2023,0,10,0.0,105089.5,-5522.5,0
2023-06-15,2023,0,10,0.0,105089.5,-5522.5,0
2023-06-16,2023,0,10,0.0,105089.5,-5522.5,0
2023-06-18,2023,0,10,0.0,105089.5,-5522.5,0
2023-06-19,2023,0,10,0.0,105089.5,-5522.5,0
2023-06-20,2023,0,10,0.0,105089.5,-5522.5,0
2023-06-21,2023,0,10,0.0,105089.5,-5522.5,0
2023-06-22,2023,0,10,0.0,105089.5,-5522.5,0
2023-06-23,2023,0,10,0.0,105089.5,-5522.5,0
2023-06-25,2023,0,10,0.0,105089.5,-5522.5,0
2023-06-26,2023,0,10,0.0,105089.5,-5522.5,0
2023-06-27,2023,0,10,0.0,105089.5,-5522.5,0
2023-06-28,2023,0,10,0.0,105089.5,-5522.5,0
2023-06-29,2023,0,10,0.0,105089.5,-5522.5,0
2023-06-30,2023,0,10,0.0,105089.5,-5522.5,0
2023-07-02,2023,0,10,0.0,105089.5,-5522.5,0
2023-07-03,2023,0,10,0.0,105089.5,-5522.5,0
2023-07-04,2023,0,10,0.0,105089.5,-5522.5,0
2023-07-05,2023,0,10,0.0,105089.5,-5522.5,0
2023-07-06,2023,0,10,0.0,105089.5,-5522.5,0
2023-07-07,2023,0,10,0.0,105089.5,-5522.5,0
2023-07-09,2023,0,10,0.0,105089.5,-5522.5,0
2023-07-10,2023,0,10,0.0,105089.5,-5522.5,0
2023-07-11,2023,0,10,0.0,105089.5,-5522.5,0
2023-07-12,2023,0,10,0.0,105089.5,-5522.5,0
2023-07-13,2023,0,10,0.0,105089.5,-5522.5,0
2023-07-14,2023,0,10,0.0,105089.5,-5522.5,0
2023-07-16,2023,0,10,0.0,105089.5,-5522.5,0
2023-07-17,2023,0,10,0.0,105089.5,-5522.5,0
2023-07-18,2023,0,10,0.0,105089.5,-5522.5,0
2023-07-19,2023,0,10,0.0,105089.5,-5522.5,0
2023-07-20,2023,0,10,0.0,105089.5,-5522.5,0
2023-07-21,2023,0,10,0.0,105089.5,-5522.5,0
2023-07-23,2023,0,10,0.0,105089.5,-5522.5,0
2023-07-24,2023,0,10,0.0,105089.5,-5522.5,0
2023-07-25,2023,0,10,0.0,105089.5,-5522.5,0
2023-07-26,2023,0,10,0.0,105089.5,-5522.5,0
2023-07-27,2023,0,10,0.0,105089.5,-5522.5,0
2023-07-28,2023,0,10,0.0,105089.5,-5522.5,0
2023-07-30,2023,0,10,0.0,105089.5,-5522.5,0
2023-07-31,2023,0,10,0.0,105089.5,-5522.5,0
2023-08-01,2023,0,10,0.0,105089.5,-5522.5,0
2023-08-02,2023,0,10,0.0,105089.5,-5522.5,0
2023-08-03,2023,0,10,0.0,105089.5,-5522.5,0
2023-08-04,2023,0,10,0.0,105089.5,-5522.5,0
2023-08-06,2023,0,10,0.0,105089.5,-5522.5,0
2023-08-07,2023,0,10,0.0,105089.5,-5522.5,0
2023-08-08,2023,0,10,0.0,105089.5,-5522.5,0
2023-08-09,2023,0,10,0.0,105089.5,-5522.5,0
2023-08-10,2023,0,10,0.0,105089.5,-5522.5,0
2023-08-11,2023,0,10,0.0,105089.5,-5522.5,0
2023-08-13,2023,0,10,0.0,105089.5,-5522.5,0
2023-08-14,2023,0,10,0.0,105089.5,-5522.5,0
2023-08-15,2023,0,10,0.0,105089.5,-5522.5,0
2023-08-16,2023,0,10,0.0,105089.5,-5522.5,0
2023-08-17,2023,0,10,0.0,105089.5,-5522.5,0
2023-08-18,2023,0,10,0.0,105089.5,-5522.5,0
2023-08-20,2023,0,10,0.0,105089.5,-5522.5,0
2023-08-21,2023,0,10,0.0,105089.5,-5522.5,0
2023-08-22,2023,0,10,0.0,105089.5,-5522.5,0
2023-08-23,2023,0,10,0.0,105089.5,-5522.5,0
2023-08-24,2023,0,10,0.0,105089.5,-5522.5,0
2023-08-25,2023,0,10,0.0,105089.5,-5522.5,0
2023-08-27,2023,0,10,0.0,105089.5,-5522.5,0
2023-08-28,2023,0,10,0.0,105089.5,-5522.5,0
2023-08-29,2023,0,10,0.0,105089.5,-5522.5,0
2023-08-30,2023,0,10,409.5,105499.0,-5113.0,3
2023-08-31,2023,0,10,201.0,105700.0,-4912.0,3
2023-09-01,2023,0,10,-144.0,105556.0,-5056.0,3
2023-09-03,2023,0,10,25.5,105581.5,-5030.5,3
2023-09-04,2023,0,10,57.0,105638.5,-4973.5,3
2023-09-05,2023,0,10,-25.5,105613.0,-4999.0,3
2023-09-06,2023,0,10,-784.5,104828.5,-5783.5,3
2023-09-07,2023,0,10,-4.5,104824.0,-5788.0,0
2023-09-08,2023,0,10,0.0,104824.0,-5788.0,0
2023-09-10,2023,0,10,0.0,104824.0,-5788.0,0
2023-09-11,2023,0,10,0.0,104824.0,-5788.0,0
2023-09-12,2023,0,10,-913.5,103910.5,-6701.5,3
2023-09-13,2023,0,10,444.0,104354.5,-6257.5,3
2023-09-14,2023,0,10,585.0,104939.5,-5672.5,3
2023-09-15,2023,0,10,-1764.0,103175.5,-7436.5,3
2023-09-17,2023,0,10,3.0,103178.5,-7433.5,0
2023-09-18,2023,0,10,0.0,103178.5,-7433.5,0
2023-09-19,2023,0,10,0.0,103178.5,-7433.5,0
2023-09-20,2023,0,10,0.0,103178.5,-7433.5,0
2023-09-21,2023,0,10,0.0,103178.5,-7433.5,0
2023-09-22,2023,0,10,0.0,103178.5,-7433.5,0
2023-09-24,2023,0,10,0.0,103178.5,-7433.5,0
2023-09-25,2023,0,10,0.0,103178.5,-7433.5,0
2023-09-26,2023,0,10,0.0,103178.5,-7433.5,0
2023-09-27,2023,0,10,0.0,103178.5,-7433.5,0
2023-09-28,2023,0,10,0.0,103178.5,-7433.5,0
2023-09-29,2023,0,10,0.0,103178.5,-7433.5,0
2023-10-01,2023,0,10,0.0,103178.5,-7433.5,0
2023-10-02,2023,0,10,0.0,103178.5,-7433.5,0
2023-10-03,2023,0,10,0.0,103178.5,-7433.5,0
2023-10-04,2023,0,10,0.0,103178.5,-7433.5,0
2023-10-05,2023,0,10,0.0,103178.5,-7433.5,0
2023-10-06,2023,0,10,0.0,103178.5,-7433.5,0
2023-10-08,2023,0,10,0.0,103178.5,-7433.5,0
2023-10-09,2023,0,10,0.0,103178.5,-7433.5,0
2023-10-10,2023,0,10,0.0,103178.5,-7433.5,0
2023-10-11,2023,0,10,0.0,103178.5,-7433.5,0
2023-10-12,2023,0,10,-508.5,102670.0,-7942.0,3
2023-10-13,2023,0,10,0.0,102670.0,-7942.0,0
2023-10-15,2023,0,10,0.0,102670.0,-7942.0,0
2023-10-16,2023,0,10,0.0,102670.0,-7942.0,0
2023-10-17,2023,0,10,0.0,102670.0,-7942.0,0
2023-10-18,2023,0,10,0.0,102670.0,-7942.0,0
2023-10-19,2023,0,10,0.0,102670.0,-7942.0,0
2023-10-20,2023,0,10,0.0,102670.0,-7942.0,0
2023-10-22,2023,0,10,0.0,102670.0,-7942.0,0
2023-10-23,2023,0,10,0.0,102670.0,-7942.0,0
2023-10-24,2023,0,10,0.0,102670.0,-7942.0,0
2023-10-25,2023,0,10,0.0,102670.0,-7942.0,0
2023-10-26,2023,0,10,0.0,102670.0,-7942.0,0
2023-10-27,2023,0,10,0.0,102670.0,-7942.0,0
2023-10-29,2023,0,10,0.0,102670.0,-7942.0,0
2023-10-30,2023,0,10,0.0,102670.0,-7942.0,0
2023-10-31,2023,0,10,0.0,102670.0,-7942.0,0
2023-11-01,2023,0,10,0.0,102670.0,-7942.0,0
2023-11-02,2023,0,10,0.0,102670.0,-7942.0,0
2023-11-03,2023,0,10,0.0,102670.0,-7942.0,0
2023-11-05,2023,0,10,-67.5,102602.5,-8009.5,3
2023-11-06,2023,0,10,0.0,102602.5,-8009.5,0
2023-11-07,2023,0,10,957.0,103559.5,-7052.5,3
2023-11-08,2023,0,10,-61.5,103498.0,-7114.0,3
2023-11-09,2023,0,10,-751.5,102746.5,-7865.5,3
2023-11-10,2023,0,10,2091.0,104837.5,-5774.5,3
2023-11-12,2023,0,10,-126.0,104711.5,-5900.5,3
2023-11-13,2023,0,10,-10.5,104701.0,-5911.0,3
2023-11-14,2023,0,10,2077.5,106778.5,-3833.5,3
2023-11-15,2023,0,10,-238.5,106540.0,-4072.0,3
2023-11-16,2023,0,10,124.5,106664.5,-3947.5,3
2023-11-17,2023,0,10,-69.0,106595.5,-4016.5,4
2023-11-19,2023,0,10,-82.0,106513.5,-4098.5,4
2023-11-20,2023,0,10,1896.0,108409.5,-2202.5,4
2023-11-21,2023,0,10,-1172.0,107237.5,-3374.5,4
2023-11-22,2023,0,10,732.0,107969.5,-2642.5,4
2023-11-23,2023,0,10,150.0,108119.5,-2492.5,4
2023-11-24,2023,0,10,-430.0,107689.5,-2922.5,4
2023-11-26,2023,0,10,-196.0,107493.5,-3118.5,4
2023-11-27,2023,0,10,188.0,107681.5,-2930.5,4
2023-11-28,2023,0,10,348.0,108029.5,-2582.5,4
2023-11-29,2023,0,10,-50.0,107979.5,-2632.5,4
2023-11-30,2023,0,10,-660.0,107319.5,-3292.5,4
2023-12-01,2023,0,10,557.5,107877.0,-2735.0,5
2023-12-03,2023,0,10,-390.0,107487.0,-3125.0,5
2023-12-04,2023,0,10,-1425.0,106062.0,-4550.0,5
2023-12-05,2023,0,10,785.0,106847.0,-3765.0,5
2023-12-06,2023,0,10,-1115.0,105732.0,-4880.0,5
2023-12-07,2023,0,10,2035.0,107767.0,-2845.0,5
2023-12-08,2023,0,10,725.0,108492.0,-2120.0,5
2023-12-10,2023,0,10,120.0,108612.0,-2000.0,5
2023-12-11,2023,0,10,3502.5,112114.5,0.0,5
2023-12-12,2023,0,10,1547.5,113662.0,0.0,5
2023-12-13,2023,0,10,2065.0,115727.0,0.0,5
2023-12-14,2023,0,10,-555.0,115172.0,-555.0,5
2023-12-15,2023,0,10,517.0,115689.0,-38.0,6
2023-12-17,2023,0,10,93.0,115782.0,0.0,6
2023-12-18,2023,0,10,1206.0,116988.0,0.0,6
2023-12-19,2023,0,10,1242.0,118230.0,0.0,6
2023-12-20,2023,0,10,-2592.0,115638.0,-2592.0,6
2023-12-21,2023,0,10,1563.0,117201.0,-1029.0,6
2023-12-22,2023,0,10,246.0,117447.0,-783.0,6
2023-12-25,2023,0,10,498.0,117945.0,-285.0,6
2023-12-26,2023,0,10,1026.0,118971.0,0.0,6
2023-12-27,2023,0,10,387.0,119358.0,0.0,6
2023-12-28,2023,0,10,-252.0,119106.0,-252.0,6
2023-12-29,2023,0,10,-1188.0,117918.0,-1440.0,7
2024-01-01,2024,1,11,566.5,118484.5,-873.5,11
2024-01-02,2024,1,11,-6715.5,111769.0,-7589.0,11
2024-01-03,2024,1,11,-3850.0,107919.0,-11439.0,11
2024-01-04,2024,1,11,0.0,107919.0,-11439.0,0
2024-01-05,2024,1,11,0.0,107919.0,-11439.0,0
2024-01-07,2024,1,11,0.0,107919.0,-11439.0,0
2024-01-08,2024,1,11,0.0,107919.0,-11439.0,0
2024-01-09,2024,1,11,0.0,107919.0,-11439.0,0
2024-01-10,2024,1,11,0.0,107919.0,-11439.0,0
2024-01-11,2024,1,11,0.0,107919.0,-11439.0,0
2024-01-12,2024,1,11,0.0,107919.0,-11439.0,0
2024-01-14,2024,1,11,0.0,107919.0,-11439.0,0
2024-01-15,2024,1,11,0.0,107919.0,-11439.0,0
2024-01-16,2024,1,11,0.0,107919.0,-11439.0,0
2024-01-17,2024,1,11,-1004.0,106915.0,-12443.0,4
2024-01-18,2024,1,11,0.0,106915.0,-12443.0,0
2024-01-19,2024,1,11,2520.0,109435.0,-9923.0,4
2024-01-21,2024,1,11,164.0,109599.0,-9759.0,4
2024-01-22,2024,1,11,-154.0,109445.0,-9913.0,4
2024-01-23,2024,1,11,892.0,110337.0,-9021.0,4
2024-01-24,2024,1,11,328.0,110665.0,-8693.0,4
2024-01-25,2024,1,11,-596.0,110069.0,-9289.0,4
2024-01-26,2024,1,11,-302.0,109767.0,-9591.0,4
2024-01-28,2024,1,11,-200.0,109567.0,-9791.0,4
2024-01-29,2024,1,11,1938.0,111505.0,-7853.0,4
2024-01-30,2024,1,11,-2190.0,109315.0,-10043.0,4
2024-01-31,2024,1,11,-1326.0,107989.0,-11369.0,4
2024-02-01,2024,1,11,2488.0,110477.0,-8881.0,4
2024-02-02,2024,1,11,479.0,110956.0,-8402.0,6
2024-02-04,2024,1,11,258.0,111214.0,-8144.0,6
2024-02-05,2024,1,11,-135.0,111079.0,-8279.0,6
2024-02-06,2024,1,11,-531.0,110548.0,-8810.0,6
2024-02-07,2024,1,11,2286.0,112834.0,-6524.0,6
2024-02-08,2024,1,11,297.0,113131.0,-6227.0,6
2024-02-09,2024,1,11,2046.0,115177.0,-4181.0,6
2024-02-11,2024,1,11,-33.0,115144.0,-4214.0,6
2024-02-12,2024,1,11,-1173.0,113971.0,-5387.0,6
2024-02-13,2024,1,11,-2964.0,111007.0,-8351.0,6
2024-02-14,2024,1,11,2262.0,113269.0,-6089.0,6
2024-02-15,2024,1,11,885.0,114154.0,-5204.0,6
2024-02-16,2024,1,11,-2814.0,111340.0,-8018.0,8
2024-02-18,2024,1,11,900.0,112240.0,-7118.0,8
2024-02-19,2024,1,11,-468.0,111772.0,-7586.0,8
2024-02-20,2024,1,11,-2880.0,108892.0,-10466.0,8
2024-02-21,2024,1,11,2172.0,111064.0,-8294.0,8
2024-02-22,2024,1,11,5400.0,116464.0,-2894.0,8
2024-02-23,2024,1,11,-1288.0,115176.0,-4182.0,8
2024-02-25,2024,1,11,344.0,115520.0,-3838.0,8
2024-02-26,2024,1,11,-312.0,115208.0,-4150.0,8
2024-02-27,2024,1,11,672.0,115880.0,-3478.0,8
2024-02-28,2024,1,11,-2164.0,113716.0,-5642.0,8
2024-02-29,2024,1,11,3036.0,116752.0,-2606.0,8
2024-03-01,2024,1,11,4097.0,120849.0,0.0,10
2024-03-03,2024,1,11,440.0,121289.0,0.0,10
2024-03-04,2024,1,11,-2405.0,118884.0,-2405.0,10
2024-03-05,2024,1,11,-5215.0,113669.0,-7620.0,10
2024-03-06,2024,1,11,1120.0,114789.0,-6500.0,10
2024-03-07,2024,1,11,4955.0,119744.0,-1545.0,10
2024-03-08,2024,1,11,-4220.0,115524.0,-5765.0,10
2024-03-10,2024,1,11,-250.0,115274.0,-6015.0,10
2024-03-11,2024,1,11,5025.0,120299.0,-990.0,10
2024-03-12,2024,1,11,3690.0,123989.0,0.0,10
2024-03-13,2024,1,11,-2110.0,121879.0,-2110.0,10
2024-03-14,2024,1,11,-2690.0,119189.0,-4800.0,10
2024-03-15,2024,1,11,-3512.0,115677.0,-8312.0,11
2024-03-17,2024,1,11,341.0,116018.0,-7971.0,11
2024-03-18,2024,1,11,2475.0,118493.0,-5496.0,11
2024-03-19,2024,1,11,1694.0,120187.0,-3802.0,11
2024-03-20,2024,1,11,6825.5,127012.5,0.0,11
2024-03-21,2024,1,11,225.5,127238.0,0.0,11
2024-03-22,2024,1,11,-550.0,126688.0,-550.0,11
2024-03-24,2024,1,11,484.0,127172.0,-66.0,11
2024-03-25,2024,1,11,-1001.0,126171.0,-1067.0,11
2024-03-26,2024,1,11,-1127.5,125043.5,-2194.5,11
2024-03-27,2024,1,11,-198.0,124845.5,-2392.5,11
2024-03-28,2024,1,11,-330.0,124515.5,-2722.5,11
2024-03-31,2024,1,11,3151.5,127667.0,0.0,11
2024-04-01,2024,1,11,-3041.5,124625.5,-3041.5,11
2024-04-02,2024,1,11,-3118.5,121507.0,-6160.0,11
2024-04-03,2024,1,11,2579.5,124086.5,-3580.5,11
2024-04-04,2024,1,11,-7793.5,116293.0,-11374.0,11
2024-04-05,2024,1,11,4818.0,121111.0,-6556.0,11
2024-04-07,2024,1,11,187.0,121298.0,-6369.0,11
2024-04-08,2024,1,11,-379.5,120918.5,-6748.5,11
2024-04-09,2024,1,11,1457.5,122376.0,-5291.0,11
2024-04-10,2024,1,11,-4609.0,117767.0,-9900.0,11
2024-04-11,2024,1,11,7298.5,125065.5,-2601.5,11
2024-04-12,2024,1,11,-7012.5,118053.0,-9614.0,11
2024-04-14,2024,1,11,1457.5,119510.5,-8156.5,11
2024-04-15,2024,1,11,-8079.5,111431.0,-16236.0,11
2024-04-16,2024,1,11,27.5,111458.5,-16208.5,0
2024-04-17,2024,1,11,0.0,111458.5,-16208.5,0
2024-04-18,2024,1,11,0.0,111458.5,-16208.5,0
2024-04-19,2024,1,11,0.0,111458.5,-16208.5,0
2024-04-21,2024,1,11,0.0,111458.5,-16208.5,0
2024-04-22,2024,1,11,0.0,111458.5,-16208.5,0
2024-04-23,2024,1,11,0.0,111458.5,-16208.5,0
2024-04-24,2024,1,11,0.0,111458.5,-16208.5,0
2024-04-25,2024,1,11,0.0,111458.5,-16208.5,0
2024-04-26,2024,1,11,0.0,111458.5,-16208.5,0
2024-04-28,2024,1,11,0.0,111458.5,-16208.5,0
2024-04-29,2024,1,11,0.0,111458.5,-16208.5,0
2024-04-30,2024,1,11,0.0,111458.5,-16208.5,0
2024-05-01,2024,1,11,0.0,111458.5,-16208.5,0
2024-05-02,2024,1,11,0.0,111458.5,-16208.5,0
2024-05-03,2024,1,11,0.0,111458.5,-16208.5,0
2024-05-05,2024,1,11,0.0,111458.5,-16208.5,0
2024-05-06,2024,1,11,0.0,111458.5,-16208.5,0
2024-05-07,2024,1,11,164.0,111622.5,-16044.5,4
2024-05-08,2024,1,11,-340.0,111282.5,-16384.5,4
2024-05-09,2024,1,11,-2.0,111280.5,-16386.5,0
2024-05-10,2024,1,11,62.0,111342.5,-16324.5,4
2024-05-12,2024,1,11,48.0,111390.5,-16276.5,4
2024-05-13,2024,1,11,306.0,111696.5,-15970.5,4
2024-05-14,2024,1,11,1066.0,112762.5,-14904.5,4
2024-05-15,2024,1,11,2432.0,115194.5,-12472.5,4
2024-05-16,2024,1,11,-558.0,114636.5,-13030.5,4
2024-05-17,2024,1,11,-140.0,114496.5,-13170.5,4
2024-05-19,2024,1,11,266.0,114762.5,-12904.5,4
2024-05-20,2024,1,11,678.0,115440.5,-12226.5,4
2024-05-21,2024,1,11,494.0,115934.5,-11732.5,4
2024-05-22,2024,1,11,490.0,116424.5,-11242.5,4
2024-05-23,2024,1,11,-1390.0,115034.5,-12632.5,4
2024-05-24,2024,1,11,1418.0,116452.5,-11214.5,6
2024-05-26,2024,1,11,-423.0,116029.5,-11637.5,6
2024-05-27,2024,1,11,861.0,116890.5,-10776.5,6
2024-05-28,2024,1,11,261.0,117151.5,-10515.5,6
2024-05-29,2024,1,11,-2478.0,114673.5,-12993.5,6
2024-05-30,2024,1,11,-1974.0,112699.5,-14967.5,6
2024-05-31,2024,1,11,153.0,112852.5,-14814.5,6
2024-06-02,2024,1,11,243.0,113095.5,-14571.5,6
2024-06-03,2024,1,11,702.0,113797.5,-13869.5,6
2024-06-04,2024,1,11,1047.0,114844.5,-12822.5,6
2024-06-05,2024,1,11,4242.0,119086.5,-8580.5,6
2024-06-06,2024,1,11,-195.0,118891.5,-8775.5,6
2024-06-07,2024,1,11,-552.0,118339.5,-9327.5,8
2024-06-09,2024,1,11,-64.0,118275.5,-9391.5,8
2024-06-10,2024,1,11,924.0,119199.5,-8467.5,8
2024-06-11,2024,1,11,2752.0,121951.5,-5715.5,8
2024-06-12,2024,1,11,5496.0,127447.5,-219.5,8
2024-06-13,2024,1,11,292.0,127739.5,0.0,8
2024-06-14,2024,1,11,1244.0,128983.5,0.0,8
2024-06-16,2024,1,11,244.0,129227.5,0.0,8
2024-06-17,2024,1,11,7896.0,137123.5,0.0,8
2024-06-18,2024,1,11,292.0,137415.5,0.0,8
2024-06-19,2024,1,11,204.0,137619.5,0.0,8
2024-06-20,2024,1,11,-2664.0,134955.5,-2664.0,8
2024-06-21,2024,1,11,-890.0,134065.5,-3554.0,10
2024-06-23,2024,1,11,-15.0,134050.5,-3569.0,10
2024-06-24,2024,1,11,-4730.0,129320.5,-8299.0,10
2024-06-25,2024,1,11,3880.0,133200.5,-4419.0,10
2024-06-26,2024,1,11,-940.0,132260.5,-5359.0,10
2024-06-27,2024,1,11,3535.0,135795.5,-1824.0,10
2024-06-28,2024,1,11,-2570.0,133225.5,-4394.0,10
2024-06-30,2024,1,11,-420.0,132805.5,-4814.0,10
2024-07-01,2024,1,11,1460.0,134265.5,-3354.0,10
2024-07-02,2024,1,11,4375.0,138640.5,0.0,10
2024-07-03,2024,1,11,3290.0,141930.5,0.0,10
2024-07-04,2024,1,11,-235.0,141695.5,-235.0,10
2024-07-05,2024,1,11,3921.5,145617.0,0.0,11
2024-07-07,2024,1,11,5.5,145622.5,0.0,11
2024-07-08,2024,1,11,3250.5,148873.0,0.0,11
2024-07-09,2024,1,11,-896.5,147976.5,-896.5,11
2024-07-10,2024,1,11,4042.5,152019.0,0.0,11
2024-07-11,2024,1,11,-10268.5,141750.5,-10268.5,11
2024-07-12,2024,1,11,2755.5,144506.0,-7513.0,11
2024-07-14,2024,1,11,445.5,144951.5,-7067.5,11
2024-07-15,2024,1,11,1578.5,146530.0,-5489.0,11
2024-07-16,2024,1,11,-1463.0,145067.0,-6952.0,11
2024-07-17,2024,1,11,-11148.5,133918.5,-18100.5,11
2024-07-18,2024,1,11,-22.0,133896.5,-18122.5,0
2024-07-19,2024,1,11,0.0,133896.5,-18122.5,0
2024-07-21,2024,1,11,0.0,133896.5,-18122.5,0
2024-07-22,2024,1,11,0.0,133896.5,-18122.5,0
2024-07-23,2024,1,11,0.0,133896.5,-18122.5,0
2024-07-24,2024,1,11,0.0,133896.5,-18122.5,0
2024-07-25,2024,1,11,0.0,133896.5,-18122.5,0
2024-07-26,2024,1,11,0.0,133896.5,-18122.5,0
2024-07-28,2024,1,11,0.0,133896.5,-18122.5,0
2024-07-29,2024,1,11,0.0,133896.5,-18122.5,0
2024-07-30,2024,1,11,0.0,133896.5,-18122.5,0
2024-07-31,2024,1,11,0.0,133896.5,-18122.5,0
2024-08-01,2024,1,11,0.0,133896.5,-18122.5,0
2024-08-02,2024,1,11,0.0,133896.5,-18122.5,0
2024-08-04,2024,1,11,0.0,133896.5,-18122.5,0
2024-08-05,2024,1,11,0.0,133896.5,-18122.5,0
2024-08-06,2024,1,11,0.0,133896.5,-18122.5,0
2024-08-07,2024,1,11,0.0,133896.5,-18122.5,0
2024-08-08,2024,1,11,0.0,133896.5,-18122.5,0
2024-08-09,2024,1,11,0.0,133896.5,-18122.5,0
2024-08-11,2024,1,11,0.0,133896.5,-18122.5,0
2024-08-12,2024,1,11,0.0,133896.5,-18122.5,0
2024-08-13,2024,1,11,0.0,133896.5,-18122.5,0
2024-08-14,2024,1,11,0.0,133896.5,-18122.5,0
2024-08-15,2024,1,11,0.0,133896.5,-18122.5,0
2024-08-16,2024,1,11,0.0,133896.5,-18122.5,0
2024-08-18,2024,1,11,0.0,133896.5,-18122.5,0
2024-08-19,2024,1,11,0.0,133896.5,-18122.5,0
2024-08-20,2024,1,11,0.0,133896.5,-18122.5,0
2024-08-21,2024,1,11,0.0,133896.5,-18122.5,0
2024-08-22,2024,1,11,0.0,133896.5,-18122.5,0
2024-08-23,2024,1,11,0.0,133896.5,-18122.5,0
2024-08-25,2024,1,11,0.0,133896.5,-18122.5,0
2024-08-26,2024,1,11,0.0,133896.5,-18122.5,0
2024-08-27,2024,1,11,0.0,133896.5,-18122.5,0
2024-08-28,2024,1,11,0.0,133896.5,-18122.5,0
2024-08-29,2024,1,11,0.0,133896.5,-18122.5,0
2024-08-30,2024,1,11,0.0,133896.5,-18122.5,0
2024-09-01,2024,1,11,0.0,133896.5,-18122.5,0
2024-09-02,2024,1,11,0.0,133896.5,-18122.5,0
2024-09-03,2024,1,11,0.0,133896.5,-18122.5,0
2024-09-04,2024,1,11,0.0,133896.5,-18122.5,0
2024-09-05,2024,1,11,0.0,133896.5,-18122.5,0
2024-09-06,2024,1,11,0.0,133896.5,-18122.5,0
2024-09-08,2024,1,11,0.0,133896.5,-18122.5,0
2024-09-09,2024,1,11,0.0,133896.5,-18122.5,0
2024-09-10,2024,1,11,0.0,133896.5,-18122.5,0
2024-09-11,2024,1,11,0.0,133896.5,-18122.5,0
2024-09-12,2024,1,11,0.0,133896.5,-18122.5,0
2024-09-13,2024,1,11,0.0,133896.5,-18122.5,0
2024-09-15,2024,1,11,0.0,133896.5,-18122.5,0
2024-09-16,2024,1,11,0.0,133896.5,-18122.5,0
2024-09-17,2024,1,11,0.0,133896.5,-18122.5,0
2024-09-18,2024,1,11,0.0,133896.5,-18122.5,0
2024-09-19,2024,1,11,0.0,133896.5,-18122.5,0
2024-09-20,2024,1,11,0.0,133896.5,-18122.5,0
2024-09-22,2024,1,11,0.0,133896.5,-18122.5,0
2024-09-23,2024,1,11,0.0,133896.5,-18122.5,0
2024-09-24,2024,1,11,0.0,133896.5,-18122.5,0
2024-09-25,2024,1,11,0.0,133896.5,-18122.5,0
2024-09-26,2024,1,11,0.0,133896.5,-18122.5,0
2024-09-27,2024,1,11,0.0,133896.5,-18122.5,0
2024-09-29,2024,1,11,0.0,133896.5,-18122.5,0
2024-09-30,2024,1,11,0.0,133896.5,-18122.5,0
2024-10-01,2024,1,11,0.0,133896.5,-18122.5,0
2024-10-02,2024,1,11,0.0,133896.5,-18122.5,0
2024-10-03,2024,1,11,0.0,133896.5,-18122.5,0
2024-10-04,2024,1,11,0.0,133896.5,-18122.5,0
2024-10-06,2024,1,11,0.0,133896.5,-18122.5,0
2024-10-07,2024,1,11,0.0,133896.5,-18122.5,0
2024-10-08,2024,1,11,0.0,133896.5,-18122.5,0
2024-10-09,2024,1,11,0.0,133896.5,-18122.5,0
2024-10-10,2024,1,11,0.0,133896.5,-18122.5,0
2024-10-11,2024,1,11,0.0,133896.5,-18122.5,0
2024-10-13,2024,1,11,0.0,133896.5,-18122.5,0
2024-10-14,2024,1,11,0.0,133896.5,-18122.5,0
2024-10-15,2024,1,11,0.0,133896.5,-18122.5,0
2024-10-16,2024,1,11,0.0,133896.5,-18122.5,0
2024-10-17,2024,1,11,0.0,133896.5,-18122.5,0
2024-10-18,2024,1,11,0.0,133896.5,-18122.5,0
2024-10-20,2024,1,11,0.0,133896.5,-18122.5,0
2024-10-21,2024,1,11,0.0,133896.5,-18122.5,0
2024-10-22,2024,1,11,0.0,133896.5,-18122.5,0
2024-10-23,2024,1,11,0.0,133896.5,-18122.5,0
2024-10-24,2024,1,11,0.0,133896.5,-18122.5,0
2024-10-25,2024,1,11,0.0,133896.5,-18122.5,0
2024-10-27,2024,1,11,0.0,133896.5,-18122.5,0
2024-10-28,2024,1,11,0.0,133896.5,-18122.5,0
2024-10-29,2024,1,11,0.0,133896.5,-18122.5,0
2024-10-30,2024,1,11,0.0,133896.5,-18122.5,0
2024-10-31,2024,1,11,0.0,133896.5,-18122.5,0
2024-11-01,2024,1,11,0.0,133896.5,-18122.5,0
2024-11-03,2024,1,11,0.0,133896.5,-18122.5,0
2024-11-04,2024,1,11,0.0,133896.5,-18122.5,0
2024-11-05,2024,1,11,0.0,133896.5,-18122.5,0
2024-11-06,2024,1,11,0.0,133896.5,-18122.5,0
2024-11-07,2024,1,11,0.0,133896.5,-18122.5,0
2024-11-08,2024,1,11,0.0,133896.5,-18122.5,0
2024-11-10,2024,1,11,0.0,133896.5,-18122.5,0
2024-11-11,2024,1,11,0.0,133896.5,-18122.5,0
2024-11-12,2024,1,11,0.0,133896.5,-18122.5,0
2024-11-13,2024,1,11,0.0,133896.5,-18122.5,0
2024-11-14,2024,1,11,0.0,133896.5,-18122.5,0
2024-11-15,2024,1,11,0.0,133896.5,-18122.5,0
2024-11-17,2024,1,11,0.0,133896.5,-18122.5,0
2024-11-18,2024,1,11,0.0,133896.5,-18122.5,0
2024-11-19,2024,1,11,0.0,133896.5,-18122.5,0
2024-11-20,2024,1,11,0.0,133896.5,-18122.5,0
2024-11-21,2024,1,11,0.0,133896.5,-18122.5,0
2024-11-22,2024,1,11,0.0,133896.5,-18122.5,0
2024-11-24,2024,1,11,0.0,133896.5,-18122.5,0
2024-11-25,2024,1,11,0.0,133896.5,-18122.5,0
2024-11-26,2024,1,11,0.0,133896.5,-18122.5,0
2024-11-27,2024,1,11,0.0,133896.5,-18122.5,0
2024-11-28,2024,1,11,0.0,133896.5,-18122.5,0
2024-11-29,2024,1,11,0.0,133896.5,-18122.5,0
2024-12-01,2024,1,11,0.0,133896.5,-18122.5,0
2024-12-02,2024,1,11,0.0,133896.5,-18122.5,0
2024-12-03,2024,1,11,0.0,133896.5,-18122.5,0
2024-12-04,2024,1,11,0.0,133896.5,-18122.5,0
2024-12-05,2024,1,11,0.0,133896.5,-18122.5,0
2024-12-06,2024,1,11,0.0,133896.5,-18122.5,0
2024-12-08,2024,1,11,0.0,133896.5,-18122.5,0
2024-12-09,2024,1,11,0.0,133896.5,-18122.5,0
2024-12-10,2024,1,11,0.0,133896.5,-18122.5,0
2024-12-11,2024,1,11,0.0,133896.5,-18122.5,0
2024-12-12,2024,1,11,0.0,133896.5,-18122.5,0
2024-12-13,2024,1,11,0.0,133896.5,-18122.5,0
2024-12-15,2024,1,11,0.0,133896.5,-18122.5,0
2024-12-16,2024,1,11,0.0,133896.5,-18122.5,0
2024-12-17,2024,1,11,0.0,133896.5,-18122.5,0
2024-12-18,2024,1,11,0.0,133896.5,-18122.5,0
2024-12-19,2024,1,11,0.0,133896.5,-18122.5,0
2024-12-20,2024,1,11,0.0,133896.5,-18122.5,0
2024-12-22,2024,1,11,0.0,133896.5,-18122.5,0
2024-12-23,2024,1,11,0.0,133896.5,-18122.5,0
2024-12-24,2024,1,11,0.0,133896.5,-18122.5,0
2024-12-25,2024,1,11,0.0,133896.5,-18122.5,0
2024-12-26,2024,1,11,0.0,133896.5,-18122.5,0
2024-12-27,2024,1,11,0.0,133896.5,-18122.5,0
2024-12-29,2024,1,11,0.0,133896.5,-18122.5,0
2024-12-30,2024,1,11,0.0,133896.5,-18122.5,0
2024-12-31,2024,1,11,0.0,133896.5,-18122.5,0
2025-01-01,2025,2,12,0.0,133896.5,-18122.5,0
2025-01-02,2025,2,12,0.0,133896.5,-18122.5,0
2025-01-03,2025,2,12,0.0,133896.5,-18122.5,0
2025-01-05,2025,2,12,0.0,133896.5,-18122.5,0
2025-01-06,2025,2,12,0.0,133896.5,-18122.5,0
2025-01-07,2025,2,12,0.0,133896.5,-18122.5,0
2025-01-08,2025,2,12,0.0,133896.5,-18122.5,0
2025-01-09,2025,2,12,0.0,133896.5,-18122.5,0
2025-01-10,2025,2,12,0.0,133896.5,-18122.5,0
2025-01-12,2025,2,12,0.0,133896.5,-18122.5,0
2025-01-13,2025,2,12,0.0,133896.5,-18122.5,0
2025-01-14,2025,2,12,0.0,133896.5,-18122.5,0
2025-01-15,2025,2,12,0.0,133896.5,-18122.5,0
2025-01-16,2025,2,12,0.0,133896.5,-18122.5,0
2025-01-17,2025,2,12,0.0,133896.5,-18122.5,0
2025-01-19,2025,2,12,0.0,133896.5,-18122.5,0
2025-01-20,2025,2,12,0.0,133896.5,-18122.5,0
2025-01-21,2025,2,12,0.0,133896.5,-18122.5,0
2025-01-22,2025,2,12,0.0,133896.5,-18122.5,0
2025-01-23,2025,2,12,452.5,134349.0,-17670.0,5
2025-01-24,2025,2,12,-1022.5,133326.5,-18692.5,5
2025-01-26,2025,2,12,-1347.5,131979.0,-20040.0,0
2025-01-27,2025,2,12,0.0,131979.0,-20040.0,0
2025-01-28,2025,2,12,0.0,131979.0,-20040.0,0
2025-01-29,2025,2,12,0.0,131979.0,-20040.0,0
2025-01-30,2025,2,12,0.0,131979.0,-20040.0,0
2025-01-31,2025,2,12,0.0,131979.0,-20040.0,0
2025-02-02,2025,2,12,0.0,131979.0,-20040.0,0
2025-02-03,2025,2,12,0.0,131979.0,-20040.0,0
2025-02-04,2025,2,12,0.0,131979.0,-20040.0,0
2025-02-05,2025,2,12,0.0,131979.0,-20040.0,0
2025-02-06,2025,2,12,0.0,131979.0,-20040.0,0
2025-02-07,2025,2,12,0.0,131979.0,-20040.0,0
2025-02-09,2025,2,12,0.0,131979.0,-20040.0,0
2025-02-10,2025,2,12,0.0,131979.0,-20040.0,0
2025-02-11,2025,2,12,0.0,131979.0,-20040.0,0
2025-02-12,2025,2,12,0.0,131979.0,-20040.0,0
2025-02-13,2025,2,12,0.0,131979.0,-20040.0,0
2025-02-14,2025,2,12,1182.5,133161.5,-18857.5,5
2025-02-16,2025,2,12,85.0,133246.5,-18772.5,5
2025-02-17,2025,2,12,90.0,133336.5,-18682.5,5
2025-02-18,2025,2,12,300.0,133636.5,-18382.5,5
2025-02-19,2025,2,12,-330.0,133306.5,-18712.5,5
2025-02-20,2025,2,12,-560.0,132746.5,-19272.5,5
2025-02-21,2025,2,12,-5020.0,127726.5,-24292.5,5
2025-02-23,2025,2,12,412.5,128139.0,-23880.0,0
2025-02-24,2025,2,12,0.0,128139.0,-23880.0,0
2025-02-25,2025,2,12,0.0,128139.0,-23880.0,0
2025-02-26,2025,2,12,0.0,128139.0,-23880.0,0
2025-02-27,2025,2,12,0.0,128139.0,-23880.0,0
2025-02-28,2025,2,12,0.0,128139.0,-23880.0,0
2025-03-02,2025,2,12,0.0,128139.0,-23880.0,0
2025-03-03,2025,2,12,0.0,128139.0,-23880.0,0
2025-03-04,2025,2,12,0.0,128139.0,-23880.0,0
2025-03-05,2025,2,12,0.0,128139.0,-23880.0,0
2025-03-06,2025,2,12,0.0,128139.0,-23880.0,0
2025-03-07,2025,2,12,0.0,128139.0,-23880.0,0
2025-03-09,2025,2,12,0.0,128139.0,-23880.0,0
2025-03-10,2025,2,12,0.0,128139.0,-23880.0,0
2025-03-11,2025,2,12,0.0,128139.0,-23880.0,0
2025-03-12,2025,2,12,0.0,128139.0,-23880.0,0
2025-03-13,2025,2,12,0.0,128139.0,-23880.0,0
2025-03-14,2025,2,12,0.0,128139.0,-23880.0,0
2025-03-16,2025,2,12,0.0,128139.0,-23880.0,0
2025-03-17,2025,2,12,0.0,128139.0,-23880.0,0
2025-03-18,2025,2,12,0.0,128139.0,-23880.0,0
2025-03-19,2025,2,12,0.0,128139.0,-23880.0,0
2025-03-20,2025,2,12,0.0,128139.0,-23880.0,0
2025-03-21,2025,2,12,0.0,128139.0,-23880.0,0
2025-03-23,2025,2,12,0.0,128139.0,-23880.0,0
2025-03-24,2025,2,12,0.0,128139.0,-23880.0,0
2025-03-25,2025,2,12,0.0,128139.0,-23880.0,0
2025-03-26,2025,2,12,0.0,128139.0,-23880.0,0
2025-03-27,2025,2,12,0.0,128139.0,-23880.0,0
2025-03-28,2025,2,12,0.0,128139.0,-23880.0,0
2025-03-30,2025,2,12,0.0,128139.0,-23880.0,0
2025-03-31,2025,2,12,0.0,128139.0,-23880.0,0
2025-04-01,2025,2,12,0.0,128139.0,-23880.0,0
2025-04-02,2025,2,12,0.0,128139.0,-23880.0,0
2025-04-03,2025,2,12,0.0,128139.0,-23880.0,0
2025-04-04,2025,2,12,0.0,128139.0,-23880.0,0
2025-04-06,2025,2,12,0.0,128139.0,-23880.0,0
2025-04-07,2025,2,12,0.0,128139.0,-23880.0,0
2025-04-08,2025,2,12,0.0,128139.0,-23880.0,0
2025-04-09,2025,2,12,0.0,128139.0,-23880.0,0
2025-04-10,2025,2,12,0.0,128139.0,-23880.0,0
2025-04-11,2025,2,12,0.0,128139.0,-23880.0,0
2025-04-13,2025,2,12,0.0,128139.0,-23880.0,0
2025-04-14,2025,2,12,0.0,128139.0,-23880.0,0
2025-04-15,2025,2,12,0.0,128139.0,-23880.0,0
2025-04-16,2025,2,12,0.0,128139.0,-23880.0,0
2025-04-17,2025,2,12,0.0,128139.0,-23880.0,0
2025-04-20,2025,2,12,0.0,128139.0,-23880.0,0
2025-04-21,2025,2,12,0.0,128139.0,-23880.0,0
2025-04-22,2025,2,12,0.0,128139.0,-23880.0,0
2025-04-23,2025,2,12,0.0,128139.0,-23880.0,0
2025-04-24,2025,2,12,0.0,128139.0,-23880.0,0
2025-04-25,2025,2,12,0.0,128139.0,-23880.0,0
2025-04-27,2025,2,12,0.0,128139.0,-23880.0,0
2025-04-28,2025,2,12,0.0,128139.0,-23880.0,0
2025-04-29,2025,2,12,0.0,128139.0,-23880.0,0
2025-04-30,2025,2,12,0.0,128139.0,-23880.0,0
2025-05-01,2025,2,12,0.0,128139.0,-23880.0,0
2025-05-02,2025,2,12,0.0,128139.0,-23880.0,0
2025-05-04,2025,2,12,0.0,128139.0,-23880.0,0
2025-05-05,2025,2,12,0.0,128139.0,-23880.0,0
2025-05-06,2025,2,12,0.0,128139.0,-23880.0,0
2025-05-07,2025,2,12,0.0,128139.0,-23880.0,0
2025-05-08,2025,2,12,0.0,128139.0,-23880.0,0
2025-05-09,2025,2,12,0.0,128139.0,-23880.0,0
2025-05-11,2025,2,12,0.0,128139.0,-23880.0,0
2025-05-12,2025,2,12,0.0,128139.0,-23880.0,0
2025-05-13,2025,2,12,0.0,128139.0,-23880.0,0
2025-05-14,2025,2,12,0.0,128139.0,-23880.0,0
2025-05-15,2025,2,12,0.0,128139.0,-23880.0,0
2025-05-16,2025,2,12,0.0,128139.0,-23880.0,0
2025-05-18,2025,2,12,0.0,128139.0,-23880.0,0
2025-05-19,2025,2,12,0.0,128139.0,-23880.0,0
2025-05-20,2025,2,12,0.0,128139.0,-23880.0,0
2025-05-21,2025,2,12,0.0,128139.0,-23880.0,0
2025-05-22,2025,2,12,0.0,128139.0,-23880.0,0
2025-05-23,2025,2,12,0.0,128139.0,-23880.0,0
2025-05-25,2025,2,12,0.0,128139.0,-23880.0,0
2025-05-26,2025,2,12,0.0,128139.0,-23880.0,0
2025-05-27,2025,2,12,0.0,128139.0,-23880.0,0
2025-05-28,2025,2,12,0.0,128139.0,-23880.0,0
2025-05-29,2025,2,12,0.0,128139.0,-23880.0,0
2025-05-30,2025,2,12,0.0,128139.0,-23880.0,0
2025-06-01,2025,2,12,0.0,128139.0,-23880.0,0
2025-06-02,2025,2,12,0.0,128139.0,-23880.0,0
2025-06-03,2025,2,12,0.0,128139.0,-23880.0,0
2025-06-04,2025,2,12,0.0,128139.0,-23880.0,0
2025-06-05,2025,2,12,0.0,128139.0,-23880.0,0
2025-06-06,2025,2,12,0.0,128139.0,-23880.0,0
2025-06-08,2025,2,12,0.0,128139.0,-23880.0,0
2025-06-09,2025,2,12,0.0,128139.0,-23880.0,0
2025-06-10,2025,2,12,0.0,128139.0,-23880.0,0
2025-06-11,2025,2,12,0.0,128139.0,-23880.0,0
2025-06-12,2025,2,12,0.0,128139.0,-23880.0,0
2025-06-13,2025,2,12,0.0,128139.0,-23880.0,0
2025-06-15,2025,2,12,0.0,128139.0,-23880.0,0
2025-06-16,2025,2,12,0.0,128139.0,-23880.0,0
2025-06-17,2025,2,12,0.0,128139.0,-23880.0,0
2025-06-18,2025,2,12,0.0,128139.0,-23880.0,0
2025-06-19,2025,2,12,0.0,128139.0,-23880.0,0
2025-06-20,2025,2,12,0.0,128139.0,-23880.0,0
2025-06-22,2025,2,12,0.0,128139.0,-23880.0,0
2025-06-23,2025,2,12,0.0,128139.0,-23880.0,0
2025-06-24,2025,2,12,0.0,128139.0,-23880.0,0
2025-06-25,2025,2,12,0.0,128139.0,-23880.0,0
2025-06-26,2025,2,12,0.0,128139.0,-23880.0,0
2025-06-27,2025,2,12,0.0,128139.0,-23880.0,0
2025-06-29,2025,2,12,0.0,128139.0,-23880.0,0
2025-06-30,2025,2,12,0.0,128139.0,-23880.0,0
2025-07-01,2025,2,12,0.0,128139.0,-23880.0,0
2025-07-02,2025,2,12,0.0,128139.0,-23880.0,0
2025-07-03,2025,2,12,0.0,128139.0,-23880.0,0
2025-07-04,2025,2,12,0.0,128139.0,-23880.0,0
2025-07-06,2025,2,12,0.0,128139.0,-23880.0,0
2025-07-07,2025,2,12,0.0,128139.0,-23880.0,0
2025-07-08,2025,2,12,0.0,128139.0,-23880.0,0
2025-07-09,2025,2,12,0.0,128139.0,-23880.0,0
2025-07-10,2025,2,12,0.0,128139.0,-23880.0,0
2025-07-11,2025,2,12,0.0,128139.0,-23880.0,0
2025-07-13,2025,2,12,0.0,128139.0,-23880.0,0
2025-07-14,2025,2,12,0.0,128139.0,-23880.0,0
2025-07-15,2025,2,12,0.0,128139.0,-23880.0,0
2025-07-16,2025,2,12,0.0,128139.0,-23880.0,0
2025-07-17,2025,2,12,0.0,128139.0,-23880.0,0
2025-07-18,2025,2,12,0.0,128139.0,-23880.0,0
2025-07-20,2025,2,12,0.0,128139.0,-23880.0,0
2025-07-21,2025,2,12,0.0,128139.0,-23880.0,0
2025-07-22,2025,2,12,0.0,128139.0,-23880.0,0
2025-07-23,2025,2,12,0.0,128139.0,-23880.0,0
2025-07-24,2025,2,12,0.0,128139.0,-23880.0,0
2025-07-25,2025,2,12,0.0,128139.0,-23880.0,0
2025-07-27,2025,2,12,0.0,128139.0,-23880.0,0
2025-07-28,2025,2,12,0.0,128139.0,-23880.0,0
2025-07-29,2025,2,12,0.0,128139.0,-23880.0,0
2025-07-30,2025,2,12,0.0,128139.0,-23880.0,0
2025-07-31,2025,2,12,0.0,128139.0,-23880.0,0
2025-08-01,2025,2,12,0.0,128139.0,-23880.0,0
2025-08-03,2025,2,12,0.0,128139.0,-23880.0,0
2025-08-04,2025,2,12,0.0,128139.0,-23880.0,0
2025-08-05,2025,2,12,0.0,128139.0,-23880.0,0
2025-08-06,2025,2,12,0.0,128139.0,-23880.0,0
2025-08-07,2025,2,12,0.0,128139.0,-23880.0,0
2025-08-08,2025,2,12,0.0,128139.0,-23880.0,0
2025-08-10,2025,2,12,-595.0,127544.0,-24475.0,5
2025-08-11,2025,2,12,-7.5,127536.5,-24482.5,0
2025-08-12,2025,2,12,0.0,127536.5,-24482.5,0
2025-08-13,2025,2,12,-105.0,127431.5,-24587.5,5
2025-08-14,2025,2,12,-605.0,126826.5,-25192.5,5
2025-08-15,2025,2,12,-922.5,125904.0,-26115.0,5
2025-08-17,2025,2,12,545.0,126449.0,-25570.0,5
2025-08-18,2025,2,12,-462.5,125986.5,-26032.5,5
2025-08-19,2025,2,12,-3827.5,122159.0,-29860.0,5
2025-08-20,2025,2,12,7.5,122166.5,-29852.5,0
2025-08-21,2025,2,12,0.0,122166.5,-29852.5,0
2025-08-22,2025,2,12,0.0,122166.5,-29852.5,0
2025-08-24,2025,2,12,0.0,122166.5,-29852.5,0
2025-08-25,2025,2,12,0.0,122166.5,-29852.5,0
2025-08-26,2025,2,12,0.0,122166.5,-29852.5,0
2025-08-27,2025,2,12,0.0,122166.5,-29852.5,0
2025-08-28,2025,2,12,0.0,122166.5,-29852.5,0
2025-08-29,2025,2,12,0.0,122166.5,-29852.5,0
2025-08-31,2025,2,12,0.0,122166.5,-29852.5,0
2025-09-01,2025,2,12,0.0,122166.5,-29852.5,0
2025-09-02,2025,2,12,0.0,122166.5,-29852.5,0
2025-09-03,2025,2,12,0.0,122166.5,-29852.5,0
2025-09-04,2025,2,12,0.0,122166.5,-29852.5,0
2025-09-05,2025,2,12,0.0,122166.5,-29852.5,0
2025-09-07,2025,2,12,0.0,122166.5,-29852.5,0
2025-09-08,2025,2,12,292.5,122459.0,-29560.0,5
2025-09-09,2025,2,12,785.0,123244.0,-28775.0,5
2025-09-10,2025,2,12,150.0,123394.0,-28625.0,5
2025-09-11,2025,2,12,1185.0,124579.0,-27440.0,5
2025-09-12,2025,2,12,952.5,125531.5,-26487.5,5
2025-09-14,2025,2,12,-35.0,125496.5,-26522.5,5
2025-09-15,2025,2,12,1940.0,127436.5,-24582.5,5
2025-09-16,2025,2,12,2380.0,129816.5,-22202.5,5
2025-09-17,2025,2,12,410.0,130226.5,-21792.5,5
2025-09-18,2025,2,12,1560.0,131786.5,-20232.5,5
2025-09-19,2025,2,12,1316.0,133102.5,-18916.5,8
2025-09-21,2025,2,12,-160.0,132942.5,-19076.5,8
2025-09-22,2025,2,12,2340.0,135282.5,-16736.5,8
2025-09-23,2025,2,12,-2508.0,132774.5,-19244.5,8
2025-09-24,2025,2,12,-1360.0,131414.5,-20604.5,8
2025-09-25,2025,2,12,-2224.0,129190.5,-22828.5,8
2025-09-26,2025,2,12,1772.0,130962.5,-21056.5,8
2025-09-28,2025,2,12,716.0,131678.5,-20340.5,8
2025-09-29,2025,2,12,828.0,132506.5,-19512.5,8
2025-09-30,2025,2,12,100.0,132606.5,-19412.5,8
2025-10-01,2025,2,12,3076.0,135682.5,-16336.5,8
2025-10-02,2025,2,12,1628.0,137310.5,-14708.5,8
2025-10-03,2025,2,12,-2507.5,134803.0,-17216.0,11
2025-10-05,2025,2,12,1875.5,136678.5,-15340.5,11
2025-10-06,2025,2,12,1655.5,138334.0,-13685.0,11
2025-10-07,2025,2,12,-2387.0,135947.0,-16072.0,11
2025-10-08,2025,2,12,7601.0,143548.0,-8471.0,11
2025-10-09,2025,2,12,-968.0,142580.0,-9439.0,11
2025-10-10,2025,2,12,-25228.5,117351.5,-34667.5,11
2025-10-12,2025,2,12,6462.5,123814.0,-28205.0,0
2025-10-13,2025,2,12,0.0,123814.0,-28205.0,0
2025-10-14,2025,2,12,0.0,123814.0,-28205.0,0
2025-10-15,2025,2,12,0.0,123814.0,-28205.0,0
2025-10-16,2025,2,12,0.0,123814.0,-28205.0,0
2025-10-17,2025,2,12,0.0,123814.0,-28205.0,0
2025-10-19,2025,2,12,0.0,123814.0,-28205.0,0
2025-10-20,2025,2,12,0.0,123814.0,-28205.0,0
2025-10-21,2025,2,12,0.0,123814.0,-28205.0,0
2025-10-22,2025,2,12,0.0,123814.0,-28205.0,0
2025-10-23,2025,2,12,0.0,123814.0,-28205.0,0
2025-10-24,2025,2,12,0.0,123814.0,-28205.0,0
2025-10-26,2025,2,12,0.0,123814.0,-28205.0,0
2025-10-27,2025,2,12,2777.5,126591.5,-25427.5,5
2025-10-28,2025,2,12,1892.5,128484.0,-23535.0,5
2025-10-29,2025,2,12,517.5,129001.5,-23017.5,5
2025-10-30,2025,2,12,-652.5,128349.0,-23670.0,5
2025-10-31,2025,2,12,-1867.5,126481.5,-25537.5,5
2025-11-02,2025,2,12,970.0,127451.5,-24567.5,5
2025-11-03,2025,2,12,-117.5,127334.0,-24685.0,5
2025-11-04,2025,2,12,-5652.5,121681.5,-30337.5,5
2025-11-05,2025,2,12,5.0,121686.5,-30332.5,0
2025-11-06,2025,2,12,-4560.0,117126.5,-34892.5,5
2025-11-07,2025,2,12,0.0,117126.5,-34892.5,0
2025-11-09,2025,2,12,0.0,117126.5,-34892.5,0
2025-11-10,2025,2,12,0.0,117126.5,-34892.5,0
2025-11-11,2025,2,12,-917.5,116209.0,-35810.0,5
2025-11-12,2025,2,12,2.5,116211.5,-35807.5,0
2025-11-13,2025,2,12,0.0,116211.5,-35807.5,0
2025-11-14,2025,2,12,0.0,116211.5,-35807.5,0
2025-11-16,2025,2,12,0.0,116211.5,-35807.5,0
2025-11-17,2025,2,12,0.0,116211.5,-35807.5,0
2025-11-18,2025,2,12,0.0,116211.5,-35807.5,0
2025-11-19,2025,2,12,0.0,116211.5,-35807.5,0
2025-11-20,2025,2,12,0.0,116211.5,-35807.5,0
2025-11-21,2025,2,12,0.0,116211.5,-35807.5,0
2025-11-23,2025,2,12,0.0,116211.5,-35807.5,0
2025-11-24,2025,2,12,0.0,116211.5,-35807.5,0
2025-11-25,2025,2,12,0.0,116211.5,-35807.5,0
2025-11-26,2025,2,12,0.0,116211.5,-35807.5,0
2025-11-27,2025,2,12,0.0,116211.5,-35807.5,0
2025-11-28,2025,2,12,0.0,116211.5,-35807.5,0
2025-11-30,2025,2,12,0.0,116211.5,-35807.5,0
2025-12-01,2025,2,12,0.0,116211.5,-35807.5,0
2025-12-02,2025,2,12,0.0,116211.5,-35807.5,0
2025-12-03,2025,2,12,0.0,116211.5,-35807.5,0
2025-12-04,2025,2,12,0.0,116211.5,-35807.5,0
2025-12-05,2025,2,12,0.0,116211.5,-35807.5,0
2025-12-07,2025,2,12,0.0,116211.5,-35807.5,0
2025-12-08,2025,2,12,0.0,116211.5,-35807.5,0
2025-12-09,2025,2,12,0.0,116211.5,-35807.5,0
2025-12-10,2025,2,12,0.0,116211.5,-35807.5,0
2025-12-11,2025,2,12,0.0,116211.5,-35807.5,0
2025-12-12,2025,2,12,0.0,116211.5,-35807.5,0
2025-12-14,2025,2,12,0.0,116211.5,-35807.5,0
2025-12-15,2025,2,12,0.0,116211.5,-35807.5,0
2025-12-16,2025,2,12,0.0,116211.5,-35807.5,0
2025-12-17,2025,2,12,0.0,116211.5,-35807.5,0
2025-12-18,2025,2,12,0.0,116211.5,-35807.5,0
2025-12-19,2025,2,12,0.0,116211.5,-35807.5,0
2025-12-21,2025,2,12,0.0,116211.5,-35807.5,0
2025-12-22,2025,2,12,0.0,116211.5,-35807.5,0
2025-12-23,2025,2,12,0.0,116211.5,-35807.5,0
2025-12-24,2025,2,12,0.0,116211.5,-35807.5,0
2025-12-25,2025,2,12,172.5,116384.0,-35635.0,5
2025-12-26,2025,2,12,-302.5,116081.5,-35937.5,5
2025-12-28,2025,2,12,120.0,116201.5,-35817.5,0
2025-12-29,2025,2,12,0.0,116201.5,-35817.5,0
2025-12-30,2025,2,12,0.0,116201.5,-35817.5,0
2025-12-31,2025,2,12,0.0,116201.5,-35817.5,0
2026-01-01,2026,1,11,0.0,116201.5,-35817.5,0
2026-01-02,2026,1,11,0.0,116201.5,-35817.5,0
2026-01-04,2026,1,11,0.0,116201.5,-35817.5,0
2026-01-05,2026,1,11,0.0,116201.5,-35817.5,0
2026-01-06,2026,1,11,0.0,116201.5,-35817.5,0
2026-01-07,2026,1,11,0.0,116201.5,-35817.5,0
2026-01-08,2026,1,11,0.0,116201.5,-35817.5,0
2026-01-09,2026,1,11,0.0,116201.5,-35817.5,0
2026-01-11,2026,1,11,-420.0,115781.5,-36237.5,4
2026-01-12,2026,1,11,14.0,115795.5,-36223.5,4
2026-01-13,2026,1,11,-38.0,115757.5,-36261.5,4
2026-01-14,2026,1,11,-2284.0,113473.5,-38545.5,4
2026-01-15,2026,1,11,0.0,113473.5,-38545.5,0
2026-01-16,2026,1,11,0.0,113473.5,-38545.5,0
2026-01-18,2026,1,11,0.0,113473.5,-38545.5,0
2026-01-19,2026,1,11,0.0,113473.5,-38545.5,0
2026-01-20,2026,1,11,0.0,113473.5,-38545.5,0
2026-01-21,2026,1,11,0.0,113473.5,-38545.5,0
2026-01-22,2026,1,11,0.0,113473.5,-38545.5,0
2026-01-23,2026,1,11,0.0,113473.5,-38545.5,0
2026-01-25,2026,1,11,0.0,113473.5,-38545.5,0
2026-01-26,2026,1,11,0.0,113473.5,-38545.5,0
2026-01-27,2026,1,11,0.0,113473.5,-38545.5,0
2026-01-28,2026,1,11,256.0,113729.5,-38289.5,4
2026-01-29,2026,1,11,-1584.0,112145.5,-39873.5,4
2026-01-30,2026,1,11,-4.0,112141.5,-39877.5,0
2026-02-01,2026,1,11,0.0,112141.5,-39877.5,0
2026-02-02,2026,1,11,0.0,112141.5,-39877.5,0
2026-02-03,2026,1,11,0.0,112141.5,-39877.5,0
2026-02-04,2026,1,11,0.0,112141.5,-39877.5,0
2026-02-05,2026,1,11,0.0,112141.5,-39877.5,0
2026-02-06,2026,1,11,0.0,112141.5,-39877.5,0
2026-02-08,2026,1,11,0.0,112141.5,-39877.5,0
2026-02-09,2026,1,11,0.0,112141.5,-39877.5,0
2026-02-10,2026,1,11,0.0,112141.5,-39877.5,0
2026-02-11,2026,1,11,0.0,112141.5,-39877.5,0
2026-02-12,2026,1,11,0.0,112141.5,-39877.5,0
2026-02-13,2026,1,11,0.0,112141.5,-39877.5,0
2026-02-15,2026,1,11,0.0,112141.5,-39877.5,0
2026-02-16,2026,1,11,0.0,112141.5,-39877.5,0
2026-02-17,2026,1,11,0.0,112141.5,-39877.5,0
2026-02-18,2026,1,11,0.0,112141.5,-39877.5,0
2026-02-19,2026,1,11,0.0,112141.5,-39877.5,0
2026-02-20,2026,1,11,0.0,112141.5,-39877.5,0
2026-02-22,2026,1,11,0.0,112141.5,-39877.5,0
2026-02-23,2026,1,11,0.0,112141.5,-39877.5,0
2026-02-24,2026,1,11,0.0,112141.5,-39877.5,0
2026-02-25,2026,1,11,0.0,112141.5,-39877.5,0
2026-02-26,2026,1,11,0.0,112141.5,-39877.5,0
2026-02-27,2026,1,11,0.0,112141.5,-39877.5,0
2026-03-01,2026,1,11,0.0,112141.5,-39877.5,0
2026-03-02,2026,1,11,0.0,112141.5,-39877.5,0
2026-03-03,2026,1,11,0.0,112141.5,-39877.5,0
2026-03-04,2026,1,11,0.0,112141.5,-39877.5,0
2026-03-05,2026,1,11,0.0,112141.5,-39877.5,0
2026-03-06,2026,1,11,0.0,112141.5,-39877.5,0
2026-03-08,2026,1,11,0.0,112141.5,-39877.5,0
