date,realized_points,open_unrealized_points,total_equity_points,open_units,direction
2019-05-05,0.0,0.0,0.0,0,
2019-05-06,0.0,0.0,0.0,0,
2019-05-07,0.0,0.0,0.0,0,
2019-05-08,0.0,0.0,0.0,0,
2019-05-09,0.0,0.0,0.0,0,
2019-05-10,0.0,0.0,0.0,0,
2019-05-12,0.0,0.0,0.0,0,
2019-05-13,0.0,0.0,0.0,0,
2019-05-14,0.0,0.0,0.0,0,
2019-05-15,0.0,0.0,0.0,0,
2019-05-16,0.0,0.0,0.0,0,
2019-05-17,0.0,0.0,0.0,0,
2019-05-19,0.0,0.0,0.0,0,
2019-05-20,0.0,0.0,0.0,0,
2019-05-21,0.0,0.0,0.0,0,
2019-05-22,0.0,0.0,0.0,0,
2019-05-23,0.0,0.0,0.0,0,
2019-05-24,0.0,0.0,0.0,0,
2019-05-26,0.0,0.0,0.0,0,
2019-05-27,0.0,0.0,0.0,0,
2019-05-28,0.0,0.0,0.0,0,
2019-05-29,0.0,0.0,0.0,0,
2019-05-30,0.0,0.0,0.0,0,
2019-05-31,0.0,0.0,0.0,0,
2019-06-02,0.0,0.0,0.0,0,
2019-06-03,0.0,0.0,0.0,0,
2019-06-04,0.0,0.0,0.0,0,
2019-06-05,0.0,0.0,0.0,0,
2019-06-06,0.0,639.0,639.0,3,Long
2019-06-07,0.0,1404.0,1404.0,3,Long
2019-06-09,0.0,1515.0,1515.0,3,Long
2019-06-10,0.0,1698.0,1698.0,3,Long
2019-06-11,0.0,1461.0,1461.0,3,Long
2019-06-12,0.0,1215.0,1215.0,3,Long
2019-06-13,0.0,1767.0,1767.0,3,Long
2019-06-14,0.0,1699.0,1699.0,4,Long
2019-06-16,0.0,1951.0,1951.0,4,Long
2019-06-17,0.0,1699.0,1699.0,4,Long
2019-06-18,0.0,3243.0,3243.0,4,Long
2019-06-19,0.0,3635.0,3635.0,4,Long
2019-06-20,0.0,4027.0,4027.0,4,Long
2019-06-21,0.0,3883.0,3883.0,4,Long
2019-06-23,0.0,4243.0,4243.0,4,Long
2019-06-24,0.0,3999.0,3999.0,4,Long
2019-06-25,0.0,3415.0,3415.0,4,Long
2019-06-26,0.0,3603.0,3603.0,4,Long
2019-06-27,0.0,3495.0,3495.0,4,Long
2019-06-28,0.0,3864.0,3864.0,5,Long
2019-06-30,0.0,4639.0,4639.0,5,Long
2019-07-01,0.0,4239.0,4239.0,5,Long
2019-07-02,0.0,4429.0,4429.0,5,Long
2019-07-03,0.0,5384.0,5384.0,5,Long
2019-07-04,0.0,5559.0,5559.0,5,Long
2019-07-05,0.0,5114.0,5114.0,5,Long
2019-07-07,0.0,4754.0,4754.0,5,Long
2019-07-08,0.0,4054.0,4054.0,5,Long
2019-07-09,0.0,4464.0,4464.0,5,Long
2019-07-10,0.0,5189.0,5189.0,5,Long
2019-07-11,0.0,6419.0,6419.0,5,Long
2019-07-12,0.0,7181.0,7181.0,6,Long
2019-07-14,0.0,7331.0,7331.0,6,Long
2019-07-15,0.0,7433.0,7433.0,6,Long
2019-07-16,0.0,7325.0,7325.0,6,Long
2019-07-17,0.0,6215.0,6215.0,6,Long
2019-07-18,0.0,7163.0,7163.0,6,Long
2019-07-19,0.0,5777.0,5777.0,6,Long
2019-07-21,0.0,6107.0,6107.0,6,Long
2019-07-22,0.0,6563.0,6563.0,6,Long
2019-07-23,0.0,7325.0,7325.0,6,Long
2019-07-24,0.0,6989.0,6989.0,6,Long
2019-07-25,0.0,6185.0,6185.0,6,Long
2019-07-26,0.0,6120.0,6120.0,7,Long
2019-07-28,0.0,5994.0,5994.0,7,Long
2019-07-29,0.0,6743.0,6743.0,7,Long
2019-07-30,0.0,6792.0,6792.0,7,Long
2019-07-31,0.0,4286.0,4286.0,7,Long
2019-08-01,0.0,1591.0,1591.0,7,Long
2019-08-02,1591.0,0.0,1591.0,0,
2019-08-04,1591.0,0.0,1591.0,0,
2019-08-05,1591.0,0.0,1591.0,0,
2019-08-06,1591.0,0.0,1591.0,0,
2019-08-07,1591.0,0.0,1591.0,0,
2019-08-08,1591.0,0.0,1591.0,0,
2019-08-09,1591.0,0.0,1591.0,0,
2019-08-11,1591.0,0.0,1591.0,0,
2019-08-12,1591.0,0.0,1591.0,0,
2019-08-13,1591.0,0.0,1591.0,0,
2019-08-14,1591.0,0.0,1591.0,0,
2019-08-15,1591.0,0.0,1591.0,0,
2019-08-16,1591.0,0.0,1591.0,0,
2019-08-18,1591.0,0.0,1591.0,0,
2019-08-19,1591.0,0.0,1591.0,0,
2019-08-20,1591.0,0.0,1591.0,0,
2019-08-21,1591.0,0.0,1591.0,0,
2019-08-22,1591.0,0.0,1591.0,0,
2019-08-23,1591.0,0.0,1591.0,0,
2019-08-25,1591.0,0.0,1591.0,0,
2019-08-26,1591.0,0.0,1591.0,0,
2019-08-27,1591.0,0.0,1591.0,0,
2019-08-28,1591.0,0.0,1591.0,0,
2019-08-29,1591.0,0.0,1591.0,0,
2019-08-30,1591.0,0.0,1591.0,0,
2019-09-01,1591.0,0.0,1591.0,0,
2019-09-02,1591.0,0.0,1591.0,0,
2019-09-03,1591.0,0.0,1591.0,0,
2019-09-04,1591.0,0.0,1591.0,0,
2019-09-05,1591.0,390.0,1981.0,3,Long
2019-09-06,1591.0,594.0,2185.0,3,Long
2019-09-08,1591.0,621.0,2212.0,3,Long
2019-09-09,1591.0,555.0,2146.0,3,Long
2019-09-10,1591.0,777.0,2368.0,3,Long
2019-09-11,1591.0,1926.0,3517.0,3,Long
2019-09-12,1591.0,1770.0,3361.0,3,Long
2019-09-13,1591.0,1728.0,3319.0,4,Long
2019-09-15,1591.0,1188.0,2779.0,4,Long
2019-09-16,1591.0,1092.0,2683.0,4,Long
2019-09-17,1591.0,1128.0,2719.0,4,Long
2019-09-18,1591.0,1116.0,2707.0,4,Long
2019-09-19,1591.0,1224.0,2815.0,4,Long
2019-09-20,1591.0,392.0,1983.0,4,Long
2019-09-22,1591.0,796.0,2387.0,4,Long
2019-09-23,1591.0,948.0,2539.0,4,Long
2019-09-24,1591.0,348.0,1939.0,4,Long
2019-09-25,1591.0,584.0,2175.0,4,Long
2019-09-26,1591.0,216.0,1807.0,4,Long
2019-09-27,1591.0,260.0,1851.0,5,Long
2019-09-29,1591.0,570.0,2161.0,5,Long
2019-09-30,1591.0,1035.0,2626.0,5,Long
2019-10-01,1591.0,-1020.0,571.0,5,Long
2019-10-02,571.0,0.0,571.0,0,
2019-10-03,571.0,0.0,571.0,0,
2019-10-04,571.0,0.0,571.0,0,
2019-10-06,571.0,0.0,571.0,0,
2019-10-07,571.0,0.0,571.0,0,
2019-10-08,571.0,0.0,571.0,0,
2019-10-09,571.0,0.0,571.0,0,
2019-10-10,571.0,0.0,571.0,0,
2019-10-11,571.0,0.0,571.0,0,
2019-10-13,571.0,0.0,571.0,0,
2019-10-14,571.0,0.0,571.0,0,
2019-10-15,571.0,0.0,571.0,0,
2019-10-16,571.0,-9.0,562.0,3,Long
2019-10-17,553.0,0.0,553.0,0,
2019-10-18,553.0,-600.0,-47.0,3,Long
2019-10-20,-158.0,0.0,-158.0,0,
2019-10-21,-158.0,0.0,-158.0,0,
2019-10-22,-158.0,0.0,-158.0,0,
2019-10-23,-158.0,0.0,-158.0,0,
2019-10-24,-158.0,0.0,-158.0,0,
2019-10-25,-158.0,0.0,-158.0,0,
2019-10-27,-158.0,0.0,-158.0,0,
2019-10-28,-158.0,282.0,124.0,3,Long
2019-10-29,-158.0,198.0,40.0,3,Long
2019-10-30,-158.0,600.0,442.0,3,Long
2019-10-31,-158.0,249.0,91.0,3,Long
2019-11-01,-158.0,936.0,778.0,3,Long
2019-11-03,-158.0,1104.0,946.0,3,Long
2019-11-04,-158.0,1440.0,1282.0,3,Long
2019-11-05,-158.0,1368.0,1210.0,3,Long
2019-11-06,-158.0,1374.0,1216.0,3,Long
2019-11-07,-158.0,1983.0,1825.0,3,Long
2019-11-08,-158.0,2100.0,1942.0,4,Long
2019-11-10,-158.0,1736.0,1578.0,4,Long
2019-11-11,-158.0,2064.0,1906.0,4,Long
2019-11-12,-158.0,1872.0,1714.0,4,Long
2019-11-13,-158.0,2488.0,2330.0,4,Long
2019-11-14,-158.0,2884.0,2726.0,4,Long
2019-11-15,-158.0,3364.0,3206.0,4,Long
2019-11-17,-158.0,3312.0,3154.0,4,Long
2019-11-18,-158.0,3652.0,3494.0,4,Long
2019-11-19,-158.0,2952.0,2794.0,4,Long
2019-11-20,-158.0,2456.0,2298.0,4,Long
2019-11-21,-158.0,2656.0,2498.0,4,Long
2019-11-22,-158.0,3000.0,2842.0,5,Long
2019-11-24,-158.0,3345.0,3187.0,5,Long
2019-11-25,-158.0,4010.0,3852.0,5,Long
2019-11-26,-158.0,4365.0,4207.0,5,Long
2019-11-27,-158.0,4050.0,3892.0,5,Long
2019-11-28,-158.0,4025.0,3867.0,5,Long
2019-11-29,-158.0,4035.0,3877.0,5,Long
2019-12-01,-158.0,4485.0,4327.0,5,Long
2019-12-02,-158.0,2860.0,2702.0,5,Long
2019-12-03,-158.0,1215.0,1057.0,5,Long
2019-12-04,1057.0,0.0,1057.0,0,
2019-12-05,1057.0,0.0,1057.0,0,
2019-12-06,1057.0,0.0,1057.0,0,
2019-12-08,1057.0,0.0,1057.0,0,
2019-12-09,1057.0,0.0,1057.0,0,
2019-12-10,1057.0,0.0,1057.0,0,
2019-12-11,1057.0,0.0,1057.0,0,
2019-12-12,1057.0,0.0,1057.0,0,
2019-12-13,1057.0,-225.0,832.0,3,Long
2019-12-15,856.0,0.0,856.0,0,
2019-12-16,856.0,0.0,856.0,0,
2019-12-17,856.0,84.0,940.0,3,Long
2019-12-18,856.0,27.0,883.0,3,Long
2019-12-19,856.0,435.0,1291.0,3,Long
2019-12-20,856.0,651.0,1507.0,3,Long
2019-12-22,856.0,726.0,1582.0,3,Long
2019-12-23,856.0,918.0,1774.0,3,Long
2019-12-24,856.0,762.0,1618.0,3,Long
2019-12-25,856.0,861.0,1717.0,3,Long
2019-12-26,856.0,1254.0,2110.0,3,Long
2019-12-27,856.0,1036.0,1892.0,4,Long
2019-12-29,856.0,1236.0,2092.0,4,Long
2019-12-30,856.0,512.0,1368.0,4,Long
2019-12-31,856.0,836.0,1692.0,4,Long
2020-01-01,856.0,1008.0,1864.0,4,Long
2020-01-02,856.0,1292.0,2148.0,4,Long
2020-01-03,856.0,1056.0,1912.0,4,Long
2020-01-05,856.0,740.0,1596.0,4,Long
2020-01-06,856.0,1496.0,2352.0,4,Long
2020-01-07,856.0,32.0,888.0,4,Long
2020-01-08,856.0,1824.0,2680.0,4,Long
2020-01-09,856.0,2636.0,3492.0,4,Long
2020-01-10,856.0,1724.0,2580.0,5,Long
2020-01-12,856.0,2129.0,2985.0,5,Long
2020-01-13,856.0,2239.0,3095.0,5,Long
2020-01-14,856.0,2179.0,3035.0,5,Long
2020-01-15,856.0,3199.0,4055.0,5,Long
2020-01-16,856.0,4249.0,5105.0,5,Long
2020-01-17,856.0,4234.0,5090.0,5,Long
2020-01-19,856.0,4369.0,5225.0,5,Long
2020-01-20,856.0,3774.0,4630.0,5,Long
2020-01-21,856.0,4284.0,5140.0,5,Long
2020-01-22,856.0,3359.0,4215.0,5,Long
2020-01-23,856.0,3709.0,4565.0,5,Long
2020-01-24,856.0,2393.0,3249.0,6,Long
2020-01-26,856.0,1001.0,1857.0,6,Long
2020-01-27,856.0,629.0,1485.0,6,Long
2020-01-28,1479.0,0.0,1479.0,0,
2020-01-29,1479.0,0.0,1479.0,0,
2020-01-30,1479.0,0.0,1479.0,0,
2020-01-31,1479.0,0.0,1479.0,0,
2020-02-02,1479.0,0.0,1479.0,0,
2020-02-03,1479.0,0.0,1479.0,0,
2020-02-04,1479.0,0.0,1479.0,0,
2020-02-05,1479.0,0.0,1479.0,0,
2020-02-06,1479.0,-465.0,1014.0,3,Long
2020-02-07,1014.0,0.0,1014.0,0,
2020-02-09,1014.0,0.0,1014.0,0,
2020-02-10,1014.0,0.0,1014.0,0,
2020-02-11,1014.0,0.0,1014.0,0,
2020-02-12,1014.0,0.0,1014.0,0,
2020-02-13,1014.0,0.0,1014.0,0,
2020-02-14,1014.0,-267.0,747.0,3,Long
2020-02-16,720.0,0.0,720.0,0,
2020-02-17,720.0,0.0,720.0,0,
2020-02-18,720.0,0.0,720.0,0,
2020-02-19,720.0,0.0,720.0,0,
2020-02-20,720.0,0.0,720.0,0,
2020-02-21,720.0,0.0,720.0,0,
2020-02-23,720.0,0.0,720.0,0,
2020-02-24,720.0,0.0,720.0,0,
2020-02-25,720.0,0.0,720.0,0,
2020-02-26,720.0,0.0,720.0,0,
2020-02-27,720.0,0.0,720.0,0,
2020-03-01,720.0,0.0,720.0,0,
2020-03-02,720.0,0.0,720.0,0,
2020-03-03,720.0,0.0,720.0,0,
2020-03-04,720.0,0.0,720.0,0,
2020-03-05,720.0,0.0,720.0,0,
2020-03-06,720.0,0.0,720.0,0,
2020-03-08,720.0,0.0,720.0,0,
2020-03-09,720.0,0.0,720.0,0,
2020-03-10,720.0,0.0,720.0,0,
2020-03-11,720.0,0.0,720.0,0,
2020-03-12,720.0,0.0,720.0,0,
2020-03-13,720.0,0.0,720.0,0,
2020-03-15,720.0,0.0,720.0,0,
2020-03-16,720.0,0.0,720.0,0,
2020-03-17,720.0,0.0,720.0,0,
2020-03-18,720.0,0.0,720.0,0,
2020-03-19,720.0,0.0,720.0,0,
2020-03-20,720.0,0.0,720.0,0,
2020-03-22,720.0,0.0,720.0,0,
2020-03-23,720.0,0.0,720.0,0,
2020-03-24,720.0,0.0,720.0,0,
2020-03-25,720.0,0.0,720.0,0,
2020-03-26,720.0,0.0,720.0,0,
2020-03-27,720.0,0.0,720.0,0,
2020-03-29,720.0,0.0,720.0,0,
2020-03-30,720.0,0.0,720.0,0,
2020-03-31,720.0,0.0,720.0,0,
2020-04-01,720.0,0.0,720.0,0,
2020-04-02,720.0,0.0,720.0,0,
2020-04-03,720.0,0.0,720.0,0,
2020-04-05,720.0,0.0,720.0,0,
2020-04-06,720.0,0.0,720.0,0,
2020-04-07,720.0,483.0,1203.0,3,Long
2020-04-08,720.0,2787.0,3507.0,3,Long
2020-04-09,720.0,4017.0,4737.0,3,Long
2020-04-12,720.0,2859.0,3579.0,3,Long
2020-04-13,720.0,3837.0,4557.0,3,Long
2020-04-14,720.0,4245.0,4965.0,3,Long
2020-04-15,720.0,2772.0,3492.0,3,Long
2020-04-16,720.0,5694.0,6414.0,3,Long
2020-04-17,720.0,5418.0,6138.0,3,Long
2020-04-19,720.0,5409.0,6129.0,3,Long
2020-04-20,720.0,2793.0,3513.0,3,Long
2020-04-21,720.0,1869.0,2589.0,3,Long
2020-04-22,720.0,2757.0,3477.0,3,Long
2020-04-23,720.0,2715.0,3435.0,3,Long
2020-04-24,720.0,3854.0,4574.0,4,Long
2020-04-26,720.0,4458.0,5178.0,4,Long
2020-04-27,720.0,4990.0,5710.0,4,Long
2020-04-28,720.0,6306.0,7026.0,4,Long
2020-04-29,720.0,8114.0,8834.0,4,Long
2020-04-30,720.0,5006.0,5726.0,4,Long
2020-05-01,720.0,3650.0,4370.0,4,Long
2020-05-03,720.0,3214.0,3934.0,4,Long
2020-05-04,720.0,4266.0,4986.0,4,Long
2020-05-05,720.0,4398.0,5118.0,4,Long
2020-05-06,720.0,3838.0,4558.0,4,Long
2020-05-07,720.0,5810.0,6530.0,4,Long
2020-05-08,720.0,6551.0,7271.0,5,Long
2020-05-10,720.0,7261.0,7981.0,5,Long
2020-05-11,720.0,4821.0,5541.0,5,Long
2020-05-12,720.0,3116.0,3836.0,5,Long
2020-05-13,720.0,931.0,1651.0,5,Long
2020-05-14,720.0,2761.0,3481.0,5,Long
2020-05-15,720.0,2926.0,3646.0,5,Long
2020-05-17,720.0,4006.0,4726.0,5,Long
2020-05-18,720.0,7336.0,8056.0,5,Long
2020-05-19,720.0,6616.0,7336.0,5,Long
2020-05-20,720.0,6926.0,7646.0,5,Long
2020-05-21,720.0,6176.0,6896.0,5,Long
2020-05-22,720.0,7415.0,8135.0,6,Long
2020-05-24,720.0,7697.0,8417.0,6,Long
2020-05-25,720.0,9695.0,10415.0,6,Long
2020-05-26,720.0,11669.0,12389.0,6,Long
2020-05-27,720.0,14351.0,15071.0,6,Long
2020-05-28,720.0,12665.0,13385.0,6,Long
2020-05-29,720.0,13613.0,14333.0,6,Long
2020-05-31,720.0,12749.0,13469.0,6,Long
2020-06-01,720.0,12767.0,13487.0,6,Long
2020-06-02,720.0,15443.0,16163.0,6,Long
2020-06-03,720.0,17825.0,18545.0,6,Long
2020-06-04,720.0,19037.0,19757.0,6,Long
2020-06-05,720.0,22998.0,23718.0,7,Long
2020-06-07,720.0,23530.0,24250.0,7,Long
2020-06-08,720.0,26239.0,26959.0,7,Long
2020-06-09,720.0,25560.0,26280.0,7,Long
2020-06-10,720.0,20016.0,20736.0,7,Long
2020-06-11,720.0,11980.0,12700.0,7,Long
2020-06-12,11811.0,0.0,11811.0,0,
2020-06-14,11811.0,0.0,11811.0,0,
2020-06-15,11811.0,0.0,11811.0,0,
2020-06-16,11811.0,0.0,11811.0,0,
2020-06-17,11811.0,0.0,11811.0,0,
2020-06-18,11811.0,0.0,11811.0,0,
2020-06-19,11811.0,0.0,11811.0,0,
2020-06-21,11811.0,0.0,11811.0,0,
2020-06-22,11811.0,0.0,11811.0,0,
2020-06-23,11811.0,0.0,11811.0,0,
2020-06-24,11811.0,0.0,11811.0,0,
2020-06-25,11811.0,0.0,11811.0,0,
2020-06-26,11811.0,0.0,11811.0,0,
2020-06-28,11811.0,0.0,11811.0,0,
2020-06-29,11811.0,0.0,11811.0,0,
2020-06-30,11811.0,0.0,11811.0,0,
2020-07-01,11811.0,0.0,11811.0,0,
2020-07-02,11811.0,0.0,11811.0,0,
2020-07-03,11811.0,0.0,11811.0,0,
2020-07-05,11811.0,0.0,11811.0,0,
2020-07-06,11811.0,0.0,11811.0,0,
2020-07-07,11811.0,0.0,11811.0,0,
2020-07-08,11811.0,0.0,11811.0,0,
2020-07-09,11811.0,0.0,11811.0,0,
2020-07-10,11811.0,0.0,11811.0,0,
2020-07-12,11811.0,0.0,11811.0,0,
2020-07-13,11811.0,0.0,11811.0,0,
2020-07-14,11811.0,0.0,11811.0,0,
2020-07-15,11811.0,0.0,11811.0,0,
2020-07-16,11811.0,0.0,11811.0,0,
2020-07-17,11811.0,0.0,11811.0,0,
2020-07-19,11811.0,0.0,11811.0,0,
2020-07-20,11811.0,0.0,11811.0,0,
2020-07-21,11811.0,0.0,11811.0,0,
2020-07-22,11811.0,0.0,11811.0,0,
2020-07-23,11811.0,0.0,11811.0,0,
2020-07-24,11811.0,0.0,11811.0,0,
2020-07-26,11811.0,0.0,11811.0,0,
2020-07-27,11811.0,0.0,11811.0,0,
2020-07-28,11811.0,0.0,11811.0,0,
2020-07-29,11811.0,0.0,11811.0,0,
2020-07-30,11811.0,0.0,11811.0,0,
2020-07-31,11811.0,0.0,11811.0,0,
2020-08-02,11811.0,0.0,11811.0,0,
2020-08-03,11811.0,0.0,11811.0,0,
2020-08-04,11811.0,0.0,11811.0,0,
2020-08-05,11811.0,0.0,11811.0,0,
2020-08-06,11811.0,186.0,11997.0,3,Long
2020-08-07,11811.0,801.0,12612.0,3,Long
2020-08-09,11811.0,957.0,12768.0,3,Long
2020-08-10,11811.0,2073.0,13884.0,3,Long
2020-08-11,11811.0,1743.0,13554.0,3,Long
2020-08-12,11811.0,2343.0,14154.0,3,Long
2020-08-13,11811.0,2292.0,14103.0,3,Long
2020-08-14,11811.0,2186.0,13997.0,4,Long
2020-08-16,11811.0,2590.0,14401.0,4,Long
2020-08-17,11811.0,2038.0,13849.0,4,Long
2020-08-18,11811.0,1994.0,13805.0,4,Long
2020-08-19,11811.0,898.0,12709.0,4,Long
2020-08-20,11811.0,1942.0,13753.0,4,Long
2020-08-21,11811.0,2418.0,14229.0,4,Long
2020-08-23,11811.0,2694.0,14505.0,4,Long
2020-08-24,11811.0,4558.0,16369.0,4,Long
2020-08-25,11811.0,3618.0,15429.0,4,Long
2020-08-26,11811.0,4022.0,15833.0,4,Long
2020-08-27,11811.0,5710.0,17521.0,4,Long
2020-08-28,11811.0,5412.0,17223.0,5,Long
2020-08-30,11811.0,6137.0,17948.0,5,Long
2020-08-31,11811.0,4477.0,16288.0,5,Long
2020-09-01,11811.0,5757.0,17568.0,5,Long
2020-09-02,11811.0,7747.0,19558.0,5,Long
2020-09-03,11811.0,3592.0,15403.0,5,Long
2020-09-04,11811.0,2602.0,14413.0,5,Long
2020-09-06,11811.0,2957.0,14768.0,5,Long
2020-09-07,11811.0,3652.0,15463.0,5,Long
2020-09-08,11811.0,-143.0,11668.0,5,Long
2020-09-09,11643.0,0.0,11643.0,0,
2020-09-10,11643.0,0.0,11643.0,0,
2020-09-11,11643.0,0.0,11643.0,0,
2020-09-13,11643.0,0.0,11643.0,0,
2020-09-14,11643.0,0.0,11643.0,0,
2020-09-15,11643.0,0.0,11643.0,0,
2020-09-16,11643.0,0.0,11643.0,0,
2020-09-17,11643.0,0.0,11643.0,0,
2020-09-18,11643.0,0.0,11643.0,0,
2020-09-20,11643.0,0.0,11643.0,0,
2020-09-21,11643.0,0.0,11643.0,0,
2020-09-22,11643.0,0.0,11643.0,0,
2020-09-23,11643.0,0.0,11643.0,0,
2020-09-24,11643.0,0.0,11643.0,0,
2020-09-25,11643.0,0.0,11643.0,0,
2020-09-27,11643.0,0.0,11643.0,0,
2020-09-28,11643.0,0.0,11643.0,0,
2020-09-29,11643.0,0.0,11643.0,0,
2020-09-30,11643.0,0.0,11643.0,0,
2020-10-01,11643.0,0.0,11643.0,0,
2020-10-02,11643.0,0.0,11643.0,0,
2020-10-04,11643.0,0.0,11643.0,0,
2020-10-05,11643.0,0.0,11643.0,0,
2020-10-06,11643.0,0.0,11643.0,0,
2020-10-07,11643.0,0.0,11643.0,0,
2020-10-08,11643.0,0.0,11643.0,0,
2020-10-09,11643.0,315.0,11958.0,3,Long
2020-10-11,11643.0,204.0,11847.0,3,Long
2020-10-12,11643.0,744.0,12387.0,3,Long
2020-10-13,11643.0,627.0,12270.0,3,Long
2020-10-14,11643.0,-432.0,11211.0,3,Long
2020-10-15,11208.0,0.0,11208.0,0,
2020-10-16,11208.0,0.0,11208.0,0,
2020-10-18,11208.0,0.0,11208.0,0,
2020-10-19,11208.0,-1116.0,10092.0,3,Long
2020-10-20,10092.0,0.0,10092.0,0,
2020-10-21,10092.0,0.0,10092.0,0,
2020-10-22,10092.0,0.0,10092.0,0,
2020-10-23,10092.0,0.0,10092.0,0,
2020-10-25,10092.0,0.0,10092.0,0,
2020-10-26,10092.0,0.0,10092.0,0,
2020-10-27,10092.0,0.0,10092.0,0,
2020-10-28,10092.0,0.0,10092.0,0,
2020-10-29,10092.0,0.0,10092.0,0,
2020-10-30,10092.0,0.0,10092.0,0,
2020-11-01,10092.0,0.0,10092.0,0,
2020-11-02,10092.0,0.0,10092.0,0,
2020-11-03,10092.0,0.0,10092.0,0,
2020-11-04,10092.0,0.0,10092.0,0,
2020-11-05,10092.0,600.0,10692.0,3,Long
2020-11-06,10092.0,1044.0,11136.0,3,Long
2020-11-08,10092.0,1968.0,12060.0,3,Long
2020-11-09,10092.0,2676.0,12768.0,3,Long
2020-11-10,10092.0,4368.0,14460.0,3,Long
2020-11-11,10092.0,3414.0,13506.0,3,Long
2020-11-12,10092.0,3126.0,13218.0,3,Long
2020-11-13,10092.0,4418.0,14510.0,4,Long
2020-11-15,10092.0,5362.0,15454.0,4,Long
2020-11-16,10092.0,5894.0,15986.0,4,Long
2020-11-17,10092.0,5442.0,15534.0,4,Long
2020-11-18,10092.0,4234.0,14326.0,4,Long
2020-11-19,10092.0,3802.0,13894.0,4,Long
2020-11-20,10092.0,3462.0,13554.0,4,Long
2020-11-22,10092.0,3954.0,14046.0,4,Long
2020-11-23,10092.0,6050.0,16142.0,4,Long
2020-11-24,10092.0,6946.0,17038.0,4,Long
2020-11-25,10092.0,6142.0,16234.0,4,Long
2020-11-26,10092.0,5946.0,16038.0,4,Long
2020-11-27,10092.0,6322.0,16414.0,5,Long
2020-11-29,10092.0,5277.0,15369.0,5,Long
2020-11-30,10092.0,6192.0,16284.0,5,Long
2020-12-01,10092.0,5327.0,15419.0,5,Long
2020-12-02,10092.0,6017.0,16109.0,5,Long
2020-12-03,10092.0,6812.0,16904.0,5,Long
2020-12-04,10092.0,7612.0,17704.0,5,Long
2020-12-06,10092.0,7567.0,17659.0,5,Long
2020-12-07,10092.0,6827.0,16919.0,5,Long
2020-12-08,10092.0,8217.0,18309.0,5,Long
2020-12-09,10092.0,7322.0,17414.0,5,Long
2020-12-10,10092.0,6902.0,16994.0,5,Long
2020-12-11,10092.0,6660.0,16752.0,6,Long
2020-12-13,10092.0,7674.0,17766.0,6,Long
2020-12-14,10092.0,5664.0,15756.0,6,Long
2020-12-15,10092.0,7476.0,17568.0,6,Long
2020-12-16,10092.0,7830.0,17922.0,6,Long
2020-12-17,10092.0,7620.0,17712.0,6,Long
2020-12-18,10092.0,8610.0,18702.0,6,Long
2020-12-20,10092.0,7698.0,17790.0,6,Long
2020-12-21,10092.0,6900.0,16992.0,6,Long
2020-12-22,10092.0,6216.0,16308.0,6,Long
2020-12-23,10092.0,7512.0,17604.0,6,Long
2020-12-24,10092.0,7524.0,17616.0,6,Long
2020-12-27,10092.0,8370.0,18462.0,6,Long
2020-12-28,10092.0,9660.0,19752.0,6,Long
2020-12-29,10092.0,8808.0,18900.0,6,Long
2020-12-30,10092.0,8796.0,18888.0,6,Long
2020-12-31,10092.0,9882.0,19974.0,6,Long
2021-01-03,10092.0,9918.0,20010.0,6,Long
2021-01-04,10092.0,7368.0,17460.0,6,Long
2021-01-05,10092.0,8274.0,18366.0,6,Long
2021-01-06,10092.0,11988.0,22080.0,6,Long
2021-01-07,10092.0,13440.0,23532.0,6,Long
2021-01-08,10092.0,13096.0,23188.0,7,Long
2021-01-10,10092.0,11535.0,21627.0,7,Long
2021-01-11,10092.0,12179.0,22271.0,7,Long
2021-01-12,10092.0,13222.0,23314.0,7,Long
2021-01-13,10092.0,13544.0,23636.0,7,Long
2021-01-14,10092.0,11472.0,21564.0,7,Long
2021-01-15,10092.0,10317.0,20409.0,7,Long
2021-01-17,10092.0,10709.0,20801.0,7,Long
2021-01-18,10092.0,12144.0,22236.0,7,Long
2021-01-19,10092.0,11605.0,21697.0,7,Long
2021-01-20,10092.0,13964.0,24056.0,7,Long
2021-01-21,10092.0,12865.0,22957.0,7,Long
2021-01-22,10092.0,12188.0,22280.0,8,Long
2021-01-24,10092.0,12900.0,22992.0,8,Long
2021-01-25,10092.0,10548.0,20640.0,8,Long
2021-01-26,10092.0,11076.0,21168.0,8,Long
2021-01-27,10092.0,6180.0,16272.0,8,Long
2021-01-28,10092.0,6804.0,16896.0,8,Long
2021-01-29,10092.0,3604.0,13696.0,8,Long
2021-01-31,13608.0,0.0,13608.0,0,
2021-02-01,13608.0,0.0,13608.0,0,
2021-02-02,13608.0,0.0,13608.0,0,
2021-02-03,13608.0,0.0,13608.0,0,
2021-02-04,13608.0,0.0,13608.0,0,
2021-02-05,13608.0,0.0,13608.0,0,
2021-02-07,13608.0,183.0,13791.0,3,Long
2021-02-08,13608.0,399.0,14007.0,3,Long
2021-02-09,13608.0,711.0,14319.0,3,Long
2021-02-10,13608.0,732.0,14340.0,3,Long
2021-02-11,13608.0,561.0,14169.0,3,Long
2021-02-12,13608.0,861.0,14469.0,3,Long
2021-02-14,13608.0,1233.0,14841.0,3,Long
2021-02-15,13608.0,1569.0,15177.0,3,Long
2021-02-16,13608.0,981.0,14589.0,3,Long
2021-02-17,13608.0,1200.0,14808.0,3,Long
2021-02-18,13608.0,660.0,14268.0,3,Long
2021-02-19,13608.0,863.0,14471.0,4,Long
2021-02-21,13608.0,779.0,14387.0,4,Long
2021-02-22,13608.0,1531.0,15139.0,4,Long
2021-02-23,13608.0,867.0,14475.0,4,Long
2021-02-24,13608.0,3195.0,16803.0,4,Long
2021-02-25,13608.0,171.0,13779.0,4,Long
2021-02-26,13608.0,-1245.0,12363.0,4,Long
2021-02-28,12659.0,0.0,12659.0,0,
2021-03-01,12659.0,0.0,12659.0,0,
2021-03-02,12659.0,156.0,12815.0,3,Long
2021-03-03,12659.0,-882.0,11777.0,3,Long
2021-03-04,11786.0,0.0,11786.0,0,
2021-03-05,11786.0,0.0,11786.0,0,
2021-03-07,11786.0,-264.0,11522.0,3,Long
2021-03-08,11786.0,1260.0,13046.0,3,Long
2021-03-09,11786.0,717.0,12503.0,3,Long
2021-03-10,11786.0,2550.0,14336.0,3,Long
2021-03-11,11786.0,3078.0,14864.0,3,Long
2021-03-12,11786.0,3381.0,15167.0,3,Long
2021-03-14,11786.0,3534.0,15320.0,3,Long
2021-03-15,11786.0,3753.0,15539.0,3,Long
2021-03-16,11786.0,3405.0,15191.0,3,Long
2021-03-17,11786.0,4254.0,16040.0,3,Long
2021-03-18,11786.0,3741.0,15527.0,3,Long
2021-03-19,11786.0,2740.0,14526.0,4,Long
2021-03-21,11786.0,2408.0,14194.0,4,Long
2021-03-22,11786.0,3040.0,14826.0,4,Long
2021-03-23,11786.0,1924.0,13710.0,4,Long
2021-03-24,11786.0,2352.0,14138.0,4,Long
2021-03-25,11786.0,3060.0,14846.0,4,Long
2021-03-26,11786.0,4540.0,16326.0,4,Long
2021-03-28,11786.0,4136.0,15922.0,4,Long
2021-03-29,11786.0,5076.0,16862.0,4,Long
2021-03-30,11786.0,4496.0,16282.0,4,Long
2021-03-31,11786.0,4148.0,15934.0,4,Long
2021-04-01,11786.0,4832.0,16618.0,4,Long
2021-04-02,11786.0,5584.0,17370.0,5,Long
2021-04-04,11786.0,5784.0,17570.0,5,Long
2021-04-05,11786.0,6149.0,17935.0,5,Long
2021-04-06,11786.0,6239.0,18025.0,5,Long
2021-04-07,11786.0,6409.0,18195.0,5,Long
2021-04-08,11786.0,6499.0,18285.0,5,Long
2021-04-09,11786.0,7694.0,19480.0,5,Long
2021-04-11,11786.0,7434.0,19220.0,5,Long
2021-04-12,11786.0,7759.0,19545.0,5,Long
2021-04-13,11786.0,7159.0,18945.0,5,Long
2021-04-14,11786.0,7914.0,19700.0,5,Long
2021-04-15,11786.0,8959.0,20745.0,5,Long
2021-04-16,11786.0,9706.0,21492.0,6,Long
2021-04-18,11786.0,9292.0,21078.0,6,Long
2021-04-19,11786.0,9652.0,21438.0,6,Long
2021-04-20,11786.0,7396.0,19182.0,6,Long
2021-04-21,11786.0,9256.0,21042.0,6,Long
2021-04-22,11786.0,7888.0,19674.0,6,Long
2021-04-23,11786.0,8848.0,20634.0,6,Long
2021-04-25,11786.0,9262.0,21048.0,6,Long
2021-04-26,11786.0,8800.0,20586.0,6,Long
2021-04-27,11786.0,8416.0,20202.0,6,Long
2021-04-28,11786.0,8230.0,20016.0,6,Long
2021-04-29,11786.0,8758.0,20544.0,6,Long
2021-04-30,11786.0,8190.0,19976.0,7,Long
2021-05-02,11786.0,8869.0,20655.0,7,Long
2021-05-03,11786.0,9317.0,21103.0,7,Long
2021-05-04,11786.0,10353.0,22139.0,7,Long
2021-05-05,11786.0,10409.0,22195.0,7,Long
2021-05-06,11786.0,12796.0,24582.0,7,Long
2021-05-07,11786.0,14483.0,26269.0,7,Long
2021-05-09,11786.0,15015.0,26801.0,7,Long
2021-05-10,11786.0,13664.0,25450.0,7,Long
2021-05-11,11786.0,9184.0,20970.0,7,Long
2021-05-12,11786.0,6860.0,18646.0,7,Long
2021-05-13,18639.0,0.0,18639.0,0,
2021-05-14,18639.0,0.0,18639.0,0,
2021-05-16,18639.0,0.0,18639.0,0,
2021-05-17,18639.0,0.0,18639.0,0,
2021-05-18,18639.0,0.0,18639.0,0,
2021-05-19,18639.0,0.0,18639.0,0,
2021-05-20,18639.0,0.0,18639.0,0,
2021-05-21,18639.0,0.0,18639.0,0,
2021-05-23,18639.0,0.0,18639.0,0,
2021-05-24,18639.0,0.0,18639.0,0,
2021-05-25,18639.0,0.0,18639.0,0,
2021-05-26,18639.0,0.0,18639.0,0,
2021-05-27,18639.0,0.0,18639.0,0,
2021-05-28,18639.0,0.0,18639.0,0,
2021-05-30,18639.0,0.0,18639.0,0,
2021-05-31,18639.0,0.0,18639.0,0,
2021-06-01,18639.0,0.0,18639.0,0,
2021-06-02,18639.0,0.0,18639.0,0,
2021-06-03,18639.0,0.0,18639.0,0,
2021-06-04,18639.0,0.0,18639.0,0,
2021-06-06,18639.0,0.0,18639.0,0,
2021-06-07,18639.0,0.0,18639.0,0,
2021-06-08,18639.0,0.0,18639.0,0,
2021-06-09,18639.0,0.0,18639.0,0,
2021-06-10,18639.0,0.0,18639.0,0,
2021-06-11,18639.0,0.0,18639.0,0,
2021-06-13,18639.0,0.0,18639.0,0,
2021-06-14,18639.0,0.0,18639.0,0,
2021-06-15,18639.0,0.0,18639.0,0,
2021-06-16,18639.0,0.0,18639.0,0,
2021-06-17,18639.0,0.0,18639.0,0,
2021-06-18,18639.0,0.0,18639.0,0,
2021-06-20,18639.0,0.0,18639.0,0,
2021-06-21,18639.0,0.0,18639.0,0,
2021-06-22,18639.0,0.0,18639.0,0,
2021-06-23,18639.0,0.0,18639.0,0,
2021-06-24,18639.0,0.0,18639.0,0,
2021-06-25,18639.0,432.0,19071.0,3,Long
2021-06-27,18639.0,354.0,18993.0,3,Long
2021-06-28,18639.0,-306.0,18333.0,3,Long
2021-06-29,18330.0,0.0,18330.0,0,
2021-06-30,18330.0,0.0,18330.0,0,
2021-07-01,18330.0,267.0,18597.0,3,Long
2021-07-02,18330.0,552.0,18882.0,3,Long
2021-07-04,18330.0,480.0,18810.0,3,Long
2021-07-05,18330.0,798.0,19128.0,3,Long
2021-07-06,18330.0,-63.0,18267.0,3,Long
2021-07-07,18330.0,60.0,18390.0,3,Long
2021-07-08,18330.0,-744.0,17586.0,3,Long
2021-07-09,17595.0,0.0,17595.0,0,
2021-07-11,17595.0,-195.0,17400.0,3,Long
2021-07-12,17595.0,339.0,17934.0,3,Long
2021-07-13,17595.0,-45.0,17550.0,3,Long
2021-07-14,17595.0,9.0,17604.0,3,Long
2021-07-15,17595.0,333.0,17928.0,3,Long
2021-07-16,17595.0,-606.0,16989.0,3,Long
2021-07-18,17595.0,-1038.0,16557.0,3,Long
2021-07-19,17595.0,-2577.0,15018.0,3,Long
2021-07-20,15006.0,0.0,15006.0,0,
2021-07-21,15006.0,957.0,15963.0,3,Long
2021-07-22,15006.0,1083.0,16089.0,3,Long
2021-07-23,15006.0,1554.0,16560.0,3,Long
2021-07-25,15006.0,1194.0,16200.0,3,Long
2021-07-26,15006.0,1743.0,16749.0,3,Long
2021-07-27,15006.0,1431.0,16437.0,3,Long
2021-07-28,15006.0,1272.0,16278.0,3,Long
2021-07-29,15006.0,1413.0,16419.0,3,Long
2021-07-30,15006.0,1471.0,16477.0,4,Long
2021-08-01,15006.0,1919.0,16925.0,4,Long
2021-08-02,15006.0,1175.0,16181.0,4,Long
2021-08-03,15006.0,1847.0,16853.0,4,Long
2021-08-04,15006.0,979.0,15985.0,4,Long
2021-08-05,15006.0,1647.0,16653.0,4,Long
2021-08-06,15006.0,2363.0,17369.0,4,Long
2021-08-08,15006.0,2175.0,17181.0,4,Long
2021-08-09,15006.0,1739.0,16745.0,4,Long
2021-08-10,15006.0,2539.0,17545.0,4,Long
2021-08-11,15006.0,3547.0,18553.0,4,Long
2021-08-12,15006.0,3603.0,18609.0,4,Long
2021-08-13,15006.0,3604.0,18610.0,5,Long
2021-08-15,15006.0,3029.0,18035.0,5,Long
2021-08-16,15006.0,3759.0,18765.0,5,Long
2021-08-17,15006.0,2904.0,17910.0,5,Long
2021-08-18,15006.0,949.0,15955.0,5,Long
2021-08-19,15006.0,489.0,15495.0,5,Long
2021-08-20,15006.0,1879.0,16885.0,5,Long
2021-08-22,15006.0,2544.0,17550.0,5,Long
2021-08-23,15006.0,3319.0,18325.0,5,Long
2021-08-24,15006.0,2929.0,17935.0,5,Long
2021-08-25,15006.0,3209.0,18215.0,5,Long
2021-08-26,15006.0,2614.0,17620.0,5,Long
2021-08-27,15006.0,3649.0,18655.0,6,Long
2021-08-29,15006.0,3751.0,18757.0,6,Long
2021-08-30,15006.0,3565.0,18571.0,6,Long
2021-08-31,15006.0,3757.0,18763.0,6,Long
2021-09-01,15006.0,2653.0,17659.0,6,Long
2021-09-02,15006.0,4051.0,19057.0,6,Long
2021-09-03,15006.0,3217.0,18223.0,6,Long
2021-09-05,15006.0,3271.0,18277.0,6,Long
2021-09-06,15006.0,3589.0,18595.0,6,Long
2021-09-07,15006.0,1663.0,16669.0,6,Long
2021-09-08,15006.0,661.0,15667.0,6,Long
2021-09-09,15006.0,925.0,15931.0,6,Long
2021-09-10,15006.0,-1721.0,13285.0,6,Long
2021-09-12,13333.0,0.0,13333.0,0,
2021-09-13,13333.0,0.0,13333.0,0,
2021-09-14,13333.0,0.0,13333.0,0,
2021-09-15,13333.0,0.0,13333.0,0,
2021-09-16,13333.0,0.0,13333.0,0,
2021-09-17,13333.0,0.0,13333.0,0,
2021-09-19,13333.0,0.0,13333.0,0,
2021-09-20,13333.0,0.0,13333.0,0,
2021-09-21,13333.0,0.0,13333.0,0,
2021-09-22,13333.0,0.0,13333.0,0,
2021-09-23,13333.0,0.0,13333.0,0,
2021-09-24,13333.0,0.0,13333.0,0,
2021-09-26,13333.0,0.0,13333.0,0,
2021-09-27,13333.0,0.0,13333.0,0,
2021-09-28,13333.0,0.0,13333.0,0,
2021-09-29,13333.0,0.0,13333.0,0,
2021-09-30,13333.0,0.0,13333.0,0,
2021-10-01,13333.0,0.0,13333.0,0,
2021-10-03,13333.0,0.0,13333.0,0,
2021-10-04,13333.0,0.0,13333.0,0,
2021-10-05,13333.0,0.0,13333.0,0,
2021-10-06,13333.0,0.0,13333.0,0,
2021-10-07,13333.0,0.0,13333.0,0,
2021-10-08,13333.0,0.0,13333.0,0,
2021-10-10,13333.0,0.0,13333.0,0,
2021-10-11,13333.0,0.0,13333.0,0,
2021-10-12,13333.0,0.0,13333.0,0,
2021-10-13,13333.0,0.0,13333.0,0,
2021-10-14,13333.0,0.0,13333.0,0,
2021-10-15,13333.0,900.0,14233.0,3,Long
2021-10-17,13333.0,888.0,14221.0,3,Long
2021-10-18,13333.0,687.0,14020.0,3,Long
2021-10-19,13333.0,1338.0,14671.0,3,Long
2021-10-20,13333.0,1632.0,14965.0,3,Long
2021-10-21,13333.0,1881.0,15214.0,3,Long
2021-10-22,13333.0,1806.0,15139.0,3,Long
2021-10-24,13333.0,2013.0,15346.0,3,Long
2021-10-25,13333.0,2328.0,15661.0,3,Long
2021-10-26,13333.0,2244.0,15577.0,3,Long
2021-10-27,13333.0,1650.0,14983.0,3,Long
2021-10-28,13333.0,2085.0,15418.0,3,Long
2021-10-29,13333.0,2603.0,15936.0,4,Long
2021-10-31,13333.0,2771.0,16104.0,4,Long
2021-11-01,13333.0,2519.0,15852.0,4,Long
2021-11-02,13333.0,3211.0,16544.0,4,Long
2021-11-03,13333.0,3675.0,17008.0,4,Long
2021-11-04,13333.0,3583.0,16916.0,4,Long
2021-11-05,13333.0,4311.0,17644.0,4,Long
2021-11-07,13333.0,4359.0,17692.0,4,Long
2021-11-08,13333.0,4511.0,17844.0,4,Long
2021-11-09,13333.0,3979.0,17312.0,4,Long
2021-11-10,13333.0,3459.0,16792.0,4,Long
2021-11-11,13333.0,3159.0,16492.0,4,Long
2021-11-12,13333.0,3764.0,17097.0,5,Long
2021-11-14,13333.0,3674.0,17007.0,5,Long
2021-11-15,13333.0,3674.0,17007.0,5,Long
2021-11-16,13333.0,3959.0,17292.0,5,Long
2021-11-17,13333.0,2974.0,16307.0,5,Long
2021-11-18,13333.0,3284.0,16617.0,5,Long
2021-11-19,13333.0,1559.0,14892.0,5,Long
2021-11-21,13333.0,1934.0,15267.0,5,Long
2021-11-22,13333.0,1659.0,14992.0,5,Long
2021-11-23,13333.0,2074.0,15407.0,5,Long
2021-11-24,13333.0,2974.0,16307.0,5,Long
2021-11-25,13333.0,169.0,13502.0,5,Long
2021-11-26,13502.0,0.0,13502.0,0,
2021-11-28,13502.0,0.0,13502.0,0,
2021-11-29,13502.0,0.0,13502.0,0,
2021-11-30,13502.0,0.0,13502.0,0,
2021-12-01,13502.0,0.0,13502.0,0,
2021-12-02,13502.0,0.0,13502.0,0,
2021-12-03,13502.0,0.0,13502.0,0,
2021-12-05,13502.0,0.0,13502.0,0,
2021-12-06,13502.0,0.0,13502.0,0,
2021-12-07,13502.0,0.0,13502.0,0,
2021-12-08,13502.0,-369.0,13133.0,3,Long
2021-12-09,13130.0,0.0,13130.0,0,
2021-12-10,13130.0,0.0,13130.0,0,
2021-12-12,13130.0,357.0,13487.0,3,Long
2021-12-13,13130.0,-891.0,12239.0,3,Long
2021-12-14,12233.0,0.0,12233.0,0,
2021-12-15,12233.0,0.0,12233.0,0,
2021-12-16,12233.0,-303.0,11930.0,3,Long
2021-12-17,11933.0,0.0,11933.0,0,
2021-12-19,11933.0,0.0,11933.0,0,
2021-12-20,11933.0,0.0,11933.0,0,
2021-12-21,11933.0,0.0,11933.0,0,
2021-12-22,11933.0,0.0,11933.0,0,
2021-12-23,11933.0,0.0,11933.0,0,
2021-12-26,11933.0,-36.0,11897.0,3,Long
2021-12-27,11933.0,903.0,12836.0,3,Long
2021-12-28,11933.0,1356.0,13289.0,3,Long
2021-12-29,11933.0,1566.0,13499.0,3,Long
2021-12-30,11933.0,1134.0,13067.0,3,Long
2021-12-31,11933.0,1236.0,13169.0,3,Long
2022-01-02,11933.0,1506.0,13439.0,3,Long
2022-01-03,11933.0,1980.0,13913.0,3,Long
2022-01-04,11933.0,2268.0,14201.0,3,Long
2022-01-05,11933.0,999.0,12932.0,3,Long
2022-01-06,11933.0,1062.0,12995.0,3,Long
2022-01-07,11933.0,797.0,12730.0,4,Long
2022-01-09,11933.0,745.0,12678.0,4,Long
2022-01-10,11933.0,113.0,12046.0,4,Long
2022-01-11,11933.0,981.0,12914.0,4,Long
2022-01-12,11933.0,805.0,12738.0,4,Long
2022-01-13,11933.0,373.0,12306.0,4,Long
2022-01-14,11933.0,-359.0,11574.0,4,Long
2022-01-16,11933.0,-731.0,11202.0,4,Long
2022-01-17,11198.0,0.0,11198.0,0,
2022-01-18,11198.0,0.0,11198.0,0,
2022-01-19,11198.0,0.0,11198.0,0,
2022-01-20,11198.0,0.0,11198.0,0,
2022-01-21,11198.0,0.0,11198.0,0,
2022-01-23,11198.0,0.0,11198.0,0,
2022-01-24,11198.0,0.0,11198.0,0,
2022-01-25,11198.0,0.0,11198.0,0,
2022-01-26,11198.0,0.0,11198.0,0,
2022-01-27,11198.0,0.0,11198.0,0,
2022-01-28,11198.0,0.0,11198.0,0,
2022-01-30,11198.0,0.0,11198.0,0,
2022-01-31,11198.0,0.0,11198.0,0,
2022-02-01,11198.0,0.0,11198.0,0,
2022-02-02,11198.0,0.0,11198.0,0,
2022-02-03,11198.0,-933.0,10265.0,3,Long
2022-02-04,10262.0,0.0,10262.0,0,
2022-02-06,10262.0,0.0,10262.0,0,
2022-02-07,10262.0,0.0,10262.0,0,
2022-02-08,10262.0,0.0,10262.0,0,
2022-02-09,10262.0,489.0,10751.0,3,Long
2022-02-10,10262.0,-1680.0,8582.0,3,Long
2022-02-11,8585.0,0.0,8585.0,0,
2022-02-13,8585.0,0.0,8585.0,0,
2022-02-14,8585.0,0.0,8585.0,0,
2022-02-15,8585.0,0.0,8585.0,0,
2022-02-16,8585.0,0.0,8585.0,0,
2022-02-17,8585.0,0.0,8585.0,0,
2022-02-18,8585.0,0.0,8585.0,0,
2022-02-20,8585.0,0.0,8585.0,0,
2022-02-21,8585.0,0.0,8585.0,0,
2022-02-22,8585.0,0.0,8585.0,0,
2022-02-23,8585.0,0.0,8585.0,0,
2022-02-24,8585.0,0.0,8585.0,0,
2022-02-25,8585.0,0.0,8585.0,0,
2022-02-27,8585.0,0.0,8585.0,0,
2022-02-28,8585.0,0.0,8585.0,0,
2022-03-01,8585.0,0.0,8585.0,0,
2022-03-02,8585.0,0.0,8585.0,0,
2022-03-03,8585.0,0.0,8585.0,0,
2022-03-04,8585.0,0.0,8585.0,0,
2022-03-06,8585.0,0.0,8585.0,0,
2022-03-07,8585.0,0.0,8585.0,0,
2022-03-08,8585.0,0.0,8585.0,0,
2022-03-09,8585.0,0.0,8585.0,0,
2022-03-10,8585.0,0.0,8585.0,0,
2022-03-11,8585.0,0.0,8585.0,0,
2022-03-13,8585.0,0.0,8585.0,0,
2022-03-14,8585.0,0.0,8585.0,0,
2022-03-15,8585.0,0.0,8585.0,0,
2022-03-16,8585.0,0.0,8585.0,0,
2022-03-17,8585.0,0.0,8585.0,0,
2022-03-18,8585.0,0.0,8585.0,0,
2022-03-20,8585.0,0.0,8585.0,0,
2022-03-21,8585.0,0.0,8585.0,0,
2022-03-22,8585.0,0.0,8585.0,0,
2022-03-23,8585.0,0.0,8585.0,0,
2022-03-24,8585.0,0.0,8585.0,0,
2022-03-25,8585.0,0.0,8585.0,0,
2022-03-27,8585.0,0.0,8585.0,0,
2022-03-28,8585.0,0.0,8585.0,0,
2022-03-29,8585.0,789.0,9374.0,3,Long
2022-03-30,8585.0,816.0,9401.0,3,Long
2022-03-31,8585.0,-432.0,8153.0,3,Long
2022-04-01,8147.0,0.0,8147.0,0,
2022-04-03,8147.0,0.0,8147.0,0,
2022-04-04,8147.0,0.0,8147.0,0,
2022-04-05,8147.0,0.0,8147.0,0,
2022-04-06,8147.0,0.0,8147.0,0,
2022-04-07,8147.0,0.0,8147.0,0,
2022-04-08,8147.0,0.0,8147.0,0,
2022-04-10,8147.0,0.0,8147.0,0,
2022-04-11,8147.0,0.0,8147.0,0,
2022-04-12,8147.0,0.0,8147.0,0,
2022-04-13,8147.0,0.0,8147.0,0,
2022-04-14,8147.0,0.0,8147.0,0,
2022-04-17,8147.0,0.0,8147.0,0,
2022-04-18,8147.0,0.0,8147.0,0,
2022-04-19,8147.0,0.0,8147.0,0,
2022-04-20,8147.0,0.0,8147.0,0,
2022-04-21,8147.0,-1734.0,6413.0,3,Long
2022-04-22,6416.0,0.0,6416.0,0,
2022-04-24,6416.0,0.0,6416.0,0,
2022-04-25,6416.0,0.0,6416.0,0,
2022-04-26,6416.0,0.0,6416.0,0,
2022-04-27,6416.0,0.0,6416.0,0,
2022-04-28,6416.0,0.0,6416.0,0,
2022-04-29,6416.0,0.0,6416.0,0,
2022-05-01,6416.0,0.0,6416.0,0,
2022-05-02,6416.0,0.0,6416.0,0,
2022-05-03,6416.0,0.0,6416.0,0,
2022-05-04,6416.0,0.0,6416.0,0,
2022-05-05,6416.0,0.0,6416.0,0,
2022-05-06,6416.0,0.0,6416.0,0,
2022-05-08,6416.0,0.0,6416.0,0,
2022-05-09,6416.0,0.0,6416.0,0,
2022-05-10,6416.0,0.0,6416.0,0,
2022-05-11,6416.0,0.0,6416.0,0,
2022-05-12,6416.0,0.0,6416.0,0,
2022-05-13,6416.0,0.0,6416.0,0,
2022-05-15,6416.0,0.0,6416.0,0,
2022-05-16,6416.0,0.0,6416.0,0,
2022-05-17,6416.0,0.0,6416.0,0,
2022-05-18,6416.0,0.0,6416.0,0,
2022-05-19,6416.0,0.0,6416.0,0,
2022-05-20,6416.0,0.0,6416.0,0,
2022-05-22,6416.0,0.0,6416.0,0,
2022-05-23,6416.0,0.0,6416.0,0,
2022-05-24,6416.0,0.0,6416.0,0,
2022-05-25,6416.0,0.0,6416.0,0,
2022-05-26,6416.0,0.0,6416.0,0,
2022-05-27,6416.0,0.0,6416.0,0,
2022-05-29,6416.0,18.0,6434.0,3,Long
2022-05-30,6416.0,-90.0,6326.0,3,Long
2022-05-31,6329.0,0.0,6329.0,0,
2022-06-01,6329.0,0.0,6329.0,0,
2022-06-02,6329.0,0.0,6329.0,0,
2022-06-03,6329.0,-990.0,5339.0,3,Long
2022-06-05,5459.0,0.0,5459.0,0,
2022-06-06,5459.0,0.0,5459.0,0,
2022-06-07,5459.0,0.0,5459.0,0,
2022-06-08,5459.0,0.0,5459.0,0,
2022-06-09,5459.0,0.0,5459.0,0,
2022-06-10,5459.0,0.0,5459.0,0,
2022-06-12,5459.0,0.0,5459.0,0,
2022-06-13,5459.0,0.0,5459.0,0,
2022-06-14,5459.0,0.0,5459.0,0,
2022-06-15,5459.0,0.0,5459.0,0,
2022-06-16,5459.0,0.0,5459.0,0,
2022-06-17,5459.0,0.0,5459.0,0,
2022-06-19,5459.0,0.0,5459.0,0,
2022-06-20,5459.0,0.0,5459.0,0,
2022-06-21,5459.0,0.0,5459.0,0,
2022-06-22,5459.0,0.0,5459.0,0,
2022-06-23,5459.0,0.0,5459.0,0,
2022-06-24,5459.0,0.0,5459.0,0,
2022-06-26,5459.0,0.0,5459.0,0,
2022-06-27,5459.0,0.0,5459.0,0,
2022-06-28,5459.0,0.0,5459.0,0,
2022-06-29,5459.0,0.0,5459.0,0,
2022-06-30,5459.0,0.0,5459.0,0,
2022-07-01,5459.0,0.0,5459.0,0,
2022-07-03,5459.0,0.0,5459.0,0,
2022-07-04,5459.0,0.0,5459.0,0,
2022-07-05,5459.0,0.0,5459.0,0,
2022-07-06,5459.0,0.0,5459.0,0,
2022-07-07,5459.0,0.0,5459.0,0,
2022-07-08,5459.0,0.0,5459.0,0,
2022-07-10,5459.0,0.0,5459.0,0,
2022-07-11,5459.0,0.0,5459.0,0,
2022-07-12,5459.0,0.0,5459.0,0,
2022-07-13,5459.0,0.0,5459.0,0,
2022-07-14,5459.0,0.0,5459.0,0,
2022-07-15,5459.0,0.0,5459.0,0,
2022-07-17,5459.0,0.0,5459.0,0,
2022-07-18,5459.0,0.0,5459.0,0,
2022-07-19,5459.0,0.0,5459.0,0,
2022-07-20,5459.0,-414.0,5045.0,3,Long
2022-07-21,5039.0,0.0,5039.0,0,
2022-07-22,5039.0,-333.0,4706.0,3,Long
2022-07-24,4754.0,0.0,4754.0,0,
2022-07-25,4754.0,0.0,4754.0,0,
2022-07-26,4754.0,0.0,4754.0,0,
2022-07-27,4754.0,0.0,4754.0,0,
2022-07-28,4754.0,1143.0,5897.0,3,Long
2022-07-29,4754.0,2076.0,6830.0,3,Long
2022-07-31,4754.0,1665.0,6419.0,3,Long
2022-08-01,4754.0,1650.0,6404.0,3,Long
2022-08-02,4754.0,957.0,5711.0,3,Long
2022-08-03,4754.0,1905.0,6659.0,3,Long
2022-08-04,4754.0,1953.0,6707.0,3,Long
2022-08-05,4754.0,1760.0,6514.0,4,Long
2022-08-07,4754.0,1780.0,6534.0,4,Long
2022-08-08,4754.0,2396.0,7150.0,4,Long
2022-08-09,4754.0,1808.0,6562.0,4,Long
2022-08-10,4754.0,4340.0,9094.0,4,Long
2022-08-11,4754.0,4264.0,9018.0,4,Long
2022-08-12,4754.0,5768.0,10522.0,4,Long
2022-08-14,4754.0,5496.0,10250.0,4,Long
2022-08-15,4754.0,6388.0,11142.0,4,Long
2022-08-16,4754.0,7400.0,12154.0,4,Long
2022-08-17,4754.0,6668.0,11422.0,4,Long
2022-08-18,4754.0,6648.0,11402.0,4,Long
2022-08-19,4754.0,5692.0,10446.0,5,Long
2022-08-21,4754.0,5092.0,9846.0,5,Long
2022-08-22,4754.0,2722.0,7476.0,5,Long
2022-08-23,4754.0,1152.0,5906.0,5,Long
2022-08-24,5906.0,0.0,5906.0,0,
2022-08-25,5906.0,0.0,5906.0,0,
2022-08-26,5906.0,0.0,5906.0,0,
2022-08-28,5906.0,0.0,5906.0,0,
2022-08-29,5906.0,0.0,5906.0,0,
2022-08-30,5906.0,0.0,5906.0,0,
2022-08-31,5906.0,0.0,5906.0,0,
2022-09-01,5906.0,0.0,5906.0,0,
2022-09-02,5906.0,0.0,5906.0,0,
2022-09-04,5906.0,0.0,5906.0,0,
2022-09-05,5906.0,0.0,5906.0,0,
2022-09-06,5906.0,0.0,5906.0,0,
2022-09-07,5906.0,0.0,5906.0,0,
2022-09-08,5906.0,0.0,5906.0,0,
2022-09-09,5906.0,0.0,5906.0,0,
2022-09-11,5906.0,0.0,5906.0,0,
2022-09-12,5906.0,0.0,5906.0,0,
2022-09-13,5906.0,0.0,5906.0,0,
2022-09-14,5906.0,0.0,5906.0,0,
2022-09-15,5906.0,0.0,5906.0,0,
2022-09-16,5906.0,0.0,5906.0,0,
2022-09-18,5906.0,0.0,5906.0,0,
2022-09-19,5906.0,0.0,5906.0,0,
2022-09-20,5906.0,0.0,5906.0,0,
2022-09-21,5906.0,0.0,5906.0,0,
2022-09-22,5906.0,0.0,5906.0,0,
2022-09-23,5906.0,0.0,5906.0,0,
2022-09-25,5906.0,0.0,5906.0,0,
2022-09-26,5906.0,0.0,5906.0,0,
2022-09-27,5906.0,0.0,5906.0,0,
2022-09-28,5906.0,0.0,5906.0,0,
2022-09-29,5906.0,0.0,5906.0,0,
2022-09-30,5906.0,0.0,5906.0,0,
2022-10-02,5906.0,0.0,5906.0,0,
2022-10-03,5906.0,0.0,5906.0,0,
2022-10-04,5906.0,0.0,5906.0,0,
2022-10-05,5906.0,0.0,5906.0,0,
2022-10-06,5906.0,0.0,5906.0,0,
2022-10-07,5906.0,0.0,5906.0,0,
2022-10-09,5906.0,0.0,5906.0,0,
2022-10-10,5906.0,0.0,5906.0,0,
2022-10-11,5906.0,0.0,5906.0,0,
2022-10-12,5906.0,0.0,5906.0,0,
2022-10-13,5906.0,0.0,5906.0,0,
2022-10-14,5906.0,0.0,5906.0,0,
2022-10-16,5906.0,0.0,5906.0,0,
2022-10-17,5906.0,0.0,5906.0,0,
2022-10-18,5906.0,423.0,6329.0,3,Long
2022-10-19,5906.0,-666.0,5240.0,3,Long
2022-10-20,5234.0,0.0,5234.0,0,
2022-10-21,5234.0,0.0,5234.0,0,
2022-10-23,5234.0,-189.0,5045.0,3,Long
2022-10-24,5234.0,1065.0,6299.0,3,Long
2022-10-25,5234.0,1854.0,7088.0,3,Long
2022-10-26,5234.0,2598.0,7832.0,3,Long
2022-10-27,5234.0,2748.0,7982.0,3,Long
2022-10-28,5234.0,5406.0,10640.0,3,Long
2022-10-30,5234.0,5082.0,10316.0,3,Long
2022-10-31,5234.0,5088.0,10322.0,3,Long
2022-11-01,5234.0,4617.0,9851.0,3,Long
2022-11-02,5234.0,3150.0,8384.0,3,Long
2022-11-03,5234.0,2427.0,7661.0,3,Long
2022-11-04,5234.0,3568.0,8802.0,4,Long
2022-11-06,5234.0,3608.0,8842.0,4,Long
2022-11-07,5234.0,5444.0,10678.0,4,Long
2022-11-08,5234.0,6720.0,11954.0,4,Long
2022-11-09,5234.0,4380.0,9614.0,4,Long
2022-11-10,5234.0,9236.0,14470.0,4,Long
2022-11-11,5234.0,9092.0,14326.0,4,Long
2022-11-13,5234.0,8812.0,14046.0,4,Long
2022-11-14,5234.0,8736.0,13970.0,4,Long
2022-11-15,5234.0,8236.0,13470.0,4,Long
2022-11-16,5234.0,8428.0,13662.0,4,Long
2022-11-17,5234.0,8168.0,13402.0,4,Long
2022-11-18,5234.0,9071.0,14305.0,5,Long
2022-11-20,5234.0,8746.0,13980.0,5,Long
2022-11-21,5234.0,9016.0,14250.0,5,Long
2022-11-22,5234.0,10866.0,16100.0,5,Long
2022-11-23,5234.0,11541.0,16775.0,5,Long
2022-11-24,5234.0,11476.0,16710.0,5,Long
2022-11-25,5234.0,12136.0,17370.0,5,Long
2022-11-27,5234.0,11236.0,16470.0,5,Long
2022-11-28,5234.0,9931.0,15165.0,5,Long
2022-11-29,5234.0,9726.0,14960.0,5,Long
2022-11-30,5234.0,13276.0,18510.0,5,Long
2022-12-01,5234.0,12156.0,17390.0,5,Long
2022-12-02,5234.0,12202.0,17436.0,6,Long
2022-12-04,5234.0,12454.0,17688.0,6,Long
2022-12-05,5234.0,10000.0,15234.0,6,Long
2022-12-06,5234.0,7972.0,13206.0,6,Long
2022-12-07,5234.0,7480.0,12714.0,6,Long
2022-12-08,5234.0,8950.0,14184.0,6,Long
2022-12-09,5234.0,6760.0,11994.0,6,Long
2022-12-11,5234.0,8236.0,13470.0,6,Long
2022-12-12,5234.0,11488.0,16722.0,6,Long
2022-12-13,5234.0,12766.0,18000.0,6,Long
2022-12-14,5234.0,11410.0,16644.0,6,Long
2022-12-15,5234.0,6244.0,11478.0,6,Long
2022-12-16,5234.0,4330.0,9564.0,6,Long
2022-12-18,9732.0,0.0,9732.0,0,
2022-12-19,9732.0,0.0,9732.0,0,
2022-12-20,9732.0,0.0,9732.0,0,
2022-12-21,9732.0,0.0,9732.0,0,
2022-12-22,9732.0,0.0,9732.0,0,
2022-12-23,9732.0,0.0,9732.0,0,
2022-12-26,9732.0,0.0,9732.0,0,
2022-12-27,9732.0,0.0,9732.0,0,
2022-12-28,9732.0,0.0,9732.0,0,
2022-12-29,9732.0,0.0,9732.0,0,
2022-12-30,9732.0,0.0,9732.0,0,
2023-01-02,9732.0,0.0,9732.0,0,
2023-01-03,9732.0,0.0,9732.0,0,
2023-01-04,9732.0,0.0,9732.0,0,
2023-01-05,9732.0,0.0,9732.0,0,
2023-01-06,9732.0,0.0,9732.0,0,
2023-01-08,9732.0,0.0,9732.0,0,
2023-01-09,9732.0,0.0,9732.0,0,
2023-01-10,9732.0,0.0,9732.0,0,
2023-01-11,9732.0,0.0,9732.0,0,
2023-01-12,9732.0,0.0,9732.0,0,
2023-01-13,9732.0,0.0,9732.0,0,
2023-01-15,9732.0,0.0,9732.0,0,
2023-01-16,9732.0,0.0,9732.0,0,
2023-01-17,9732.0,0.0,9732.0,0,
2023-01-18,9732.0,0.0,9732.0,0,
2023-01-19,9732.0,0.0,9732.0,0,
2023-01-20,9732.0,0.0,9732.0,0,
2023-01-22,9732.0,0.0,9732.0,0,
2023-01-23,9732.0,0.0,9732.0,0,
2023-01-24,9732.0,0.0,9732.0,0,
2023-01-25,9732.0,0.0,9732.0,0,
2023-01-26,9732.0,0.0,9732.0,0,
2023-01-27,9732.0,0.0,9732.0,0,
2023-01-29,9732.0,0.0,9732.0,0,
2023-01-30,9732.0,0.0,9732.0,0,
2023-01-31,9732.0,0.0,9732.0,0,
2023-02-01,9732.0,0.0,9732.0,0,
2023-02-02,9732.0,0.0,9732.0,0,
2023-02-03,9732.0,0.0,9732.0,0,
2023-02-05,9732.0,0.0,9732.0,0,
2023-02-06,9732.0,0.0,9732.0,0,
2023-02-07,9732.0,0.0,9732.0,0,
2023-02-08,9732.0,0.0,9732.0,0,
2023-02-09,9732.0,0.0,9732.0,0,
2023-02-10,9732.0,0.0,9732.0,0,
2023-02-12,9732.0,0.0,9732.0,0,
2023-02-13,9732.0,0.0,9732.0,0,
2023-02-14,9732.0,0.0,9732.0,0,
2023-02-15,9732.0,0.0,9732.0,0,
2023-02-16,9732.0,0.0,9732.0,0,
2023-02-17,9732.0,0.0,9732.0,0,
2023-02-19,9732.0,0.0,9732.0,0,
2023-02-20,9732.0,0.0,9732.0,0,
2023-02-21,9732.0,0.0,9732.0,0,
2023-02-22,9732.0,0.0,9732.0,0,
2023-02-23,9732.0,0.0,9732.0,0,
2023-02-24,9732.0,0.0,9732.0,0,
2023-02-26,9732.0,0.0,9732.0,0,
2023-02-27,9732.0,0.0,9732.0,0,
2023-02-28,9732.0,0.0,9732.0,0,
2023-03-01,9732.0,0.0,9732.0,0,
2023-03-02,9732.0,0.0,9732.0,0,
2023-03-03,9732.0,0.0,9732.0,0,
2023-03-05,9732.0,0.0,9732.0,0,
2023-03-06,9732.0,0.0,9732.0,0,
2023-03-07,9732.0,0.0,9732.0,0,
2023-03-08,9732.0,0.0,9732.0,0,
2023-03-09,9732.0,0.0,9732.0,0,
2023-03-10,9732.0,0.0,9732.0,0,
2023-03-12,9732.0,0.0,9732.0,0,
2023-03-13,9732.0,0.0,9732.0,0,
2023-03-14,9732.0,0.0,9732.0,0,
2023-03-15,9732.0,0.0,9732.0,0,
2023-03-16,9732.0,0.0,9732.0,0,
2023-03-17,9732.0,0.0,9732.0,0,
2023-03-19,9732.0,0.0,9732.0,0,
2023-03-20,9732.0,0.0,9732.0,0,
2023-03-21,9732.0,0.0,9732.0,0,
2023-03-22,9732.0,0.0,9732.0,0,
2023-03-23,9732.0,0.0,9732.0,0,
2023-03-24,9732.0,0.0,9732.0,0,
2023-03-26,9732.0,0.0,9732.0,0,
2023-03-27,9732.0,0.0,9732.0,0,
2023-03-28,9732.0,0.0,9732.0,0,
2023-03-29,9732.0,0.0,9732.0,0,
2023-03-30,9732.0,0.0,9732.0,0,
2023-03-31,9732.0,0.0,9732.0,0,
2023-04-02,9732.0,36.0,9768.0,3,Long
2023-04-03,9732.0,1023.0,10755.0,3,Long
2023-04-04,9732.0,471.0,10203.0,3,Long
2023-04-05,9732.0,471.0,10203.0,3,Long
2023-04-06,9732.0,522.0,10254.0,3,Long
2023-04-07,9732.0,825.0,10557.0,3,Long
2023-04-09,9732.0,705.0,10437.0,3,Long
2023-04-10,9732.0,1053.0,10785.0,3,Long
2023-04-11,9732.0,1281.0,11013.0,3,Long
2023-04-12,9732.0,1080.0,10812.0,3,Long
2023-04-13,9732.0,2100.0,11832.0,3,Long
2023-04-14,9732.0,2004.0,11736.0,4,Long
2023-04-16,9732.0,2012.0,11744.0,4,Long
2023-04-17,9732.0,2116.0,11848.0,4,Long
2023-04-18,9732.0,1912.0,11644.0,4,Long
2023-04-19,9732.0,1708.0,11440.0,4,Long
2023-04-20,9732.0,1244.0,10976.0,4,Long
2023-04-21,9732.0,1344.0,11076.0,4,Long
2023-04-23,9732.0,996.0,10728.0,4,Long
2023-04-24,9732.0,1432.0,11164.0,4,Long
2023-04-25,9732.0,376.0,10108.0,4,Long
2023-04-26,9732.0,-572.0,9160.0,4,Long
2023-04-27,9732.0,1168.0,10900.0,4,Long
2023-04-28,9732.0,2572.0,12304.0,5,Long
2023-04-30,9732.0,2552.0,12284.0,5,Long
2023-05-01,9732.0,2237.0,11969.0,5,Long
2023-05-02,9732.0,622.0,10354.0,5,Long
2023-05-03,9732.0,-868.0,8864.0,5,Long
2023-05-04,9732.0,-2108.0,7624.0,5,Long
2023-05-05,7629.0,0.0,7629.0,0,
2023-05-07,7629.0,0.0,7629.0,0,
2023-05-08,7629.0,0.0,7629.0,0,
2023-05-09,7629.0,0.0,7629.0,0,
2023-05-10,7629.0,0.0,7629.0,0,
2023-05-11,7629.0,0.0,7629.0,0,
2023-05-12,7629.0,0.0,7629.0,0,
2023-05-14,7629.0,0.0,7629.0,0,
2023-05-15,7629.0,0.0,7629.0,0,
2023-05-16,7629.0,0.0,7629.0,0,
2023-05-17,7629.0,0.0,7629.0,0,
2023-05-18,7629.0,0.0,7629.0,0,
2023-05-19,7629.0,0.0,7629.0,0,
2023-05-21,7629.0,0.0,7629.0,0,
2023-05-22,7629.0,0.0,7629.0,0,
2023-05-23,7629.0,0.0,7629.0,0,
2023-05-24,7629.0,0.0,7629.0,0,
2023-05-25,7629.0,0.0,7629.0,0,
2023-05-26,7629.0,0.0,7629.0,0,
2023-05-28,7629.0,0.0,7629.0,0,
2023-05-29,7629.0,0.0,7629.0,0,
2023-05-30,7629.0,0.0,7629.0,0,
2023-05-31,7629.0,0.0,7629.0,0,
2023-06-01,7629.0,0.0,7629.0,0,
2023-06-02,7629.0,0.0,7629.0,0,
2023-06-04,7629.0,45.0,7674.0,3,Long
2023-06-05,7629.0,-606.0,7023.0,3,Long
2023-06-06,7023.0,0.0,7023.0,0,
2023-06-07,7023.0,0.0,7023.0,0,
2023-06-08,7023.0,0.0,7023.0,0,
2023-06-09,7023.0,198.0,7221.0,3,Long
2023-06-11,7023.0,258.0,7281.0,3,Long
2023-06-12,7023.0,1758.0,8781.0,3,Long
2023-06-13,7023.0,1875.0,8898.0,3,Long
2023-06-14,7023.0,1329.0,8352.0,3,Long
2023-06-15,7023.0,2622.0,9645.0,3,Long
2023-06-16,7023.0,2313.0,9336.0,3,Long
2023-06-18,7023.0,2157.0,9180.0,3,Long
2023-06-19,7023.0,1962.0,8985.0,3,Long
2023-06-20,7023.0,1575.0,8598.0,3,Long
2023-06-21,7023.0,1209.0,8232.0,3,Long
2023-06-22,7023.0,738.0,7761.0,3,Long
2023-06-23,7023.0,378.0,7401.0,4,Long
2023-06-25,7023.0,706.0,7729.0,4,Long
2023-06-26,7023.0,622.0,7645.0,4,Long
2023-06-27,7023.0,1206.0,8229.0,4,Long
2023-06-28,7023.0,1018.0,8041.0,4,Long
2023-06-29,7023.0,1862.0,8885.0,4,Long
2023-06-30,7023.0,2950.0,9973.0,4,Long
2023-07-02,7023.0,3066.0,10089.0,4,Long
2023-07-03,7023.0,3074.0,10097.0,4,Long
2023-07-04,7023.0,2902.0,9925.0,4,Long
2023-07-05,7023.0,2110.0,9133.0,4,Long
2023-07-06,7023.0,1034.0,8057.0,4,Long
2023-07-07,7023.0,386.0,7409.0,5,Long
2023-07-09,7023.0,-9.0,7014.0,5,Long
2023-07-10,7023.0,1326.0,8349.0,5,Long
2023-07-11,7023.0,2766.0,9789.0,5,Long
2023-07-12,7023.0,3616.0,10639.0,5,Long
2023-07-13,7023.0,3231.0,10254.0,5,Long
2023-07-14,7023.0,3831.0,10854.0,5,Long
2023-07-16,7023.0,3816.0,10839.0,5,Long
2023-07-17,7023.0,4301.0,11324.0,5,Long
2023-07-18,7023.0,6326.0,13349.0,5,Long
2023-07-19,7023.0,6801.0,13824.0,5,Long
2023-07-20,7023.0,7781.0,14804.0,5,Long
2023-07-21,7023.0,7426.0,14449.0,6,Long
2023-07-23,7023.0,7408.0,14431.0,6,Long
2023-07-24,7023.0,8536.0,15559.0,6,Long
2023-07-25,7023.0,8566.0,15589.0,6,Long
2023-07-26,7023.0,9292.0,16315.0,6,Long
2023-07-27,7023.0,7798.0,14821.0,6,Long
2023-07-28,7023.0,8596.0,15619.0,6,Long
2023-07-30,7023.0,8296.0,15319.0,6,Long
2023-07-31,7023.0,9298.0,16321.0,6,Long
2023-08-01,7023.0,8980.0,16003.0,6,Long
2023-08-02,7023.0,7936.0,14959.0,6,Long
2023-08-03,7023.0,7360.0,14383.0,6,Long
2023-08-04,7023.0,6015.0,13038.0,7,Long
2023-08-06,7023.0,6778.0,13801.0,7,Long
2023-08-07,7023.0,8451.0,15474.0,7,Long
2023-08-08,7023.0,7674.0,14697.0,7,Long
2023-08-09,7023.0,7359.0,14382.0,7,Long
2023-08-10,7023.0,6771.0,13794.0,7,Long
2023-08-11,7023.0,7576.0,14599.0,7,Long
2023-08-13,7023.0,6953.0,13976.0,7,Long
2023-08-14,7023.0,7730.0,14753.0,7,Long
2023-08-15,7023.0,5119.0,12142.0,7,Long
2023-08-16,7023.0,4153.0,11176.0,7,Long
2023-08-17,11190.0,0.0,11190.0,0,
2023-08-18,11190.0,0.0,11190.0,0,
2023-08-20,11190.0,0.0,11190.0,0,
2023-08-21,11190.0,0.0,11190.0,0,
2023-08-22,11190.0,0.0,11190.0,0,
2023-08-23,11190.0,0.0,11190.0,0,
2023-08-24,11190.0,0.0,11190.0,0,
2023-08-25,11190.0,0.0,11190.0,0,
2023-08-27,11190.0,0.0,11190.0,0,
2023-08-28,11190.0,0.0,11190.0,0,
2023-08-29,11190.0,0.0,11190.0,0,
2023-08-30,11190.0,0.0,11190.0,0,
2023-08-31,11190.0,0.0,11190.0,0,
2023-09-01,11190.0,0.0,11190.0,0,
2023-09-03,11190.0,0.0,11190.0,0,
2023-09-04,11190.0,0.0,11190.0,0,
2023-09-05,11190.0,0.0,11190.0,0,
2023-09-06,11190.0,0.0,11190.0,0,
2023-09-07,11190.0,0.0,11190.0,0,
2023-09-08,11190.0,0.0,11190.0,0,
2023-09-10,11190.0,0.0,11190.0,0,
2023-09-11,11190.0,0.0,11190.0,0,
2023-09-12,11190.0,0.0,11190.0,0,
2023-09-13,11190.0,0.0,11190.0,0,
2023-09-14,11190.0,0.0,11190.0,0,
2023-09-15,11190.0,-1176.0,10014.0,3,Long
2023-09-17,10008.0,0.0,10008.0,0,
2023-09-18,10008.0,0.0,10008.0,0,
2023-09-19,10008.0,0.0,10008.0,0,
2023-09-20,10008.0,0.0,10008.0,0,
2023-09-21,10008.0,0.0,10008.0,0,
2023-09-22,10008.0,0.0,10008.0,0,
2023-09-24,10008.0,0.0,10008.0,0,
2023-09-25,10008.0,0.0,10008.0,0,
2023-09-26,10008.0,0.0,10008.0,0,
2023-09-27,10008.0,0.0,10008.0,0,
2023-09-28,10008.0,0.0,10008.0,0,
2023-09-29,10008.0,0.0,10008.0,0,
2023-10-01,10008.0,0.0,10008.0,0,
2023-10-02,10008.0,0.0,10008.0,0,
2023-10-03,10008.0,0.0,10008.0,0,
2023-10-04,10008.0,0.0,10008.0,0,
2023-10-05,10008.0,0.0,10008.0,0,
2023-10-06,10008.0,0.0,10008.0,0,
2023-10-08,10008.0,0.0,10008.0,0,
2023-10-09,10008.0,0.0,10008.0,0,
2023-10-10,10008.0,0.0,10008.0,0,
2023-10-11,10008.0,0.0,10008.0,0,
2023-10-12,10008.0,0.0,10008.0,0,
2023-10-13,10008.0,0.0,10008.0,0,
2023-10-15,10008.0,0.0,10008.0,0,
2023-10-16,10008.0,0.0,10008.0,0,
2023-10-17,10008.0,0.0,10008.0,0,
2023-10-18,10008.0,0.0,10008.0,0,
2023-10-19,10008.0,0.0,10008.0,0,
2023-10-20,10008.0,0.0,10008.0,0,
2023-10-22,10008.0,0.0,10008.0,0,
2023-10-23,10008.0,0.0,10008.0,0,
2023-10-24,10008.0,0.0,10008.0,0,
2023-10-25,10008.0,0.0,10008.0,0,
2023-10-26,10008.0,0.0,10008.0,0,
2023-10-27,10008.0,0.0,10008.0,0,
2023-10-29,10008.0,0.0,10008.0,0,
2023-10-30,10008.0,0.0,10008.0,0,
2023-10-31,10008.0,0.0,10008.0,0,
2023-11-01,10008.0,0.0,10008.0,0,
2023-11-02,10008.0,0.0,10008.0,0,
2023-11-03,10008.0,645.0,10653.0,3,Long
2023-11-05,10008.0,630.0,10638.0,3,Long
2023-11-06,10008.0,390.0,10398.0,3,Long
2023-11-07,10008.0,732.0,10740.0,3,Long
2023-11-08,10008.0,675.0,10683.0,3,Long
2023-11-09,10008.0,138.0,10146.0,3,Long
2023-11-10,10008.0,1050.0,11058.0,3,Long
2023-11-12,10008.0,792.0,10800.0,3,Long
2023-11-13,10008.0,1311.0,11319.0,3,Long
2023-11-14,10008.0,2973.0,12981.0,3,Long
2023-11-15,10008.0,3195.0,13203.0,3,Long
2023-11-16,10008.0,3327.0,13335.0,3,Long
2023-11-17,10008.0,3125.0,13133.0,4,Long
2023-11-19,10008.0,3173.0,13181.0,4,Long
2023-11-20,10008.0,4085.0,14093.0,4,Long
2023-11-21,10008.0,3881.0,13889.0,4,Long
2023-11-22,10008.0,4369.0,14377.0,4,Long
2023-11-23,10008.0,4521.0,14529.0,4,Long
2023-11-24,10008.0,4913.0,14921.0,4,Long
2023-11-26,10008.0,4573.0,14581.0,4,Long
2023-11-27,10008.0,4697.0,14705.0,4,Long
2023-11-28,10008.0,5173.0,15181.0,4,Long
2023-11-29,10008.0,5641.0,15649.0,4,Long
2023-11-30,10008.0,7301.0,17309.0,4,Long
2023-12-01,10008.0,8501.0,18509.0,5,Long
2023-12-03,10008.0,8396.0,18404.0,5,Long
2023-12-04,10008.0,7901.0,17909.0,5,Long
2023-12-05,10008.0,8161.0,18169.0,5,Long
2023-12-06,10008.0,7296.0,17304.0,5,Long
2023-12-07,10008.0,7786.0,17794.0,5,Long
2023-12-08,10008.0,8296.0,18304.0,5,Long
2023-12-10,10008.0,10066.0,20074.0,5,Long
2023-12-11,10008.0,10966.0,20974.0,5,Long
2023-12-12,10008.0,11921.0,21929.0,5,Long
2023-12-13,10008.0,14831.0,24839.0,5,Long
2023-12-14,10008.0,15331.0,25339.0,5,Long
2023-12-15,10008.0,15239.0,25247.0,6,Long
2023-12-17,10008.0,15677.0,25685.0,6,Long
2023-12-18,10008.0,15263.0,25271.0,6,Long
2023-12-19,10008.0,16847.0,26855.0,6,Long
2023-12-20,10008.0,14441.0,24449.0,6,Long
2023-12-21,10008.0,15029.0,25037.0,6,Long
2023-12-22,10008.0,15461.0,25469.0,6,Long
2023-12-25,10008.0,15935.0,25943.0,6,Long
2023-12-26,10008.0,16577.0,26585.0,6,Long
2023-12-27,10008.0,17303.0,27311.0,6,Long
2023-12-28,10008.0,17513.0,27521.0,6,Long
2023-12-29,10008.0,17025.0,27033.0,7,Long
2024-01-01,10008.0,17522.0,27530.0,7,Long
2024-01-02,10008.0,17074.0,27082.0,7,Long
2024-01-03,10008.0,15345.0,25353.0,7,Long
2024-01-04,10008.0,15436.0,25444.0,7,Long
2024-01-05,10008.0,15240.0,25248.0,7,Long
2024-01-07,10008.0,14393.0,24401.0,7,Long
2024-01-08,10008.0,16444.0,26452.0,7,Long
2024-01-09,10008.0,15282.0,25290.0,7,Long
2024-01-10,10008.0,17207.0,27215.0,7,Long
2024-01-11,10008.0,16507.0,26515.0,7,Long
2024-01-12,10008.0,15518.0,25526.0,8,Long
2024-01-14,10008.0,16030.0,26038.0,8,Long
2024-01-15,10008.0,14886.0,24894.0,8,Long
2024-01-16,10008.0,13430.0,23438.0,8,Long
2024-01-17,10008.0,12822.0,22830.0,8,Long
2024-01-18,10008.0,14486.0,24494.0,8,Long
2024-01-19,10008.0,17862.0,27870.0,8,Long
2024-01-21,10008.0,18302.0,28310.0,8,Long
2024-01-22,10008.0,18918.0,28926.0,8,Long
2024-01-23,10008.0,18302.0,28310.0,8,Long
2024-01-24,10008.0,17854.0,27862.0,8,Long
2024-01-25,10008.0,18054.0,28062.0,8,Long
2024-01-26,10008.0,19422.0,29430.0,9,Long
2024-01-28,10008.0,18981.0,28989.0,9,Long
2024-01-29,10008.0,21132.0,31140.0,9,Long
2024-01-30,10008.0,22905.0,32913.0,9,Long
2024-01-31,10008.0,20241.0,30249.0,9,Long
2024-02-01,10008.0,22887.0,32895.0,9,Long
2024-02-02,10008.0,23877.0,33885.0,9,Long
2024-02-04,10008.0,23319.0,33327.0,9,Long
2024-02-05,10008.0,21402.0,31410.0,9,Long
2024-02-06,10008.0,22833.0,32841.0,9,Long
2024-02-07,10008.0,24246.0,34254.0,9,Long
2024-02-08,10008.0,24318.0,34326.0,9,Long
2024-02-09,10008.0,23680.0,33688.0,10,Long
2024-02-11,10008.0,23890.0,33898.0,10,Long
2024-02-12,10008.0,24790.0,34798.0,10,Long
2024-02-13,10008.0,19670.0,29678.0,10,Long
2024-02-14,10008.0,21460.0,31468.0,10,Long
2024-02-15,10008.0,24480.0,34488.0,10,Long
2024-02-16,10008.0,23100.0,33108.0,10,Long
2024-02-18,10008.0,23700.0,33708.0,10,Long
2024-02-19,10008.0,22360.0,32368.0,10,Long
2024-02-20,10008.0,22530.0,32538.0,10,Long
2024-02-21,10008.0,23760.0,33768.0,10,Long
2024-02-22,10008.0,28220.0,38228.0,10,Long
2024-02-23,10008.0,28020.0,38028.0,10,Long
2024-02-25,10008.0,27910.0,37918.0,10,Long
2024-02-26,10008.0,27500.0,37508.0,10,Long
2024-02-27,10008.0,26380.0,36388.0,10,Long
2024-02-28,10008.0,26500.0,36508.0,10,Long
2024-02-29,10008.0,27150.0,37158.0,10,Long
2024-03-01,10008.0,27310.0,37318.0,10,Long
2024-03-03,10008.0,27350.0,37358.0,10,Long
2024-03-04,10008.0,26140.0,36148.0,10,Long
2024-03-05,10008.0,22560.0,32568.0,10,Long
2024-03-06,10008.0,23110.0,33118.0,10,Long
2024-03-07,10008.0,24600.0,34608.0,10,Long
2024-03-08,10008.0,24300.0,34308.0,10,Long
2024-03-10,10008.0,27840.0,37848.0,10,Long
2024-03-11,10008.0,29260.0,39268.0,10,Long
2024-03-12,10008.0,31010.0,41018.0,10,Long
2024-03-13,10008.0,31960.0,41968.0,10,Long
2024-03-14,10008.0,29920.0,39928.0,10,Long
2024-03-15,10008.0,27910.0,37918.0,10,Long
2024-03-17,10008.0,28170.0,38178.0,10,Long
2024-03-18,10008.0,28550.0,38558.0,10,Long
2024-03-19,10008.0,31750.0,41758.0,10,Long
2024-03-20,10008.0,37050.0,47058.0,10,Long
2024-03-21,10008.0,38720.0,48728.0,10,Long
2024-03-22,10008.0,34760.0,44768.0,10,Long
2024-03-24,10008.0,34580.0,44588.0,10,Long
2024-03-25,10008.0,33710.0,43718.0,10,Long
2024-03-26,10008.0,34400.0,44408.0,10,Long
2024-03-27,10008.0,37620.0,47628.0,10,Long
2024-03-28,10008.0,37920.0,47928.0,10,Long
2024-03-31,10008.0,39680.0,49688.0,10,Long
2024-04-01,10008.0,34160.0,44168.0,10,Long
2024-04-02,10008.0,31100.0,41108.0,10,Long
2024-04-03,10008.0,31870.0,41878.0,10,Long
2024-04-04,10008.0,25980.0,35988.0,10,Long
2024-04-05,35968.0,0.0,35968.0,0,
2024-04-07,35968.0,0.0,35968.0,0,
2024-04-08,35968.0,0.0,35968.0,0,
2024-04-09,35968.0,0.0,35968.0,0,
2024-04-10,35968.0,0.0,35968.0,0,
2024-04-11,35968.0,0.0,35968.0,0,
2024-04-12,35968.0,0.0,35968.0,0,
2024-04-14,35968.0,0.0,35968.0,0,
2024-04-15,35968.0,0.0,35968.0,0,
2024-04-16,35968.0,0.0,35968.0,0,
2024-04-17,35968.0,0.0,35968.0,0,
2024-04-18,35968.0,0.0,35968.0,0,
2024-04-19,35968.0,0.0,35968.0,0,
2024-04-21,35968.0,0.0,35968.0,0,
2024-04-22,35968.0,0.0,35968.0,0,
2024-04-23,35968.0,0.0,35968.0,0,
2024-04-24,35968.0,0.0,35968.0,0,
2024-04-25,35968.0,0.0,35968.0,0,
2024-04-26,35968.0,0.0,35968.0,0,
2024-04-28,35968.0,0.0,35968.0,0,
2024-04-29,35968.0,0.0,35968.0,0,
2024-04-30,35968.0,0.0,35968.0,0,
2024-05-01,35968.0,0.0,35968.0,0,
2024-05-02,35968.0,0.0,35968.0,0,
2024-05-03,35968.0,0.0,35968.0,0,
2024-05-05,35968.0,0.0,35968.0,0,
2024-05-06,35968.0,0.0,35968.0,0,
2024-05-07,35968.0,0.0,35968.0,0,
2024-05-08,35968.0,0.0,35968.0,0,
2024-05-09,35968.0,0.0,35968.0,0,
2024-05-10,35968.0,144.0,36112.0,3,Long
2024-05-12,35968.0,213.0,36181.0,3,Long
2024-05-13,35968.0,-54.0,35914.0,3,Long
2024-05-14,35908.0,0.0,35908.0,0,
2024-05-15,35908.0,1218.0,37126.0,3,Long
2024-05-16,35908.0,810.0,36718.0,3,Long
2024-05-17,35908.0,1251.0,37159.0,3,Long
2024-05-19,35908.0,1365.0,37273.0,3,Long
2024-05-20,35908.0,687.0,36595.0,3,Long
2024-05-21,35908.0,891.0,36799.0,3,Long
2024-05-22,35908.0,405.0,36313.0,3,Long
2024-05-23,35908.0,-1587.0,34321.0,3,Long
2024-05-24,34327.0,0.0,34327.0,0,
2024-05-26,34327.0,0.0,34327.0,0,
2024-05-27,34327.0,0.0,34327.0,0,
2024-05-28,34327.0,0.0,34327.0,0,
2024-05-29,34327.0,0.0,34327.0,0,
2024-05-30,34327.0,0.0,34327.0,0,
2024-05-31,34327.0,0.0,34327.0,0,
2024-06-02,34327.0,0.0,34327.0,0,
2024-06-03,34327.0,0.0,34327.0,0,
2024-06-04,34327.0,0.0,34327.0,0,
2024-06-05,34327.0,0.0,34327.0,0,
2024-06-06,34327.0,0.0,34327.0,0,
2024-06-07,34327.0,0.0,34327.0,0,
2024-06-09,34327.0,0.0,34327.0,0,
2024-06-10,34327.0,0.0,34327.0,0,
2024-06-11,34327.0,0.0,34327.0,0,
2024-06-12,34327.0,0.0,34327.0,0,
2024-06-13,34327.0,0.0,34327.0,0,
2024-06-14,34327.0,0.0,34327.0,0,
2024-06-16,34327.0,0.0,34327.0,0,
2024-06-17,34327.0,0.0,34327.0,0,
2024-06-18,34327.0,-27.0,34300.0,3,Long
2024-06-19,34306.0,0.0,34306.0,0,
2024-06-20,34306.0,0.0,34306.0,0,
2024-06-21,34306.0,18.0,34324.0,3,Long
2024-06-23,34306.0,-228.0,34078.0,3,Long
2024-06-24,34306.0,1011.0,35317.0,3,Long
2024-06-25,34306.0,-192.0,34114.0,3,Long
2024-06-26,34306.0,-477.0,33829.0,3,Long
2024-06-27,34306.0,-75.0,34231.0,3,Long
2024-06-28,34306.0,-153.0,34153.0,3,Long
2024-06-30,34306.0,-171.0,34135.0,3,Long
2024-07-01,34306.0,-390.0,33916.0,3,Long
2024-07-02,34306.0,189.0,34495.0,3,Long
2024-07-03,34306.0,162.0,34468.0,3,Long
2024-07-04,34306.0,306.0,34612.0,3,Long
2024-07-05,34306.0,204.0,34510.0,4,Long
2024-07-07,34306.0,116.0,34422.0,4,Long
2024-07-08,34306.0,480.0,34786.0,4,Long
2024-07-09,34306.0,-100.0,34206.0,4,Long
2024-07-10,34306.0,1736.0,36042.0,4,Long
2024-07-11,34306.0,2016.0,36322.0,4,Long
2024-07-12,34306.0,2884.0,37190.0,4,Long
2024-07-14,34306.0,3052.0,37358.0,4,Long
2024-07-15,34306.0,3856.0,38162.0,4,Long
2024-07-16,34306.0,6732.0,41038.0,4,Long
2024-07-17,34306.0,7956.0,42262.0,4,Long
2024-07-18,34306.0,5500.0,39806.0,4,Long
2024-07-19,34306.0,3782.0,38088.0,5,Long
2024-07-21,34306.0,3942.0,38248.0,5,Long
2024-07-22,34306.0,4292.0,38598.0,5,Long
2024-07-23,34306.0,3647.0,37953.0,5,Long
2024-07-24,34306.0,2007.0,36313.0,5,Long
2024-07-25,36318.0,0.0,36318.0,0,
2024-07-26,36318.0,0.0,36318.0,0,
2024-07-28,36318.0,0.0,36318.0,0,
2024-07-29,36318.0,0.0,36318.0,0,
2024-07-30,36318.0,0.0,36318.0,0,
2024-07-31,36318.0,0.0,36318.0,0,
2024-08-01,36318.0,0.0,36318.0,0,
2024-08-02,36318.0,0.0,36318.0,0,
2024-08-04,36318.0,0.0,36318.0,0,
2024-08-05,36318.0,0.0,36318.0,0,
2024-08-06,36318.0,0.0,36318.0,0,
2024-08-07,36318.0,0.0,36318.0,0,
2024-08-08,36318.0,0.0,36318.0,0,
2024-08-09,36318.0,0.0,36318.0,0,
2024-08-11,36318.0,0.0,36318.0,0,
2024-08-12,36318.0,0.0,36318.0,0,
2024-08-13,36318.0,0.0,36318.0,0,
2024-08-14,36318.0,0.0,36318.0,0,
2024-08-15,36318.0,0.0,36318.0,0,
2024-08-16,36318.0,174.0,36492.0,3,Long
2024-08-18,36318.0,195.0,36513.0,3,Long
2024-08-19,36318.0,768.0,37086.0,3,Long
2024-08-20,36318.0,774.0,37092.0,3,Long
2024-08-21,36318.0,672.0,36990.0,3,Long
2024-08-22,36318.0,459.0,36777.0,3,Long
2024-08-23,36318.0,1575.0,37893.0,3,Long
2024-08-25,36318.0,1470.0,37788.0,3,Long
2024-08-26,36318.0,1698.0,38016.0,3,Long
2024-08-27,36318.0,1827.0,38145.0,3,Long
2024-08-28,36318.0,1578.0,37896.0,3,Long
2024-08-29,36318.0,2103.0,38421.0,3,Long
2024-08-30,36318.0,2775.0,39093.0,4,Long
2024-09-01,36318.0,2699.0,39017.0,4,Long
2024-09-02,36318.0,2535.0,38853.0,4,Long
2024-09-03,36318.0,-225.0,36093.0,4,Long
2024-09-04,36318.0,283.0,36601.0,4,Long
2024-09-05,36318.0,-373.0,35945.0,4,Long
2024-09-06,36318.0,-2497.0,33821.0,4,Long
2024-09-08,33969.0,0.0,33969.0,0,
2024-09-09,33969.0,0.0,33969.0,0,
2024-09-10,33969.0,0.0,33969.0,0,
2024-09-11,33969.0,0.0,33969.0,0,
2024-09-12,33969.0,0.0,33969.0,0,
2024-09-13,33969.0,0.0,33969.0,0,
2024-09-15,33969.0,0.0,33969.0,0,
2024-09-16,33969.0,0.0,33969.0,0,
2024-09-17,33969.0,150.0,34119.0,3,Long
2024-09-18,33969.0,477.0,34446.0,3,Long
2024-09-19,33969.0,1233.0,35202.0,3,Long
2024-09-20,33969.0,1236.0,35205.0,3,Long
2024-09-22,33969.0,1449.0,35418.0,3,Long
2024-09-23,33969.0,1200.0,35169.0,3,Long
2024-09-24,33969.0,1452.0,35421.0,3,Long
2024-09-25,33969.0,1050.0,35019.0,3,Long
2024-09-26,33969.0,1536.0,35505.0,3,Long
2024-09-27,33969.0,1736.0,35705.0,4,Long
2024-09-29,33969.0,1948.0,35917.0,4,Long
2024-09-30,33969.0,1772.0,35741.0,4,Long
2024-10-01,33969.0,920.0,34889.0,4,Long
2024-10-02,33969.0,1092.0,35061.0,4,Long
2024-10-03,33969.0,492.0,34461.0,4,Long
2024-10-04,33969.0,1772.0,35741.0,4,Long
2024-10-06,33969.0,1788.0,35757.0,4,Long
2024-10-07,33969.0,100.0,34069.0,4,Long
2024-10-08,33969.0,580.0,34549.0,4,Long
2024-10-09,33969.0,2580.0,36549.0,4,Long
2024-10-10,33969.0,2276.0,36245.0,4,Long
2024-10-11,33969.0,3589.0,37558.0,5,Long
2024-10-13,33969.0,3789.0,37758.0,5,Long
2024-10-14,33969.0,5169.0,39138.0,5,Long
2024-10-15,33969.0,3144.0,37113.0,5,Long
2024-10-16,33969.0,4484.0,38453.0,5,Long
2024-10-17,33969.0,5469.0,39438.0,5,Long
2024-10-18,33969.0,5739.0,39708.0,5,Long
2024-10-20,33969.0,5799.0,39768.0,5,Long
2024-10-21,33969.0,3634.0,37603.0,5,Long
2024-10-22,33969.0,3244.0,37213.0,5,Long
2024-10-23,33969.0,1434.0,35403.0,5,Long
2024-10-24,33969.0,989.0,34958.0,5,Long
2024-10-25,33969.0,-496.0,33473.0,5,Long
2024-10-27,33828.0,0.0,33828.0,0,
2024-10-28,33828.0,0.0,33828.0,0,
2024-10-29,33828.0,0.0,33828.0,0,
2024-10-30,33828.0,0.0,33828.0,0,
2024-10-31,33828.0,0.0,33828.0,0,
2024-11-01,33828.0,0.0,33828.0,0,
2024-11-03,33828.0,0.0,33828.0,0,
2024-11-04,33828.0,0.0,33828.0,0,
2024-11-05,33828.0,0.0,33828.0,0,
2024-11-06,33828.0,0.0,33828.0,0,
2024-11-07,33828.0,-336.0,33492.0,3,Long
2024-11-08,33492.0,0.0,33492.0,0,
2024-11-10,33492.0,66.0,33558.0,3,Long
2024-11-11,33492.0,714.0,34206.0,3,Long
2024-11-12,33492.0,-408.0,33084.0,3,Long
2024-11-13,33492.0,-213.0,33279.0,3,Long
2024-11-14,33492.0,-1068.0,32424.0,3,Long
2024-11-15,32427.0,0.0,32427.0,0,
2024-11-17,32427.0,0.0,32427.0,0,
2024-11-18,32427.0,0.0,32427.0,0,
2024-11-19,32427.0,0.0,32427.0,0,
2024-11-20,32427.0,0.0,32427.0,0,
2024-11-21,32427.0,0.0,32427.0,0,
2024-11-22,32427.0,0.0,32427.0,0,
2024-11-24,32427.0,450.0,32877.0,3,Long
2024-11-25,32427.0,1014.0,33441.0,3,Long
2024-11-26,32427.0,1440.0,33867.0,3,Long
2024-11-27,32427.0,1161.0,33588.0,3,Long
2024-11-28,32427.0,1407.0,33834.0,3,Long
2024-11-29,32427.0,1677.0,34104.0,3,Long
2024-12-01,32427.0,1437.0,33864.0,3,Long
2024-12-02,32427.0,1203.0,33630.0,3,Long
2024-12-03,32427.0,1338.0,33765.0,3,Long
2024-12-04,32427.0,1773.0,34200.0,3,Long
2024-12-05,32427.0,987.0,33414.0,3,Long
2024-12-06,32427.0,567.0,32994.0,4,Long
2024-12-08,32427.0,483.0,32910.0,4,Long
2024-12-09,32427.0,-357.0,32070.0,4,Long
2024-12-10,32427.0,-909.0,31518.0,4,Long
2024-12-11,32427.0,-1669.0,30758.0,4,Long
2024-12-12,32427.0,-2265.0,30162.0,4,Long
2024-12-13,30166.0,0.0,30166.0,0,
2024-12-15,30166.0,0.0,30166.0,0,
2024-12-16,30166.0,0.0,30166.0,0,
2024-12-17,30166.0,0.0,30166.0,0,
2024-12-18,30166.0,0.0,30166.0,0,
2024-12-19,30166.0,0.0,30166.0,0,
2024-12-20,30166.0,0.0,30166.0,0,
2024-12-22,30166.0,0.0,30166.0,0,
2024-12-23,30166.0,0.0,30166.0,0,
2024-12-24,30166.0,0.0,30166.0,0,
2024-12-25,30166.0,0.0,30166.0,0,
2024-12-26,30166.0,0.0,30166.0,0,
2024-12-27,30166.0,0.0,30166.0,0,
2024-12-29,30166.0,0.0,30166.0,0,
2024-12-30,30166.0,0.0,30166.0,0,
2024-12-31,30166.0,0.0,30166.0,0,
2025-01-01,30166.0,0.0,30166.0,0,
2025-01-02,30166.0,0.0,30166.0,0,
2025-01-03,30166.0,0.0,30166.0,0,
2025-01-05,30166.0,0.0,30166.0,0,
2025-01-06,30166.0,0.0,30166.0,0,
2025-01-07,30166.0,0.0,30166.0,0,
2025-01-08,30166.0,0.0,30166.0,0,
2025-01-09,30166.0,0.0,30166.0,0,
2025-01-10,30166.0,0.0,30166.0,0,
2025-01-12,30166.0,0.0,30166.0,0,
2025-01-13,30166.0,0.0,30166.0,0,
2025-01-14,30166.0,0.0,30166.0,0,
2025-01-15,30166.0,0.0,30166.0,0,
2025-01-16,30166.0,-213.0,29953.0,3,Long
2025-01-17,29968.0,0.0,29968.0,0,
2025-01-19,29968.0,78.0,30046.0,3,Long
2025-01-20,29968.0,405.0,30373.0,3,Long
2025-01-21,29968.0,1746.0,31714.0,3,Long
2025-01-22,29968.0,1977.0,31945.0,3,Long
2025-01-23,29968.0,3123.0,33091.0,3,Long
2025-01-24,29968.0,2718.0,32686.0,3,Long
2025-01-26,29968.0,2241.0,32209.0,3,Long
2025-01-27,29968.0,3441.0,33409.0,3,Long
2025-01-28,29968.0,4023.0,33991.0,3,Long
2025-01-29,29968.0,3894.0,33862.0,3,Long
2025-01-30,29968.0,4236.0,34204.0,3,Long
2025-01-31,29968.0,2991.0,32959.0,4,Long
2025-02-02,29968.0,271.0,30239.0,4,Long
2025-02-03,29968.0,2559.0,32527.0,4,Long
2025-02-04,29968.0,2571.0,32539.0,4,Long
2025-02-05,29968.0,4547.0,34515.0,4,Long
2025-02-06,29968.0,3515.0,33483.0,4,Long
2025-02-07,29968.0,1867.0,31835.0,4,Long
2025-02-09,29968.0,2151.0,32119.0,4,Long
2025-02-10,29968.0,2239.0,32207.0,4,Long
2025-02-11,29968.0,2927.0,32895.0,4,Long
2025-02-12,29968.0,2367.0,32335.0,4,Long
2025-02-13,29968.0,3651.0,33619.0,4,Long
2025-02-14,29968.0,2785.0,32753.0,5,Long
2025-02-16,29968.0,2980.0,32948.0,5,Long
2025-02-17,29968.0,3005.0,32973.0,5,Long
2025-02-18,29968.0,3020.0,32988.0,5,Long
2025-02-19,29968.0,2665.0,32633.0,5,Long
2025-02-20,29968.0,905.0,30873.0,5,Long
2025-02-21,29968.0,-2985.0,26983.0,5,Long
2025-02-23,27233.0,0.0,27233.0,0,
2025-02-24,27233.0,0.0,27233.0,0,
2025-02-25,27233.0,0.0,27233.0,0,
2025-02-26,27233.0,0.0,27233.0,0,
2025-02-27,27233.0,0.0,27233.0,0,
2025-02-28,27233.0,0.0,27233.0,0,
2025-03-02,27233.0,0.0,27233.0,0,
2025-03-03,27233.0,0.0,27233.0,0,
2025-03-04,27233.0,0.0,27233.0,0,
2025-03-05,27233.0,0.0,27233.0,0,
2025-03-06,27233.0,0.0,27233.0,0,
2025-03-07,27233.0,0.0,27233.0,0,
2025-03-09,27233.0,0.0,27233.0,0,
2025-03-10,27233.0,0.0,27233.0,0,
2025-03-11,27233.0,0.0,27233.0,0,
2025-03-12,27233.0,0.0,27233.0,0,
2025-03-13,27233.0,0.0,27233.0,0,
2025-03-14,27233.0,0.0,27233.0,0,
2025-03-16,27233.0,0.0,27233.0,0,
2025-03-17,27233.0,0.0,27233.0,0,
2025-03-18,27233.0,0.0,27233.0,0,
2025-03-19,27233.0,0.0,27233.0,0,
2025-03-20,27233.0,0.0,27233.0,0,
2025-03-21,27233.0,0.0,27233.0,0,
2025-03-23,27233.0,0.0,27233.0,0,
2025-03-24,27233.0,0.0,27233.0,0,
2025-03-25,27233.0,0.0,27233.0,0,
2025-03-26,27233.0,0.0,27233.0,0,
2025-03-27,27233.0,0.0,27233.0,0,
2025-03-28,27233.0,0.0,27233.0,0,
2025-03-30,27233.0,0.0,27233.0,0,
2025-03-31,27233.0,0.0,27233.0,0,
2025-04-01,27233.0,0.0,27233.0,0,
2025-04-02,27233.0,0.0,27233.0,0,
2025-04-03,27233.0,0.0,27233.0,0,
2025-04-04,27233.0,0.0,27233.0,0,
2025-04-06,27233.0,0.0,27233.0,0,
2025-04-07,27233.0,0.0,27233.0,0,
2025-04-08,27233.0,0.0,27233.0,0,
2025-04-09,27233.0,0.0,27233.0,0,
2025-04-10,27233.0,-3138.0,24095.0,3,Long
2025-04-11,24104.0,0.0,24104.0,0,
2025-04-13,24104.0,0.0,24104.0,0,
2025-04-14,24104.0,0.0,24104.0,0,
2025-04-15,24104.0,0.0,24104.0,0,
2025-04-16,24104.0,0.0,24104.0,0,
2025-04-17,24104.0,0.0,24104.0,0,
2025-04-20,24104.0,0.0,24104.0,0,
2025-04-21,24104.0,0.0,24104.0,0,
2025-04-22,24104.0,0.0,24104.0,0,
2025-04-23,24104.0,0.0,24104.0,0,
2025-04-24,24104.0,0.0,24104.0,0,
2025-04-25,24104.0,0.0,24104.0,0,
2025-04-27,24104.0,0.0,24104.0,0,
2025-04-28,24104.0,0.0,24104.0,0,
2025-04-29,24104.0,0.0,24104.0,0,
2025-04-30,24104.0,0.0,24104.0,0,
2025-05-01,24104.0,588.0,24692.0,3,Long
2025-05-02,24104.0,1290.0,25394.0,3,Long
2025-05-04,24104.0,447.0,24551.0,3,Long
2025-05-05,24104.0,861.0,24965.0,3,Long
2025-05-06,24104.0,402.0,24506.0,3,Long
2025-05-07,24104.0,1302.0,25406.0,3,Long
2025-05-08,24104.0,1407.0,25511.0,3,Long
2025-05-09,24104.0,1127.0,25231.0,4,Long
2025-05-11,24104.0,2787.0,26891.0,4,Long
2025-05-12,24104.0,5163.0,29267.0,4,Long
2025-05-13,24104.0,4587.0,28691.0,4,Long
2025-05-14,24104.0,3463.0,27567.0,4,Long
2025-05-15,24104.0,5211.0,29315.0,4,Long
2025-05-16,24104.0,5811.0,29915.0,4,Long
2025-05-18,24104.0,5263.0,29367.0,4,Long
2025-05-19,24104.0,6963.0,31067.0,4,Long
2025-05-20,24104.0,6263.0,30367.0,4,Long
2025-05-21,24104.0,3423.0,27527.0,4,Long
2025-05-22,24104.0,3475.0,27579.0,4,Long
2025-05-23,24104.0,2268.0,26372.0,5,Long
2025-05-25,24104.0,4123.0,28227.0,5,Long
2025-05-26,24104.0,3903.0,28007.0,5,Long
2025-05-27,24104.0,5843.0,29947.0,5,Long
2025-05-28,24104.0,7413.0,31517.0,5,Long
2025-05-29,24104.0,5003.0,29107.0,5,Long
2025-05-30,24104.0,5288.0,29392.0,5,Long
2025-06-01,24104.0,4608.0,28712.0,5,Long
2025-06-02,24104.0,5023.0,29127.0,5,Long
2025-06-03,24104.0,6753.0,30857.0,5,Long
2025-06-04,24104.0,6303.0,30407.0,5,Long
2025-06-05,24104.0,6353.0,30457.0,5,Long
2025-06-06,24104.0,8082.0,32186.0,6,Long
2025-06-08,24104.0,7554.0,31658.0,6,Long
2025-06-09,24104.0,8616.0,32720.0,6,Long
2025-06-10,24104.0,7974.0,32078.0,6,Long
2025-06-11,24104.0,7632.0,31736.0,6,Long
2025-06-12,24104.0,5568.0,29672.0,6,Long
2025-06-13,24104.0,4152.0,28256.0,6,Long
2025-06-15,24104.0,6372.0,30476.0,6,Long
2025-06-16,24104.0,7464.0,31568.0,6,Long
2025-06-17,24104.0,6438.0,30542.0,6,Long
2025-06-18,24104.0,5850.0,29954.0,6,Long
2025-06-19,24104.0,5472.0,29576.0,6,Long
2025-06-20,24104.0,6608.0,30712.0,7,Long
2025-06-22,24104.0,5299.0,29403.0,7,Long
2025-06-23,24104.0,10472.0,34576.0,7,Long
2025-06-24,24104.0,12551.0,36655.0,7,Long
2025-06-25,24104.0,11991.0,36095.0,7,Long
2025-06-26,24104.0,15183.0,39287.0,7,Long
2025-06-27,24104.0,18333.0,42437.0,7,Long
2025-06-29,24104.0,19201.0,43305.0,7,Long
2025-06-30,24104.0,19075.0,43179.0,7,Long
2025-07-01,24104.0,22687.0,46791.0,7,Long
2025-07-02,24104.0,22232.0,46336.0,7,Long
2025-07-03,24104.0,23520.0,47624.0,7,Long
2025-07-04,24104.0,22491.0,46595.0,8,Long
2025-07-06,24104.0,23563.0,47667.0,8,Long
2025-07-07,24104.0,20803.0,44907.0,8,Long
2025-07-08,24104.0,19483.0,43587.0,8,Long
2025-07-09,24104.0,20659.0,44763.0,8,Long
2025-07-10,24104.0,21931.0,46035.0,8,Long
2025-07-11,24104.0,20235.0,44339.0,8,Long
2025-07-13,24104.0,19003.0,43107.0,8,Long
2025-07-14,24104.0,21027.0,45131.0,8,Long
2025-07-15,24104.0,17123.0,41227.0,8,Long
2025-07-16,24104.0,18851.0,42955.0,8,Long
2025-07-17,24104.0,22139.0,46243.0,8,Long
2025-07-18,24104.0,20053.0,44157.0,9,Long
2025-07-20,24104.0,20377.0,44481.0,9,Long
2025-07-21,24104.0,20548.0,44652.0,9,Long
2025-07-22,24104.0,22636.0,46740.0,9,Long
2025-07-23,24104.0,24976.0,49080.0,9,Long
2025-07-24,24104.0,24481.0,48585.0,9,Long
2025-07-25,24104.0,24994.0,49098.0,9,Long
2025-07-27,24104.0,26551.0,50655.0,9,Long
2025-07-28,24104.0,24688.0,48792.0,9,Long
2025-07-29,24104.0,22861.0,46965.0,9,Long
2025-07-30,24104.0,22015.0,46119.0,9,Long
2025-07-31,24104.0,17416.0,41520.0,9,Long
2025-08-01,24104.0,12637.0,36741.0,9,Long
2025-08-03,36588.0,0.0,36588.0,0,
2025-08-04,36588.0,0.0,36588.0,0,
2025-08-05,36588.0,0.0,36588.0,0,
2025-08-06,36588.0,0.0,36588.0,0,
2025-08-07,36588.0,0.0,36588.0,0,
2025-08-08,36588.0,0.0,36588.0,0,
2025-08-10,36588.0,0.0,36588.0,0,
2025-08-11,36588.0,0.0,36588.0,0,
2025-08-12,36588.0,0.0,36588.0,0,
2025-08-13,36588.0,0.0,36588.0,0,
2025-08-14,36588.0,0.0,36588.0,0,
2025-08-15,36588.0,-825.0,35763.0,3,Long
2025-08-17,35781.0,0.0,35781.0,0,
2025-08-18,35781.0,0.0,35781.0,0,
2025-08-19,35781.0,0.0,35781.0,0,
2025-08-20,35781.0,0.0,35781.0,0,
2025-08-21,35781.0,0.0,35781.0,0,
2025-08-22,35781.0,0.0,35781.0,0,
2025-08-24,35781.0,-183.0,35598.0,3,Long
2025-08-25,35781.0,-1296.0,34485.0,3,Long
2025-08-26,35781.0,-582.0,35199.0,3,Long
2025-08-27,35781.0,0.0,35781.0,3,Long
2025-08-28,35781.0,-258.0,35523.0,3,Long
2025-08-29,35781.0,-282.0,35499.0,3,Long
2025-08-31,35781.0,-375.0,35406.0,3,Long
2025-09-01,35781.0,-402.0,35379.0,3,Long
2025-09-02,35781.0,-1545.0,34236.0,3,Long
2025-09-03,34230.0,0.0,34230.0,0,
2025-09-04,34230.0,0.0,34230.0,0,
2025-09-05,34230.0,-708.0,33522.0,3,Long
2025-09-07,34230.0,-585.0,33645.0,3,Long
2025-09-08,34230.0,-231.0,33999.0,3,Long
2025-09-09,34230.0,30.0,34260.0,3,Long
2025-09-10,34230.0,-387.0,33843.0,3,Long
2025-09-11,34230.0,1347.0,35577.0,3,Long
2025-09-12,34230.0,465.0,34695.0,3,Long
2025-09-14,34230.0,1542.0,35772.0,3,Long
2025-09-15,34230.0,1755.0,35985.0,3,Long
2025-09-16,34230.0,1164.0,35394.0,3,Long
2025-09-17,34230.0,2403.0,36633.0,3,Long
2025-09-18,34230.0,2586.0,36816.0,3,Long
2025-09-19,34230.0,2648.0,36878.0,4,Long
2025-09-21,34230.0,2616.0,36846.0,4,Long
2025-09-22,34230.0,3104.0,37334.0,4,Long
2025-09-23,34230.0,2944.0,37174.0,4,Long
2025-09-24,34230.0,2340.0,36570.0,4,Long
2025-09-25,34230.0,1312.0,35542.0,4,Long
2025-09-26,34230.0,2444.0,36674.0,4,Long
2025-09-28,34230.0,2900.0,37130.0,4,Long
2025-09-29,34230.0,2624.0,36854.0,4,Long
2025-09-30,34230.0,2204.0,36434.0,4,Long
2025-10-01,34230.0,3060.0,37290.0,4,Long
2025-10-02,34230.0,3756.0,37986.0,4,Long
2025-10-03,34230.0,4324.0,38554.0,5,Long
2025-10-05,34230.0,4764.0,38994.0,5,Long
2025-10-06,34230.0,3449.0,37679.0,5,Long
2025-10-07,34230.0,3654.0,37884.0,5,Long
2025-10-08,34230.0,3194.0,37424.0,5,Long
2025-10-09,34230.0,2339.0,36569.0,5,Long
2025-10-10,34230.0,-3476.0,30754.0,5,Long
2025-10-12,32224.0,0.0,32224.0,0,
2025-10-13,32224.0,0.0,32224.0,0,
2025-10-14,32224.0,0.0,32224.0,0,
2025-10-15,32224.0,0.0,32224.0,0,
2025-10-16,32224.0,0.0,32224.0,0,
2025-10-17,32224.0,0.0,32224.0,0,
2025-10-19,32224.0,0.0,32224.0,0,
2025-10-20,32224.0,0.0,32224.0,0,
2025-10-21,32224.0,0.0,32224.0,0,
2025-10-22,32224.0,0.0,32224.0,0,
2025-10-23,32224.0,0.0,32224.0,0,
2025-10-24,32224.0,0.0,32224.0,0,
2025-10-26,32224.0,-33.0,32191.0,3,Long
2025-10-27,32194.0,0.0,32194.0,0,
2025-10-28,32194.0,390.0,32584.0,3,Long
2025-10-29,32194.0,498.0,32692.0,3,Long
2025-10-30,32194.0,-36.0,32158.0,3,Long
2025-10-31,32194.0,48.0,32242.0,3,Long
2025-11-02,32194.0,177.0,32371.0,3,Long
2025-11-03,32194.0,-1227.0,30967.0,3,Long
2025-11-04,30976.0,0.0,30976.0,0,
2025-11-05,30976.0,0.0,30976.0,0,
2025-11-06,30976.0,0.0,30976.0,0,
2025-11-07,30976.0,0.0,30976.0,0,
2025-11-09,30976.0,0.0,30976.0,0,
2025-11-10,30976.0,0.0,30976.0,0,
2025-11-11,30976.0,0.0,30976.0,0,
2025-11-12,30976.0,1227.0,32203.0,3,Long
2025-11-13,30976.0,-1554.0,29422.0,3,Long
2025-11-14,29431.0,0.0,29431.0,0,
2025-11-16,29431.0,0.0,29431.0,0,
2025-11-17,29431.0,0.0,29431.0,0,
2025-11-18,29431.0,0.0,29431.0,0,
2025-11-19,29431.0,0.0,29431.0,0,
2025-11-20,29431.0,0.0,29431.0,0,
2025-11-21,29431.0,0.0,29431.0,0,
2025-11-23,29431.0,0.0,29431.0,0,
2025-11-24,29431.0,0.0,29431.0,0,
2025-11-25,29431.0,0.0,29431.0,0,
2025-11-26,29431.0,0.0,29431.0,0,
2025-11-27,29431.0,0.0,29431.0,0,
2025-11-28,29431.0,0.0,29431.0,0,
2025-11-30,29431.0,0.0,29431.0,0,
2025-12-01,29431.0,0.0,29431.0,0,
2025-12-02,29431.0,0.0,29431.0,0,
2025-12-03,29431.0,0.0,29431.0,0,
2025-12-04,29431.0,-237.0,29194.0,3,Long
2025-12-05,29197.0,0.0,29197.0,0,
2025-12-07,29197.0,0.0,29197.0,0,
2025-12-08,29197.0,0.0,29197.0,0,
2025-12-09,29197.0,0.0,29197.0,0,
2025-12-10,29197.0,0.0,29197.0,0,
2025-12-11,29197.0,0.0,29197.0,0,
2025-12-12,29197.0,-984.0,28213.0,3,Long
2025-12-14,29197.0,534.0,29731.0,3,Long
2025-12-15,29197.0,-363.0,28834.0,3,Long
2025-12-16,29197.0,-1284.0,27913.0,3,Long
2025-12-17,29197.0,-1896.0,27301.0,3,Long
2025-12-18,29197.0,-1839.0,27358.0,3,Long
2025-12-19,29197.0,-1068.0,28129.0,3,Long
2025-12-21,29197.0,-1038.0,28159.0,3,Long
2025-12-22,29197.0,-609.0,28588.0,3,Long
2025-12-23,29197.0,-369.0,28828.0,3,Long
2025-12-24,29197.0,522.0,29719.0,3,Long
2025-12-25,29197.0,567.0,29764.0,3,Long
2025-12-26,29197.0,499.0,29696.0,4,Long
2025-12-28,29197.0,459.0,29656.0,4,Long
2025-12-29,29197.0,-501.0,28696.0,4,Long
2025-12-30,29197.0,-1009.0,28188.0,4,Long
2025-12-31,29197.0,-2149.0,27048.0,4,Long
2026-01-01,29197.0,-1721.0,27476.0,4,Long
2026-01-02,29197.0,-1129.0,28068.0,4,Long
2026-01-04,29197.0,-997.0,28200.0,4,Long
2026-01-05,29197.0,1459.0,30656.0,4,Long
2026-01-06,29197.0,3663.0,32860.0,4,Long
2026-01-07,29197.0,1099.0,30296.0,4,Long
2026-01-08,29197.0,2475.0,31672.0,4,Long
2026-01-09,29197.0,3406.0,32603.0,5,Long
2026-01-11,29197.0,2131.0,31328.0,5,Long
2026-01-12,29197.0,3736.0,32933.0,5,Long
2026-01-13,29197.0,1121.0,30318.0,5,Long
2026-01-14,29197.0,1251.0,30448.0,5,Long
2026-01-15,29197.0,3471.0,32668.0,5,Long
2026-01-16,29197.0,2516.0,31713.0,5,Long
2026-01-18,29197.0,621.0,29818.0,5,Long
2026-01-19,29197.0,141.0,29338.0,5,Long
2026-01-20,29197.0,-1439.0,27758.0,5,Long
2026-01-21,29197.0,1521.0,30718.0,5,Long
2026-01-22,29197.0,2721.0,31918.0,5,Long
2026-01-23,29197.0,539.0,29736.0,6,Long
2026-01-25,29197.0,275.0,29472.0,6,Long
2026-01-26,29197.0,2567.0,31764.0,6,Long
2026-01-27,29197.0,335.0,29532.0,6,Long
2026-01-28,29197.0,209.0,29406.0,6,Long
2026-01-29,29197.0,-667.0,28530.0,6,Long
2026-01-30,29197.0,-649.0,28548.0,6,Long
2026-02-01,29197.0,-2641.0,26556.0,6,Long
2026-02-02,29197.0,2867.0,32064.0,6,Long
2026-02-03,29197.0,1877.0,31074.0,6,Long
2026-02-04,29197.0,2657.0,31854.0,6,Long
2026-02-05,29197.0,-1291.0,27906.0,6,Long
2026-02-06,29197.0,6680.0,35877.0,7,Long
2026-02-08,29197.0,7240.0,36437.0,7,Long
2026-02-09,29197.0,6925.0,36122.0,7,Long
2026-02-10,29197.0,8017.0,37214.0,7,Long
2026-02-11,29197.0,7723.0,36920.0,7,Long
2026-02-12,29197.0,1752.0,30949.0,7,Long
2026-02-13,29197.0,1941.0,31138.0,7,Long
2026-02-15,29197.0,2753.0,31950.0,7,Long
2026-02-16,29197.0,1255.0,30452.0,7,Long
2026-02-17,29197.0,2809.0,32006.0,7,Long
2026-02-18,29197.0,3159.0,32356.0,7,Long
2026-02-19,29197.0,1899.0,31096.0,7,Long
2026-02-20,29197.0,3069.0,32266.0,8,Long
2026-02-22,29197.0,485.0,29682.0,8,Long
2026-02-23,29197.0,-2891.0,26306.0,8,Long
2026-02-24,29197.0,-515.0,28682.0,8,Long
2026-02-25,29197.0,1189.0,30386.0,8,Long
2026-02-26,29197.0,-27.0,29170.0,8,Long
2026-02-27,29197.0,-3115.0,26082.0,8,Long
2026-03-01,29197.0,-5747.0,23450.0,8,Long
2026-03-02,23450.0,0.0,23450.0,0,
2026-03-03,23450.0,0.0,23450.0,0,
2026-03-04,23450.0,0.0,23450.0,0,
2026-03-05,23450.0,0.0,23450.0,0,
2026-03-06,23450.0,0.0,23450.0,0,
2026-03-08,23450.0,0.0,23450.0,0,
