date,year,bump_level,max_contracts,daily_equity_delta_usd,equity_usd,drawdown_usd,open_units
2019-05-05,2019,0,10,0.0,27669.0,0.0,0
2019-05-06,2019,0,10,0.0,27669.0,0.0,0
2019-05-07,2019,0,10,0.0,27669.0,0.0,0
2019-05-08,2019,0,10,0.0,27669.0,0.0,0
2019-05-09,2019,0,10,0.0,27669.0,0.0,0
2019-05-10,2019,0,10,0.0,27669.0,0.0,0
2019-05-12,2019,0,10,0.0,27669.0,0.0,0
2019-05-13,2019,0,10,0.0,27669.0,0.0,0
2019-05-14,2019,0,10,0.0,27669.0,0.0,0
2019-05-15,2019,0,10,0.0,27669.0,0.0,0
2019-05-16,2019,0,10,0.0,27669.0,0.0,0
2019-05-17,2019,0,10,0.0,27669.0,0.0,0
2019-05-19,2019,0,10,0.0,27669.0,0.0,0
2019-05-20,2019,0,10,0.0,27669.0,0.0,0
2019-05-21,2019,0,10,0.0,27669.0,0.0,0
2019-05-22,2019,0,10,0.0,27669.0,0.0,0
2019-05-23,2019,0,10,0.0,27669.0,0.0,0
2019-05-24,2019,0,10,0.0,27669.0,0.0,0
2019-05-26,2019,0,10,0.0,27669.0,0.0,0
2019-05-27,2019,0,10,0.0,27669.0,0.0,0
2019-05-28,2019,0,10,0.0,27669.0,0.0,0
2019-05-29,2019,0,10,0.0,27669.0,0.0,0
2019-05-30,2019,0,10,0.0,27669.0,0.0,0
2019-05-31,2019,0,10,0.0,27669.0,0.0,0
2019-06-02,2019,0,10,0.0,27669.0,0.0,0
2019-06-03,2019,0,10,0.0,27669.0,0.0,0
2019-06-04,2019,0,10,0.0,27669.0,0.0,0
2019-06-05,2019,0,10,0.0,27669.0,0.0,0
2019-06-06,2019,0,10,319.5,27988.5,0.0,3
2019-06-07,2019,0,10,382.5,28371.0,0.0,3
2019-06-09,2019,0,10,55.5,28426.5,0.0,3
2019-06-10,2019,0,10,91.5,28518.0,0.0,3
2019-06-11,2019,0,10,-118.5,28399.5,-118.5,3
2019-06-12,2019,0,10,-123.0,28276.5,-241.5,3
2019-06-13,2019,0,10,276.0,28552.5,0.0,3
2019-06-14,2019,0,10,-34.0,28518.5,-34.0,4
2019-06-16,2019,0,10,126.0,28644.5,0.0,4
2019-06-17,2019,0,10,-126.0,28518.5,-126.0,4
2019-06-18,2019,0,10,772.0,29290.5,0.0,4
2019-06-19,2019,0,10,196.0,29486.5,0.0,4
2019-06-20,2019,0,10,196.0,29682.5,0.0,4
2019-06-21,2019,0,10,-72.0,29610.5,-72.0,4
2019-06-23,2019,0,10,180.0,29790.5,0.0,4
2019-06-24,2019,0,10,-122.0,29668.5,-122.0,4
2019-06-25,2019,0,10,-292.0,29376.5,-414.0,4
2019-06-26,2019,0,10,94.0,29470.5,-320.0,4
2019-06-27,2019,0,10,-54.0,29416.5,-374.0,4
2019-06-28,2019,0,10,184.5,29601.0,-189.5,5
2019-06-30,2019,0,10,387.5,29988.5,0.0,5
2019-07-01,2019,0,10,-200.0,29788.5,-200.0,5
2019-07-02,2019,0,10,95.0,29883.5,-105.0,5
2019-07-03,2019,0,10,477.5,30361.0,0.0,5
2019-07-04,2019,0,10,87.5,30448.5,0.0,5
2019-07-05,2019,0,10,-222.5,30226.0,-222.5,5
2019-07-07,2019,0,10,-180.0,30046.0,-402.5,5
2019-07-08,2019,0,10,-350.0,29696.0,-752.5,5
2019-07-09,2019,0,10,205.0,29901.0,-547.5,5
2019-07-10,2019,0,10,362.5,30263.5,-185.0,5
2019-07-11,2019,0,10,615.0,30878.5,0.0,5
2019-07-12,2019,0,10,381.0,31259.5,0.0,6
2019-07-14,2019,0,10,75.0,31334.5,0.0,6
2019-07-15,2019,0,10,51.0,31385.5,0.0,6
2019-07-16,2019,0,10,-54.0,31331.5,-54.0,6
2019-07-17,2019,0,10,-555.0,30776.5,-609.0,6
2019-07-18,2019,0,10,474.0,31250.5,-135.0,6
2019-07-19,2019,0,10,-693.0,30557.5,-828.0,6
2019-07-21,2019,0,10,165.0,30722.5,-663.0,6
2019-07-22,2019,0,10,228.0,30950.5,-435.0,6
2019-07-23,2019,0,10,381.0,31331.5,-54.0,6
2019-07-24,2019,0,10,-168.0,31163.5,-222.0,6
2019-07-25,2019,0,10,-402.0,30761.5,-624.0,6
2019-07-26,2019,0,10,-32.5,30729.0,-656.5,7
2019-07-28,2019,0,10,-63.0,30666.0,-719.5,7
2019-07-29,2019,0,10,374.5,31040.5,-345.0,7
2019-07-30,2019,0,10,24.5,31065.0,-320.5,7
2019-07-31,2019,0,10,-1253.0,29812.0,-1573.5,7
2019-08-01,2019,0,10,-7.0,29805.0,-1580.5,0
2019-08-02,2019,0,10,0.0,29805.0,-1580.5,0
2019-08-04,2019,0,10,0.0,29805.0,-1580.5,0
2019-08-05,2019,0,10,0.0,29805.0,-1580.5,0
2019-08-06,2019,0,10,0.0,29805.0,-1580.5,0
2019-08-07,2019,0,10,0.0,29805.0,-1580.5,0
2019-08-08,2019,0,10,0.0,29805.0,-1580.5,0
2019-08-09,2019,0,10,0.0,29805.0,-1580.5,0
2019-08-11,2019,0,10,0.0,29805.0,-1580.5,0
2019-08-12,2019,0,10,0.0,29805.0,-1580.5,0
2019-08-13,2019,0,10,0.0,29805.0,-1580.5,0
2019-08-14,2019,0,10,0.0,29805.0,-1580.5,0
2019-08-15,2019,0,10,0.0,29805.0,-1580.5,0
2019-08-16,2019,0,10,0.0,29805.0,-1580.5,0
2019-08-18,2019,0,10,0.0,29805.0,-1580.5,0
2019-08-19,2019,0,10,0.0,29805.0,-1580.5,0
2019-08-20,2019,0,10,0.0,29805.0,-1580.5,0
2019-08-21,2019,0,10,0.0,29805.0,-1580.5,0
2019-08-22,2019,0,10,0.0,29805.0,-1580.5,0
2019-08-23,2019,0,10,0.0,29805.0,-1580.5,0
2019-08-25,2019,0,10,0.0,29805.0,-1580.5,0
2019-08-26,2019,0,10,0.0,29805.0,-1580.5,0
2019-08-27,2019,0,10,0.0,29805.0,-1580.5,0
2019-08-28,2019,0,10,0.0,29805.0,-1580.5,0
2019-08-29,2019,0,10,0.0,29805.0,-1580.5,0
2019-08-30,2019,0,10,0.0,29805.0,-1580.5,0
2019-09-01,2019,0,10,0.0,29805.0,-1580.5,0
2019-09-02,2019,0,10,0.0,29805.0,-1580.5,0
2019-09-03,2019,0,10,0.0,29805.0,-1580.5,0
2019-09-04,2019,0,10,0.0,29805.0,-1580.5,0
2019-09-05,2019,0,10,195.0,30000.0,-1385.5,3
2019-09-06,2019,0,10,102.0,30102.0,-1283.5,3
2019-09-08,2019,0,10,13.5,30115.5,-1270.0,3
2019-09-09,2019,0,10,-33.0,30082.5,-1303.0,3
2019-09-10,2019,0,10,111.0,30193.5,-1192.0,3
2019-09-11,2019,0,10,574.5,30768.0,-617.5,3
2019-09-12,2019,0,10,-78.0,30690.0,-695.5,3
2019-09-13,2019,0,10,-21.0,30669.0,-716.5,4
2019-09-15,2019,0,10,-270.0,30399.0,-986.5,4
2019-09-16,2019,0,10,-48.0,30351.0,-1034.5,4
2019-09-17,2019,0,10,18.0,30369.0,-1016.5,4
2019-09-18,2019,0,10,-6.0,30363.0,-1022.5,4
2019-09-19,2019,0,10,54.0,30417.0,-968.5,4
2019-09-20,2019,0,10,-416.0,30001.0,-1384.5,4
2019-09-22,2019,0,10,202.0,30203.0,-1182.5,4
2019-09-23,2019,0,10,76.0,30279.0,-1106.5,4
2019-09-24,2019,0,10,-300.0,29979.0,-1406.5,4
2019-09-25,2019,0,10,118.0,30097.0,-1288.5,4
2019-09-26,2019,0,10,-184.0,29913.0,-1472.5,4
2019-09-27,2019,0,10,22.0,29935.0,-1450.5,5
2019-09-29,2019,0,10,155.0,30090.0,-1295.5,5
2019-09-30,2019,0,10,232.5,30322.5,-1063.0,5
2019-10-01,2019,0,10,-1027.5,29295.0,-2090.5,5
2019-10-02,2019,0,10,0.0,29295.0,-2090.5,0
2019-10-03,2019,0,10,0.0,29295.0,-2090.5,0
2019-10-04,2019,0,10,0.0,29295.0,-2090.5,0
2019-10-06,2019,0,10,0.0,29295.0,-2090.5,0
2019-10-07,2019,0,10,0.0,29295.0,-2090.5,0
2019-10-08,2019,0,10,0.0,29295.0,-2090.5,0
2019-10-09,2019,0,10,0.0,29295.0,-2090.5,0
2019-10-10,2019,0,10,0.0,29295.0,-2090.5,0
2019-10-11,2019,0,10,0.0,29295.0,-2090.5,0
2019-10-13,2019,0,10,0.0,29295.0,-2090.5,0
2019-10-14,2019,0,10,0.0,29295.0,-2090.5,0
2019-10-15,2019,0,10,0.0,29295.0,-2090.5,0
2019-10-16,2019,0,10,-4.5,29290.5,-2095.0,3
2019-10-17,2019,0,10,-4.5,29286.0,-2099.5,0
2019-10-18,2019,0,10,-300.0,28986.0,-2399.5,3
2019-10-20,2019,0,10,-55.5,28930.5,-2455.0,0
2019-10-21,2019,0,10,0.0,28930.5,-2455.0,0
2019-10-22,2019,0,10,0.0,28930.5,-2455.0,0
2019-10-23,2019,0,10,0.0,28930.5,-2455.0,0
2019-10-24,2019,0,10,0.0,28930.5,-2455.0,0
2019-10-25,2019,0,10,0.0,28930.5,-2455.0,0
2019-10-27,2019,0,10,0.0,28930.5,-2455.0,0
2019-10-28,2019,0,10,141.0,29071.5,-2314.0,3
2019-10-29,2019,0,10,-42.0,29029.5,-2356.0,3
2019-10-30,2019,0,10,201.0,29230.5,-2155.0,3
2019-10-31,2019,0,10,-175.5,29055.0,-2330.5,3
2019-11-01,2019,0,10,343.5,29398.5,-1987.0,3
2019-11-03,2019,0,10,84.0,29482.5,-1903.0,3
2019-11-04,2019,0,10,168.0,29650.5,-1735.0,3
2019-11-05,2019,0,10,-36.0,29614.5,-1771.0,3
2019-11-06,2019,0,10,3.0,29617.5,-1768.0,3
2019-11-07,2019,0,10,304.5,29922.0,-1463.5,3
2019-11-08,2019,0,10,58.5,29980.5,-1405.0,4
2019-11-10,2019,0,10,-182.0,29798.5,-1587.0,4
2019-11-11,2019,0,10,164.0,29962.5,-1423.0,4
2019-11-12,2019,0,10,-96.0,29866.5,-1519.0,4
2019-11-13,2019,0,10,308.0,30174.5,-1211.0,4
2019-11-14,2019,0,10,198.0,30372.5,-1013.0,4
2019-11-15,2019,0,10,240.0,30612.5,-773.0,4
2019-11-17,2019,0,10,-26.0,30586.5,-799.0,4
2019-11-18,2019,0,10,170.0,30756.5,-629.0,4
2019-11-19,2019,0,10,-350.0,30406.5,-979.0,4
2019-11-20,2019,0,10,-248.0,30158.5,-1227.0,4
2019-11-21,2019,0,10,100.0,30258.5,-1127.0,4
2019-11-22,2019,0,10,172.0,30430.5,-955.0,5
2019-11-24,2019,0,10,172.5,30603.0,-782.5,5
2019-11-25,2019,0,10,332.5,30935.5,-450.0,5
2019-11-26,2019,0,10,177.5,31113.0,-272.5,5
2019-11-27,2019,0,10,-157.5,30955.5,-430.0,5
2019-11-28,2019,0,10,-12.5,30943.0,-442.5,5
2019-11-29,2019,0,10,5.0,30948.0,-437.5,5
2019-12-01,2019,0,10,225.0,31173.0,-212.5,5
2019-12-02,2019,0,10,-812.5,30360.5,-1025.0,5
2019-12-03,2019,0,10,-2.5,30358.0,-1027.5,0
2019-12-04,2019,0,10,0.0,30358.0,-1027.5,0
2019-12-05,2019,0,10,0.0,30358.0,-1027.5,0
2019-12-06,2019,0,10,0.0,30358.0,-1027.5,0
2019-12-08,2019,0,10,0.0,30358.0,-1027.5,0
2019-12-09,2019,0,10,0.0,30358.0,-1027.5,0
2019-12-10,2019,0,10,0.0,30358.0,-1027.5,0
2019-12-11,2019,0,10,0.0,30358.0,-1027.5,0
2019-12-12,2019,0,10,0.0,30358.0,-1027.5,0
2019-12-13,2019,0,10,-112.5,30245.5,-1140.0,3
2019-12-15,2019,0,10,12.0,30257.5,-1128.0,0
2019-12-16,2019,0,10,0.0,30257.5,-1128.0,0
2019-12-17,2019,0,10,42.0,30299.5,-1086.0,3
2019-12-18,2019,0,10,-28.5,30271.0,-1114.5,3
2019-12-19,2019,0,10,204.0,30475.0,-910.5,3
2019-12-20,2019,0,10,108.0,30583.0,-802.5,3
2019-12-22,2019,0,10,37.5,30620.5,-765.0,3
2019-12-23,2019,0,10,96.0,30716.5,-669.0,3
2019-12-24,2019,0,10,-78.0,30638.5,-747.0,3
2019-12-25,2019,0,10,49.5,30688.0,-697.5,3
2019-12-26,2019,0,10,196.5,30884.5,-501.0,3
2019-12-27,2019,0,10,-109.0,30775.5,-610.0,4
2019-12-29,2019,0,10,100.0,30875.5,-510.0,4
2019-12-30,2019,0,10,-362.0,30513.5,-872.0,4
2019-12-31,2019,0,10,162.0,30675.5,-710.0,4
2020-01-01,2020,0,10,86.0,30761.5,-624.0,4
2020-01-02,2020,0,10,142.0,30903.5,-482.0,4
2020-01-03,2020,0,10,-118.0,30785.5,-600.0,4
2020-01-05,2020,0,10,-158.0,30627.5,-758.0,4
2020-01-06,2020,0,10,378.0,31005.5,-380.0,4
2020-01-07,2020,0,10,-732.0,30273.5,-1112.0,4
2020-01-08,2020,0,10,896.0,31169.5,-216.0,4
2020-01-09,2020,0,10,406.0,31575.5,0.0,4
2020-01-10,2020,0,10,-456.0,31119.5,-456.0,5
2020-01-12,2020,0,10,202.5,31322.0,-253.5,5
2020-01-13,2020,0,10,55.0,31377.0,-198.5,5
2020-01-14,2020,0,10,-30.0,31347.0,-228.5,5
2020-01-15,2020,0,10,510.0,31857.0,0.0,5
2020-01-16,2020,0,10,525.0,32382.0,0.0,5
2020-01-17,2020,0,10,-7.5,32374.5,-7.5,5
2020-01-19,2020,0,10,67.5,32442.0,0.0,5
2020-01-20,2020,0,10,-297.5,32144.5,-297.5,5
2020-01-21,2020,0,10,255.0,32399.5,-42.5,5
2020-01-22,2020,0,10,-462.5,31937.0,-505.0,5
2020-01-23,2020,0,10,175.0,32112.0,-330.0,5
2020-01-24,2020,0,10,-658.0,31454.0,-988.0,6
2020-01-26,2020,0,10,-696.0,30758.0,-1684.0,6
2020-01-27,2020,0,10,9.0,30767.0,-1675.0,0
2020-01-28,2020,0,10,0.0,30767.0,-1675.0,0
2020-01-29,2020,0,10,0.0,30767.0,-1675.0,0
2020-01-30,2020,0,10,0.0,30767.0,-1675.0,0
2020-01-31,2020,0,10,0.0,30767.0,-1675.0,0
2020-02-02,2020,0,10,0.0,30767.0,-1675.0,0
2020-02-03,2020,0,10,0.0,30767.0,-1675.0,0
2020-02-04,2020,0,10,0.0,30767.0,-1675.0,0
2020-02-05,2020,0,10,0.0,30767.0,-1675.0,0
2020-02-06,2020,0,10,-232.5,30534.5,-1907.5,3
2020-02-07,2020,0,10,0.0,30534.5,-1907.5,0
2020-02-09,2020,0,10,0.0,30534.5,-1907.5,0
2020-02-10,2020,0,10,0.0,30534.5,-1907.5,0
2020-02-11,2020,0,10,0.0,30534.5,-1907.5,0
2020-02-12,2020,0,10,0.0,30534.5,-1907.5,0
2020-02-13,2020,0,10,0.0,30534.5,-1907.5,0
2020-02-14,2020,0,10,-133.5,30401.0,-2041.0,3
2020-02-16,2020,0,10,-13.5,30387.5,-2054.5,0
2020-02-17,2020,0,10,0.0,30387.5,-2054.5,0
2020-02-18,2020,0,10,0.0,30387.5,-2054.5,0
2020-02-19,2020,0,10,0.0,30387.5,-2054.5,0
2020-02-20,2020,0,10,0.0,30387.5,-2054.5,0
2020-02-21,2020,0,10,0.0,30387.5,-2054.5,0
2020-02-23,2020,0,10,0.0,30387.5,-2054.5,0
2020-02-24,2020,0,10,0.0,30387.5,-2054.5,0
2020-02-25,2020,0,10,0.0,30387.5,-2054.5,0
2020-02-26,2020,0,10,0.0,30387.5,-2054.5,0
2020-02-27,2020,0,10,0.0,30387.5,-2054.5,0
2020-03-01,2020,0,10,0.0,30387.5,-2054.5,0
2020-03-02,2020,0,10,0.0,30387.5,-2054.5,0
2020-03-03,2020,0,10,0.0,30387.5,-2054.5,0
2020-03-04,2020,0,10,0.0,30387.5,-2054.5,0
2020-03-05,2020,0,10,0.0,30387.5,-2054.5,0
2020-03-06,2020,0,10,0.0,30387.5,-2054.5,0
2020-03-08,2020,0,10,0.0,30387.5,-2054.5,0
2020-03-09,2020,0,10,0.0,30387.5,-2054.5,0
2020-03-10,2020,0,10,0.0,30387.5,-2054.5,0
2020-03-11,2020,0,10,0.0,30387.5,-2054.5,0
2020-03-12,2020,0,10,0.0,30387.5,-2054.5,0
2020-03-13,2020,0,10,0.0,30387.5,-2054.5,0
2020-03-15,2020,0,10,0.0,30387.5,-2054.5,0
2020-03-16,2020,0,10,0.0,30387.5,-2054.5,0
2020-03-17,2020,0,10,0.0,30387.5,-2054.5,0
2020-03-18,2020,0,10,0.0,30387.5,-2054.5,0
2020-03-19,2020,0,10,0.0,30387.5,-2054.5,0
2020-03-20,2020,0,10,0.0,30387.5,-2054.5,0
2020-03-22,2020,0,10,0.0,30387.5,-2054.5,0
2020-03-23,2020,0,10,0.0,30387.5,-2054.5,0
2020-03-24,2020,0,10,0.0,30387.5,-2054.5,0
2020-03-25,2020,0,10,0.0,30387.5,-2054.5,0
2020-03-26,2020,0,10,0.0,30387.5,-2054.5,0
2020-03-27,2020,0,10,0.0,30387.5,-2054.5,0
2020-03-29,2020,0,10,0.0,30387.5,-2054.5,0
2020-03-30,2020,0,10,0.0,30387.5,-2054.5,0
2020-03-31,2020,0,10,0.0,30387.5,-2054.5,0
2020-04-01,2020,0,10,0.0,30387.5,-2054.5,0
2020-04-02,2020,0,10,0.0,30387.5,-2054.5,0
2020-04-03,2020,0,10,0.0,30387.5,-2054.5,0
2020-04-05,2020,0,10,0.0,30387.5,-2054.5,0
2020-04-06,2020,0,10,0.0,30387.5,-2054.5,0
2020-04-07,2020,0,10,241.5,30629.0,-1813.0,3
2020-04-08,2020,0,10,1152.0,31781.0,-661.0,3
2020-04-09,2020,0,10,615.0,32396.0,-46.0,3
2020-04-12,2020,0,10,-579.0,31817.0,-625.0,3
2020-04-13,2020,0,10,489.0,32306.0,-136.0,3
2020-04-14,2020,0,10,204.0,32510.0,0.0,3
2020-04-15,2020,0,10,-736.5,31773.5,-736.5,3
2020-04-16,2020,0,10,1461.0,33234.5,0.0,3
2020-04-17,2020,0,10,-138.0,33096.5,-138.0,3
2020-04-19,2020,0,10,-4.5,33092.0,-142.5,3
2020-04-20,2020,0,10,-1308.0,31784.0,-1450.5,3
2020-04-21,2020,0,10,-462.0,31322.0,-1912.5,3
2020-04-22,2020,0,10,444.0,31766.0,-1468.5,3
2020-04-23,2020,0,10,-21.0,31745.0,-1489.5,3
2020-04-24,2020,0,10,569.5,32314.5,-920.0,4
2020-04-26,2020,0,10,302.0,32616.5,-618.0,4
2020-04-27,2020,0,10,266.0,32882.5,-352.0,4
2020-04-28,2020,0,10,658.0,33540.5,0.0,4
2020-04-29,2020,0,10,904.0,34444.5,0.0,4
2020-04-30,2020,0,10,-1554.0,32890.5,-1554.0,4
2020-05-01,2020,0,10,-678.0,32212.5,-2232.0,4
2020-05-03,2020,0,10,-218.0,31994.5,-2450.0,4
2020-05-04,2020,0,10,526.0,32520.5,-1924.0,4
2020-05-05,2020,0,10,66.0,32586.5,-1858.0,4
2020-05-06,2020,0,10,-280.0,32306.5,-2138.0,4
2020-05-07,2020,0,10,986.0,33292.5,-1152.0,4
2020-05-08,2020,0,10,370.5,33663.0,-781.5,5
2020-05-10,2020,0,10,355.0,34018.0,-426.5,5
2020-05-11,2020,0,10,-1220.0,32798.0,-1646.5,5
2020-05-12,2020,0,10,-852.5,31945.5,-2499.0,5
2020-05-13,2020,0,10,-1092.5,30853.0,-3591.5,5
2020-05-14,2020,0,10,915.0,31768.0,-2676.5,5
2020-05-15,2020,0,10,82.5,31850.5,-2594.0,5
2020-05-17,2020,0,10,540.0,32390.5,-2054.0,5
2020-05-18,2020,0,10,1665.0,34055.5,-389.0,5
2020-05-19,2020,0,10,-360.0,33695.5,-749.0,5
2020-05-20,2020,0,10,155.0,33850.5,-594.0,5
2020-05-21,2020,0,10,-375.0,33475.5,-969.0,5
2020-05-22,2020,0,10,619.5,34095.0,-349.5,6
2020-05-24,2020,0,10,141.0,34236.0,-208.5,6
2020-05-25,2020,0,10,999.0,35235.0,0.0,6
2020-05-26,2020,0,10,987.0,36222.0,0.0,6
2020-05-27,2020,0,10,1341.0,37563.0,0.0,6
2020-05-28,2020,0,10,-843.0,36720.0,-843.0,6
2020-05-29,2020,0,10,474.0,37194.0,-369.0,6
2020-05-31,2020,0,10,-432.0,36762.0,-801.0,6
2020-06-01,2020,0,10,9.0,36771.0,-792.0,6
2020-06-02,2020,0,10,1338.0,38109.0,0.0,6
2020-06-03,2020,0,10,1191.0,39300.0,0.0,6
2020-06-04,2020,0,10,606.0,39906.0,0.0,6
2020-06-05,2020,0,10,1980.5,41886.5,0.0,7
2020-06-07,2020,0,10,266.0,42152.5,0.0,7
2020-06-08,2020,0,10,1354.5,43507.0,0.0,7
2020-06-09,2020,0,10,-339.5,43167.5,-339.5,7
2020-06-10,2020,0,10,-2772.0,40395.5,-3111.5,7
2020-06-11,2020,0,10,-3.5,40392.0,-3115.0,0
2020-06-12,2020,0,10,0.0,40392.0,-3115.0,0
2020-06-14,2020,0,10,0.0,40392.0,-3115.0,0
2020-06-15,2020,0,10,0.0,40392.0,-3115.0,0
2020-06-16,2020,0,10,0.0,40392.0,-3115.0,0
2020-06-17,2020,0,10,0.0,40392.0,-3115.0,0
2020-06-18,2020,0,10,0.0,40392.0,-3115.0,0
2020-06-19,2020,0,10,0.0,40392.0,-3115.0,0
2020-06-21,2020,0,10,0.0,40392.0,-3115.0,0
2020-06-22,2020,0,10,0.0,40392.0,-3115.0,0
2020-06-23,2020,0,10,0.0,40392.0,-3115.0,0
2020-06-24,2020,0,10,0.0,40392.0,-3115.0,0
2020-06-25,2020,0,10,0.0,40392.0,-3115.0,0
2020-06-26,2020,0,10,0.0,40392.0,-3115.0,0
2020-06-28,2020,0,10,0.0,40392.0,-3115.0,0
2020-06-29,2020,0,10,0.0,40392.0,-3115.0,0
2020-06-30,2020,0,10,0.0,40392.0,-3115.0,0
2020-07-01,2020,0,10,0.0,40392.0,-3115.0,0
2020-07-02,2020,0,10,0.0,40392.0,-3115.0,0
2020-07-03,2020,0,10,0.0,40392.0,-3115.0,0
2020-07-05,2020,0,10,0.0,40392.0,-3115.0,0
2020-07-06,2020,0,10,0.0,40392.0,-3115.0,0
2020-07-07,2020,0,10,0.0,40392.0,-3115.0,0
2020-07-08,2020,0,10,0.0,40392.0,-3115.0,0
2020-07-09,2020,0,10,0.0,40392.0,-3115.0,0
2020-07-10,2020,0,10,0.0,40392.0,-3115.0,0
2020-07-12,2020,0,10,0.0,40392.0,-3115.0,0
2020-07-13,2020,0,10,0.0,40392.0,-3115.0,0
2020-07-14,2020,0,10,0.0,40392.0,-3115.0,0
2020-07-15,2020,0,10,0.0,40392.0,-3115.0,0
2020-07-16,2020,0,10,0.0,40392.0,-3115.0,0
2020-07-17,2020,0,10,0.0,40392.0,-3115.0,0
2020-07-19,2020,0,10,0.0,40392.0,-3115.0,0
2020-07-20,2020,0,10,0.0,40392.0,-3115.0,0
2020-07-21,2020,0,10,0.0,40392.0,-3115.0,0
2020-07-22,2020,0,10,0.0,40392.0,-3115.0,0
2020-07-23,2020,0,10,0.0,40392.0,-3115.0,0
2020-07-24,2020,0,10,0.0,40392.0,-3115.0,0
2020-07-26,2020,0,10,0.0,40392.0,-3115.0,0
2020-07-27,2020,0,10,0.0,40392.0,-3115.0,0
2020-07-28,2020,0,10,0.0,40392.0,-3115.0,0
2020-07-29,2020,0,10,0.0,40392.0,-3115.0,0
2020-07-30,2020,0,10,0.0,40392.0,-3115.0,0
2020-07-31,2020,0,10,0.0,40392.0,-3115.0,0
2020-08-02,2020,0,10,0.0,40392.0,-3115.0,0
2020-08-03,2020,0,10,0.0,40392.0,-3115.0,0
2020-08-04,2020,0,10,0.0,40392.0,-3115.0,0
2020-08-05,2020,0,10,0.0,40392.0,-3115.0,0
2020-08-06,2020,0,10,93.0,40485.0,-3022.0,3
2020-08-07,2020,0,10,307.5,40792.5,-2714.5,3
2020-08-09,2020,0,10,78.0,40870.5,-2636.5,3
2020-08-10,2020,0,10,558.0,41428.5,-2078.5,3
2020-08-11,2020,0,10,-165.0,41263.5,-2243.5,3
2020-08-12,2020,0,10,300.0,41563.5,-1943.5,3
2020-08-13,2020,0,10,-25.5,41538.0,-1969.0,3
2020-08-14,2020,0,10,-53.0,41485.0,-2022.0,4
2020-08-16,2020,0,10,202.0,41687.0,-1820.0,4
2020-08-17,2020,0,10,-276.0,41411.0,-2096.0,4
2020-08-18,2020,0,10,-22.0,41389.0,-2118.0,4
2020-08-19,2020,0,10,-548.0,40841.0,-2666.0,4
2020-08-20,2020,0,10,522.0,41363.0,-2144.0,4
2020-08-21,2020,0,10,238.0,41601.0,-1906.0,4
2020-08-23,2020,0,10,138.0,41739.0,-1768.0,4
2020-08-24,2020,0,10,932.0,42671.0,-836.0,4
2020-08-25,2020,0,10,-470.0,42201.0,-1306.0,4
2020-08-26,2020,0,10,202.0,42403.0,-1104.0,4
2020-08-27,2020,0,10,844.0,43247.0,-260.0,4
2020-08-28,2020,0,10,-149.0,43098.0,-409.0,5
2020-08-30,2020,0,10,362.5,43460.5,-46.5,5
2020-08-31,2020,0,10,-830.0,42630.5,-876.5,5
2020-09-01,2020,0,10,640.0,43270.5,-236.5,5
2020-09-02,2020,0,10,995.0,44265.5,0.0,5
2020-09-03,2020,0,10,-2077.5,42188.0,-2077.5,5
2020-09-04,2020,0,10,-495.0,41693.0,-2572.5,5
2020-09-06,2020,0,10,177.5,41870.5,-2395.0,5
2020-09-07,2020,0,10,347.5,42218.0,-2047.5,5
2020-09-08,2020,0,10,2.5,42220.5,-2045.0,0
2020-09-09,2020,0,10,0.0,42220.5,-2045.0,0
2020-09-10,2020,0,10,0.0,42220.5,-2045.0,0
2020-09-11,2020,0,10,0.0,42220.5,-2045.0,0
2020-09-13,2020,0,10,0.0,42220.5,-2045.0,0
2020-09-14,2020,0,10,0.0,42220.5,-2045.0,0
2020-09-15,2020,0,10,0.0,42220.5,-2045.0,0
2020-09-16,2020,0,10,0.0,42220.5,-2045.0,0
2020-09-17,2020,0,10,0.0,42220.5,-2045.0,0
2020-09-18,2020,0,10,0.0,42220.5,-2045.0,0
2020-09-20,2020,0,10,0.0,42220.5,-2045.0,0
2020-09-21,2020,0,10,0.0,42220.5,-2045.0,0
2020-09-22,2020,0,10,0.0,42220.5,-2045.0,0
2020-09-23,2020,0,10,0.0,42220.5,-2045.0,0
2020-09-24,2020,0,10,0.0,42220.5,-2045.0,0
2020-09-25,2020,0,10,0.0,42220.5,-2045.0,0
2020-09-27,2020,0,10,0.0,42220.5,-2045.0,0
2020-09-28,2020,0,10,0.0,42220.5,-2045.0,0
2020-09-29,2020,0,10,0.0,42220.5,-2045.0,0
2020-09-30,2020,0,10,0.0,42220.5,-2045.0,0
2020-10-01,2020,0,10,0.0,42220.5,-2045.0,0
2020-10-02,2020,0,10,0.0,42220.5,-2045.0,0
2020-10-04,2020,0,10,0.0,42220.5,-2045.0,0
2020-10-05,2020,0,10,0.0,42220.5,-2045.0,0
2020-10-06,2020,0,10,0.0,42220.5,-2045.0,0
2020-10-07,2020,0,10,0.0,42220.5,-2045.0,0
2020-10-08,2020,0,10,0.0,42220.5,-2045.0,0
2020-10-09,2020,0,10,157.5,42378.0,-1887.5,3
2020-10-11,2020,0,10,-55.5,42322.5,-1943.0,3
2020-10-12,2020,0,10,270.0,42592.5,-1673.0,3
2020-10-13,2020,0,10,-58.5,42534.0,-1731.5,3
2020-10-14,2020,0,10,-529.5,42004.5,-2261.0,3
2020-10-15,2020,0,10,-1.5,42003.0,-2262.5,0
2020-10-16,2020,0,10,0.0,42003.0,-2262.5,0
2020-10-18,2020,0,10,0.0,42003.0,-2262.5,0
2020-10-19,2020,0,10,-558.0,41445.0,-2820.5,3
2020-10-20,2020,0,10,0.0,41445.0,-2820.5,0
2020-10-21,2020,0,10,0.0,41445.0,-2820.5,0
2020-10-22,2020,0,10,0.0,41445.0,-2820.5,0
2020-10-23,2020,0,10,0.0,41445.0,-2820.5,0
2020-10-25,2020,0,10,0.0,41445.0,-2820.5,0
2020-10-26,2020,0,10,0.0,41445.0,-2820.5,0
2020-10-27,2020,0,10,0.0,41445.0,-2820.5,0
2020-10-28,2020,0,10,0.0,41445.0,-2820.5,0
2020-10-29,2020,0,10,0.0,41445.0,-2820.5,0
2020-10-30,2020,0,10,0.0,41445.0,-2820.5,0
2020-11-01,2020,0,10,0.0,41445.0,-2820.5,0
2020-11-02,2020,0,10,0.0,41445.0,-2820.5,0
2020-11-03,2020,0,10,0.0,41445.0,-2820.5,0
2020-11-04,2020,0,10,0.0,41445.0,-2820.5,0
2020-11-05,2020,0,10,300.0,41745.0,-2520.5,3
2020-11-06,2020,0,10,222.0,41967.0,-2298.5,3
2020-11-08,2020,0,10,462.0,42429.0,-1836.5,3
2020-11-09,2020,0,10,354.0,42783.0,-1482.5,3
2020-11-10,2020,0,10,846.0,43629.0,-636.5,3
2020-11-11,2020,0,10,-477.0,43152.0,-1113.5,3
2020-11-12,2020,0,10,-144.0,43008.0,-1257.5,3
2020-11-13,2020,0,10,646.0,43654.0,-611.5,4
2020-11-15,2020,0,10,472.0,44126.0,-139.5,4
2020-11-16,2020,0,10,266.0,44392.0,0.0,4
2020-11-17,2020,0,10,-226.0,44166.0,-226.0,4
2020-11-18,2020,0,10,-604.0,43562.0,-830.0,4
2020-11-19,2020,0,10,-216.0,43346.0,-1046.0,4
2020-11-20,2020,0,10,-170.0,43176.0,-1216.0,4
2020-11-22,2020,0,10,246.0,43422.0,-970.0,4
2020-11-23,2020,0,10,1048.0,44470.0,0.0,4
2020-11-24,2020,0,10,448.0,44918.0,0.0,4
2020-11-25,2020,0,10,-402.0,44516.0,-402.0,4
2020-11-26,2020,0,10,-98.0,44418.0,-500.0,4
2020-11-27,2020,0,10,188.0,44606.0,-312.0,5
2020-11-29,2020,0,10,-522.5,44083.5,-834.5,5
2020-11-30,2020,0,10,457.5,44541.0,-377.0,5
2020-12-01,2020,0,10,-432.5,44108.5,-809.5,5
2020-12-02,2020,0,10,345.0,44453.5,-464.5,5
2020-12-03,2020,0,10,397.5,44851.0,-67.0,5
2020-12-04,2020,0,10,400.0,45251.0,0.0,5
2020-12-06,2020,0,10,-22.5,45228.5,-22.5,5
2020-12-07,2020,0,10,-370.0,44858.5,-392.5,5
2020-12-08,2020,0,10,695.0,45553.5,0.0,5
2020-12-09,2020,0,10,-447.5,45106.0,-447.5,5
2020-12-10,2020,0,10,-210.0,44896.0,-657.5,5
2020-12-11,2020,0,10,-121.0,44775.0,-778.5,6
2020-12-13,2020,0,10,507.0,45282.0,-271.5,6
2020-12-14,2020,0,10,-1005.0,44277.0,-1276.5,6
2020-12-15,2020,0,10,906.0,45183.0,-370.5,6
2020-12-16,2020,0,10,177.0,45360.0,-193.5,6
2020-12-17,2020,0,10,-105.0,45255.0,-298.5,6
2020-12-18,2020,0,10,495.0,45750.0,0.0,6
2020-12-20,2020,0,10,-456.0,45294.0,-456.0,6
2020-12-21,2020,0,10,-399.0,44895.0,-855.0,6
2020-12-22,2020,0,10,-342.0,44553.0,-1197.0,6
2020-12-23,2020,0,10,648.0,45201.0,-549.0,6
2020-12-24,2020,0,10,6.0,45207.0,-543.0,6
2020-12-27,2020,0,10,423.0,45630.0,-120.0,6
2020-12-28,2020,0,10,645.0,46275.0,0.0,6
2020-12-29,2020,0,10,-426.0,45849.0,-426.0,6
2020-12-30,2020,0,10,-6.0,45843.0,-432.0,6
2020-12-31,2020,0,10,543.0,46386.0,0.0,6
2021-01-03,2021,3,13,39.0,46425.0,0.0,13
2021-01-04,2021,3,13,-2762.5,43662.5,-2762.5,13
2021-01-05,2021,3,13,981.5,44644.0,-1781.0,13
2021-01-06,2021,3,13,4023.5,48667.5,0.0,13
2021-01-07,2021,3,13,1573.0,50240.5,0.0,13
2021-01-08,2021,3,13,-403.0,49837.5,-403.0,13
2021-01-10,2021,3,13,-1449.5,48388.0,-1852.5,13
2021-01-11,2021,3,13,598.0,48986.0,-1254.5,13
2021-01-12,2021,3,13,968.5,49954.5,-286.0,13
2021-01-13,2021,3,13,299.0,50253.5,0.0,13
2021-01-14,2021,3,13,-1924.0,48329.5,-1924.0,13
2021-01-15,2021,3,13,-1072.5,47257.0,-2996.5,13
2021-01-17,2021,3,13,364.0,47621.0,-2632.5,13
2021-01-18,2021,3,13,1332.5,48953.5,-1300.0,13
2021-01-19,2021,3,13,-500.5,48453.0,-1800.5,13
2021-01-20,2021,3,13,2190.5,50643.5,0.0,13
2021-01-21,2021,3,13,-1020.5,49623.0,-1020.5,13
2021-01-22,2021,3,13,-565.5,49057.5,-1586.0,13
2021-01-24,2021,3,13,578.5,49636.0,-1007.5,13
2021-01-25,2021,3,13,-1911.0,47725.0,-2918.5,13
2021-01-26,2021,3,13,429.0,48154.0,-2489.5,13
2021-01-27,2021,3,13,-3978.0,44176.0,-6467.5,13
2021-01-28,2021,3,13,507.0,44683.0,-5960.5,13
2021-01-29,2021,3,13,-13.0,44670.0,-5973.5,0
2021-01-31,2021,3,13,0.0,44670.0,-5973.5,0
2021-02-01,2021,3,13,0.0,44670.0,-5973.5,0
2021-02-02,2021,3,13,0.0,44670.0,-5973.5,0
2021-02-03,2021,3,13,0.0,44670.0,-5973.5,0
2021-02-04,2021,3,13,0.0,44670.0,-5973.5,0
2021-02-05,2021,3,13,0.0,44670.0,-5973.5,0
2021-02-07,2021,3,13,183.0,44853.0,-5790.5,6
2021-02-08,2021,3,13,216.0,45069.0,-5574.5,6
2021-02-09,2021,3,13,312.0,45381.0,-5262.5,6
2021-02-10,2021,3,13,21.0,45402.0,-5241.5,6
2021-02-11,2021,3,13,-171.0,45231.0,-5412.5,6
2021-02-12,2021,3,13,300.0,45531.0,-5112.5,6
2021-02-14,2021,3,13,372.0,45903.0,-4740.5,6
2021-02-15,2021,3,13,336.0,46239.0,-4404.5,6
2021-02-16,2021,3,13,-588.0,45651.0,-4992.5,6
2021-02-17,2021,3,13,219.0,45870.0,-4773.5,6
2021-02-18,2021,3,13,-540.0,45330.0,-5313.5,6
2021-02-19,2021,3,13,154.0,45484.0,-5159.5,10
2021-02-21,2021,3,13,-105.0,45379.0,-5264.5,10
2021-02-22,2021,3,13,940.0,46319.0,-4324.5,10
2021-02-23,2021,3,13,-830.0,45489.0,-5154.5,10
2021-02-24,2021,3,13,2910.0,48399.0,-2244.5,10
2021-02-25,2021,3,13,-3780.0,44619.0,-6024.5,10
2021-02-26,2021,3,13,-1770.0,42849.0,-7794.5,10
2021-02-28,2021,3,13,370.0,43219.0,-7424.5,0
2021-03-01,2021,3,13,0.0,43219.0,-7424.5,0
2021-03-02,2021,3,13,156.0,43375.0,-7268.5,6
2021-03-03,2021,3,13,-1038.0,42337.0,-8306.5,6
2021-03-04,2021,3,13,9.0,42346.0,-8297.5,0
2021-03-05,2021,3,13,0.0,42346.0,-8297.5,0
2021-03-07,2021,3,13,-264.0,42082.0,-8561.5,6
2021-03-08,2021,3,13,1524.0,43606.0,-7037.5,6
2021-03-09,2021,3,13,-543.0,43063.0,-7580.5,6
2021-03-10,2021,3,13,1833.0,44896.0,-5747.5,6
2021-03-11,2021,3,13,528.0,45424.0,-5219.5,6
2021-03-12,2021,3,13,303.0,45727.0,-4916.5,6
2021-03-14,2021,3,13,153.0,45880.0,-4763.5,6
2021-03-15,2021,3,13,219.0,46099.0,-4544.5,6
2021-03-16,2021,3,13,-348.0,45751.0,-4892.5,6
2021-03-17,2021,3,13,849.0,46600.0,-4043.5,6
2021-03-18,2021,3,13,-513.0,46087.0,-4556.5,6
2021-03-19,2021,3,13,-1102.0,44985.0,-5658.5,10
2021-03-21,2021,3,13,-415.0,44570.0,-6073.5,10
2021-03-22,2021,3,13,790.0,45360.0,-5283.5,10
2021-03-23,2021,3,13,-1395.0,43965.0,-6678.5,10
2021-03-24,2021,3,13,535.0,44500.0,-6143.5,10
2021-03-25,2021,3,13,885.0,45385.0,-5258.5,10
2021-03-26,2021,3,13,1850.0,47235.0,-3408.5,10
2021-03-28,2021,3,13,-505.0,46730.0,-3913.5,10
2021-03-29,2021,3,13,1175.0,47905.0,-2738.5,10
2021-03-30,2021,3,13,-725.0,47180.0,-3463.5,10
2021-03-31,2021,3,13,-435.0,46745.0,-3898.5,10
2021-04-01,2021,3,13,855.0,47600.0,-3043.5,10
2021-04-02,2021,3,13,940.0,48540.0,-2103.5,13
2021-04-04,2021,3,13,260.0,48800.0,-1843.5,13
2021-04-05,2021,3,13,474.5,49274.5,-1369.0,13
2021-04-06,2021,3,13,117.0,49391.5,-1252.0,13
2021-04-07,2021,3,13,221.0,49612.5,-1031.0,13
2021-04-08,2021,3,13,117.0,49729.5,-914.0,13
2021-04-09,2021,3,13,1553.5,51283.0,0.0,13
2021-04-11,2021,3,13,-338.0,50945.0,-338.0,13
2021-04-12,2021,3,13,422.5,51367.5,0.0,13
2021-04-13,2021,3,13,-780.0,50587.5,-780.0,13
2021-04-14,2021,3,13,981.5,51569.0,0.0,13
2021-04-15,2021,3,13,1358.5,52927.5,0.0,13
2021-04-16,2021,3,13,1046.5,53974.0,0.0,13
2021-04-18,2021,3,13,-448.5,53525.5,-448.5,13
2021-04-19,2021,3,13,390.0,53915.5,-58.5,13
2021-04-20,2021,3,13,-2444.0,51471.5,-2502.5,13
2021-04-21,2021,3,13,2015.0,53486.5,-487.5,13
2021-04-22,2021,3,13,-1482.0,52004.5,-1969.5,13
2021-04-23,2021,3,13,1040.0,53044.5,-929.5,13
2021-04-25,2021,3,13,448.5,53493.0,-481.0,13
2021-04-26,2021,3,13,-500.5,52992.5,-981.5,13
2021-04-27,2021,3,13,-416.0,52576.5,-1397.5,13
2021-04-28,2021,3,13,-201.5,52375.0,-1599.0,13
2021-04-29,2021,3,13,572.0,52947.0,-1027.0,13
2021-04-30,2021,3,13,-643.5,52303.5,-1670.5,13
2021-05-02,2021,3,13,630.5,52934.0,-1040.0,13
2021-05-03,2021,3,13,416.0,53350.0,-624.0,13
2021-05-04,2021,3,13,962.0,54312.0,0.0,13
2021-05-05,2021,3,13,52.0,54364.0,0.0,13
2021-05-06,2021,3,13,2216.5,56580.5,0.0,13
2021-05-07,2021,3,13,1566.5,58147.0,0.0,13
2021-05-09,2021,3,13,494.0,58641.0,0.0,13
2021-05-10,2021,3,13,-1254.5,57386.5,-1254.5,13
2021-05-11,2021,3,13,-4160.0,53226.5,-5414.5,13
2021-05-12,2021,3,13,-6.5,53220.0,-5421.0,0
2021-05-13,2021,3,13,0.0,53220.0,-5421.0,0
2021-05-14,2021,3,13,0.0,53220.0,-5421.0,0
2021-05-16,2021,3,13,0.0,53220.0,-5421.0,0
2021-05-17,2021,3,13,0.0,53220.0,-5421.0,0
2021-05-18,2021,3,13,0.0,53220.0,-5421.0,0
2021-05-19,2021,3,13,0.0,53220.0,-5421.0,0
2021-05-20,2021,3,13,0.0,53220.0,-5421.0,0
2021-05-21,2021,3,13,0.0,53220.0,-5421.0,0
2021-05-23,2021,3,13,0.0,53220.0,-5421.0,0
2021-05-24,2021,3,13,0.0,53220.0,-5421.0,0
2021-05-25,2021,3,13,0.0,53220.0,-5421.0,0
2021-05-26,2021,3,13,0.0,53220.0,-5421.0,0
2021-05-27,2021,3,13,0.0,53220.0,-5421.0,0
2021-05-28,2021,3,13,0.0,53220.0,-5421.0,0
2021-05-30,2021,3,13,0.0,53220.0,-5421.0,0
2021-05-31,2021,3,13,0.0,53220.0,-5421.0,0
2021-06-01,2021,3,13,0.0,53220.0,-5421.0,0
2021-06-02,2021,3,13,0.0,53220.0,-5421.0,0
2021-06-03,2021,3,13,0.0,53220.0,-5421.0,0
2021-06-04,2021,3,13,0.0,53220.0,-5421.0,0
2021-06-06,2021,3,13,0.0,53220.0,-5421.0,0
2021-06-07,2021,3,13,0.0,53220.0,-5421.0,0
2021-06-08,2021,3,13,0.0,53220.0,-5421.0,0
2021-06-09,2021,3,13,0.0,53220.0,-5421.0,0
2021-06-10,2021,3,13,0.0,53220.0,-5421.0,0
2021-06-11,2021,3,13,0.0,53220.0,-5421.0,0
2021-06-13,2021,3,13,0.0,53220.0,-5421.0,0
2021-06-14,2021,3,13,0.0,53220.0,-5421.0,0
2021-06-15,2021,3,13,0.0,53220.0,-5421.0,0
2021-06-16,2021,3,13,0.0,53220.0,-5421.0,0
2021-06-17,2021,3,13,0.0,53220.0,-5421.0,0
2021-06-18,2021,3,13,0.0,53220.0,-5421.0,0
2021-06-20,2021,3,13,0.0,53220.0,-5421.0,0
2021-06-21,2021,3,13,0.0,53220.0,-5421.0,0
2021-06-22,2021,3,13,0.0,53220.0,-5421.0,0
2021-06-23,2021,3,13,0.0,53220.0,-5421.0,0
2021-06-24,2021,3,13,0.0,53220.0,-5421.0,0
2021-06-25,2021,3,13,432.0,53652.0,-4989.0,6
2021-06-27,2021,3,13,-78.0,53574.0,-5067.0,6
2021-06-28,2021,3,13,-660.0,52914.0,-5727.0,6
2021-06-29,2021,3,13,-3.0,52911.0,-5730.0,0
2021-06-30,2021,3,13,0.0,52911.0,-5730.0,0
2021-07-01,2021,3,13,267.0,53178.0,-5463.0,6
2021-07-02,2021,3,13,285.0,53463.0,-5178.0,6
2021-07-04,2021,3,13,-72.0,53391.0,-5250.0,6
2021-07-05,2021,3,13,318.0,53709.0,-4932.0,6
2021-07-06,2021,3,13,-861.0,52848.0,-5793.0,6
2021-07-07,2021,3,13,123.0,52971.0,-5670.0,6
2021-07-08,2021,3,13,-804.0,52167.0,-6474.0,6
2021-07-09,2021,3,13,9.0,52176.0,-6465.0,0
2021-07-11,2021,3,13,-195.0,51981.0,-6660.0,6
2021-07-12,2021,3,13,534.0,52515.0,-6126.0,6
2021-07-13,2021,3,13,-384.0,52131.0,-6510.0,6
2021-07-14,2021,3,13,54.0,52185.0,-6456.0,6
2021-07-15,2021,3,13,324.0,52509.0,-6132.0,6
2021-07-16,2021,3,13,-939.0,51570.0,-7071.0,6
2021-07-18,2021,3,13,-432.0,51138.0,-7503.0,6
2021-07-19,2021,3,13,-1539.0,49599.0,-9042.0,6
2021-07-20,2021,3,13,-12.0,49587.0,-9054.0,0
2021-07-21,2021,3,13,957.0,50544.0,-8097.0,6
2021-07-22,2021,3,13,126.0,50670.0,-7971.0,6
2021-07-23,2021,3,13,471.0,51141.0,-7500.0,6
2021-07-25,2021,3,13,-360.0,50781.0,-7860.0,6
2021-07-26,2021,3,13,549.0,51330.0,-7311.0,6
2021-07-27,2021,3,13,-312.0,51018.0,-7623.0,6
2021-07-28,2021,3,13,-159.0,50859.0,-7782.0,6
2021-07-29,2021,3,13,141.0,51000.0,-7641.0,6
2021-07-30,2021,3,13,116.0,51116.0,-7525.0,10
2021-08-01,2021,3,13,560.0,51676.0,-6965.0,10
2021-08-02,2021,3,13,-930.0,50746.0,-7895.0,10
2021-08-03,2021,3,13,840.0,51586.0,-7055.0,10
2021-08-04,2021,3,13,-1085.0,50501.0,-8140.0,10
2021-08-05,2021,3,13,835.0,51336.0,-7305.0,10
2021-08-06,2021,3,13,895.0,52231.0,-6410.0,10
2021-08-08,2021,3,13,-235.0,51996.0,-6645.0,10
2021-08-09,2021,3,13,-545.0,51451.0,-7190.0,10
2021-08-10,2021,3,13,1000.0,52451.0,-6190.0,10
2021-08-11,2021,3,13,1260.0,53711.0,-4930.0,10
2021-08-12,2021,3,13,70.0,53781.0,-4860.0,10
2021-08-13,2021,3,13,0.5,53781.5,-4859.5,13
2021-08-15,2021,3,13,-747.5,53034.0,-5607.0,13
2021-08-16,2021,3,13,949.0,53983.0,-4658.0,13
2021-08-17,2021,3,13,-1111.5,52871.5,-5769.5,13
2021-08-18,2021,3,13,-2541.5,50330.0,-8311.0,13
2021-08-19,2021,3,13,-598.0,49732.0,-8909.0,13
2021-08-20,2021,3,13,1807.0,51539.0,-7102.0,13
2021-08-22,2021,3,13,864.5,52403.5,-6237.5,13
2021-08-23,2021,3,13,1007.5,53411.0,-5230.0,13
2021-08-24,2021,3,13,-507.0,52904.0,-5737.0,13
2021-08-25,2021,3,13,364.0,53268.0,-5373.0,13
2021-08-26,2021,3,13,-773.5,52494.5,-6146.5,13
2021-08-27,2021,3,13,1332.5,53827.0,-4814.0,13
2021-08-29,2021,3,13,110.5,53937.5,-4703.5,13
2021-08-30,2021,3,13,-201.5,53736.0,-4905.0,13
2021-08-31,2021,3,13,208.0,53944.0,-4697.0,13
2021-09-01,2021,3,13,-1196.0,52748.0,-5893.0,13
2021-09-02,2021,3,13,1514.5,54262.5,-4378.5,13
2021-09-03,2021,3,13,-903.5,53359.0,-5282.0,13
2021-09-05,2021,3,13,58.5,53417.5,-5223.5,13
2021-09-06,2021,3,13,344.5,53762.0,-4879.0,13
2021-09-07,2021,3,13,-2086.5,51675.5,-6965.5,13
2021-09-08,2021,3,13,-1085.5,50590.0,-8051.0,13
2021-09-09,2021,3,13,286.0,50876.0,-7765.0,13
2021-09-10,2021,3,13,-767.0,50109.0,-8532.0,0
2021-09-12,2021,3,13,0.0,50109.0,-8532.0,0
2021-09-13,2021,3,13,0.0,50109.0,-8532.0,0
2021-09-14,2021,3,13,0.0,50109.0,-8532.0,0
2021-09-15,2021,3,13,0.0,50109.0,-8532.0,0
2021-09-16,2021,3,13,0.0,50109.0,-8532.0,0
2021-09-17,2021,3,13,0.0,50109.0,-8532.0,0
2021-09-19,2021,3,13,0.0,50109.0,-8532.0,0
2021-09-20,2021,3,13,0.0,50109.0,-8532.0,0
2021-09-21,2021,3,13,0.0,50109.0,-8532.0,0
2021-09-22,2021,3,13,0.0,50109.0,-8532.0,0
2021-09-23,2021,3,13,0.0,50109.0,-8532.0,0
2021-09-24,2021,3,13,0.0,50109.0,-8532.0,0
2021-09-26,2021,3,13,0.0,50109.0,-8532.0,0
2021-09-27,2021,3,13,0.0,50109.0,-8532.0,0
2021-09-28,2021,3,13,0.0,50109.0,-8532.0,0
2021-09-29,2021,3,13,0.0,50109.0,-8532.0,0
2021-09-30,2021,3,13,0.0,50109.0,-8532.0,0
2021-10-01,2021,3,13,0.0,50109.0,-8532.0,0
2021-10-03,2021,3,13,0.0,50109.0,-8532.0,0
2021-10-04,2021,3,13,0.0,50109.0,-8532.0,0
2021-10-05,2021,3,13,0.0,50109.0,-8532.0,0
2021-10-06,2021,3,13,0.0,50109.0,-8532.0,0
2021-10-07,2021,3,13,0.0,50109.0,-8532.0,0
2021-10-08,2021,3,13,0.0,50109.0,-8532.0,0
2021-10-10,2021,3,13,0.0,50109.0,-8532.0,0
2021-10-11,2021,3,13,0.0,50109.0,-8532.0,0
2021-10-12,2021,3,13,0.0,50109.0,-8532.0,0
2021-10-13,2021,3,13,0.0,50109.0,-8532.0,0
2021-10-14,2021,3,13,0.0,50109.0,-8532.0,0
2021-10-15,2021,3,13,900.0,51009.0,-7632.0,6
2021-10-17,2021,3,13,-12.0,50997.0,-7644.0,6
2021-10-18,2021,3,13,-201.0,50796.0,-7845.0,6
2021-10-19,2021,3,13,651.0,51447.0,-7194.0,6
2021-10-20,2021,3,13,294.0,51741.0,-6900.0,6
2021-10-21,2021,3,13,249.0,51990.0,-6651.0,6
2021-10-22,2021,3,13,-75.0,51915.0,-6726.0,6
2021-10-24,2021,3,13,207.0,52122.0,-6519.0,6
2021-10-25,2021,3,13,315.0,52437.0,-6204.0,6
2021-10-26,2021,3,13,-84.0,52353.0,-6288.0,6
2021-10-27,2021,3,13,-594.0,51759.0,-6882.0,6
2021-10-28,2021,3,13,435.0,52194.0,-6447.0,6
2021-10-29,2021,3,13,574.0,52768.0,-5873.0,10
2021-10-31,2021,3,13,210.0,52978.0,-5663.0,10
2021-11-01,2021,3,13,-315.0,52663.0,-5978.0,10
2021-11-02,2021,3,13,865.0,53528.0,-5113.0,10
2021-11-03,2021,3,13,580.0,54108.0,-4533.0,10
2021-11-04,2021,3,13,-115.0,53993.0,-4648.0,10
2021-11-05,2021,3,13,910.0,54903.0,-3738.0,10
2021-11-07,2021,3,13,60.0,54963.0,-3678.0,10
2021-11-08,2021,3,13,190.0,55153.0,-3488.0,10
2021-11-09,2021,3,13,-665.0,54488.0,-4153.0,10
2021-11-10,2021,3,13,-650.0,53838.0,-4803.0,10
2021-11-11,2021,3,13,-375.0,53463.0,-5178.0,10
2021-11-12,2021,3,13,760.5,54223.5,-4417.5,13
2021-11-14,2021,3,13,-117.0,54106.5,-4534.5,13
2021-11-15,2021,3,13,0.0,54106.5,-4534.5,13
2021-11-16,2021,3,13,370.5,54477.0,-4164.0,13
2021-11-17,2021,3,13,-1280.5,53196.5,-5444.5,13
2021-11-18,2021,3,13,403.0,53599.5,-5041.5,13
2021-11-19,2021,3,13,-2242.5,51357.0,-7284.0,13
2021-11-21,2021,3,13,487.5,51844.5,-6796.5,13
2021-11-22,2021,3,13,-357.5,51487.0,-7154.0,13
2021-11-23,2021,3,13,539.5,52026.5,-6614.5,13
2021-11-24,2021,3,13,1170.0,53196.5,-5444.5,13
2021-11-25,2021,3,13,6.5,53203.0,-5438.0,0
2021-11-26,2021,3,13,0.0,53203.0,-5438.0,0
2021-11-28,2021,3,13,0.0,53203.0,-5438.0,0
2021-11-29,2021,3,13,0.0,53203.0,-5438.0,0
2021-11-30,2021,3,13,0.0,53203.0,-5438.0,0
2021-12-01,2021,3,13,0.0,53203.0,-5438.0,0
2021-12-02,2021,3,13,0.0,53203.0,-5438.0,0
2021-12-03,2021,3,13,0.0,53203.0,-5438.0,0
2021-12-05,2021,3,13,0.0,53203.0,-5438.0,0
2021-12-06,2021,3,13,0.0,53203.0,-5438.0,0
2021-12-07,2021,3,13,0.0,53203.0,-5438.0,0
2021-12-08,2021,3,13,-369.0,52834.0,-5807.0,6
2021-12-09,2021,3,13,-3.0,52831.0,-5810.0,0
2021-12-10,2021,3,13,0.0,52831.0,-5810.0,0
2021-12-12,2021,3,13,357.0,53188.0,-5453.0,6
2021-12-13,2021,3,13,-1248.0,51940.0,-6701.0,6
2021-12-14,2021,3,13,-6.0,51934.0,-6707.0,0
2021-12-15,2021,3,13,0.0,51934.0,-6707.0,0
2021-12-16,2021,3,13,-303.0,51631.0,-7010.0,6
2021-12-17,2021,3,13,3.0,51634.0,-7007.0,0
2021-12-19,2021,3,13,0.0,51634.0,-7007.0,0
2021-12-20,2021,3,13,0.0,51634.0,-7007.0,0
2021-12-21,2021,3,13,0.0,51634.0,-7007.0,0
2021-12-22,2021,3,13,0.0,51634.0,-7007.0,0
2021-12-23,2021,3,13,0.0,51634.0,-7007.0,0
2021-12-26,2021,3,13,-36.0,51598.0,-7043.0,6
2021-12-27,2021,3,13,939.0,52537.0,-6104.0,6
2021-12-28,2021,3,13,453.0,52990.0,-5651.0,6
2021-12-29,2021,3,13,210.0,53200.0,-5441.0,6
2021-12-30,2021,3,13,-432.0,52768.0,-5873.0,6
2021-12-31,2021,3,13,102.0,52870.0,-5771.0,6
2022-01-02,2022,5,15,360.0,53230.0,-5411.0,8
2022-01-03,2022,5,15,632.0,53862.0,-4779.0,8
2022-01-04,2022,5,15,384.0,54246.0,-4395.0,8
2022-01-05,2022,5,15,-1692.0,52554.0,-6087.0,8
2022-01-06,2022,5,15,84.0,52638.0,-6003.0,8
2022-01-07,2022,5,15,-420.0,52218.0,-6423.0,14
2022-01-09,2022,5,15,-91.0,52127.0,-6514.0,14
2022-01-10,2022,5,15,-1106.0,51021.0,-7620.0,14
2022-01-11,2022,5,15,1519.0,52540.0,-6101.0,14
2022-01-12,2022,5,15,-308.0,52232.0,-6409.0,14
2022-01-13,2022,5,15,-756.0,51476.0,-7165.0,14
2022-01-14,2022,5,15,-1281.0,50195.0,-8446.0,14
2022-01-16,2022,5,15,-651.0,49544.0,-9097.0,14
2022-01-17,2022,5,15,-7.0,49537.0,-9104.0,0
2022-01-18,2022,5,15,0.0,49537.0,-9104.0,0
2022-01-19,2022,5,15,0.0,49537.0,-9104.0,0
2022-01-20,2022,5,15,0.0,49537.0,-9104.0,0
2022-01-21,2022,5,15,0.0,49537.0,-9104.0,0
2022-01-23,2022,5,15,0.0,49537.0,-9104.0,0
2022-01-24,2022,5,15,0.0,49537.0,-9104.0,0
2022-01-25,2022,5,15,0.0,49537.0,-9104.0,0
2022-01-26,2022,5,15,0.0,49537.0,-9104.0,0
2022-01-27,2022,5,15,0.0,49537.0,-9104.0,0
2022-01-28,2022,5,15,0.0,49537.0,-9104.0,0
2022-01-30,2022,5,15,0.0,49537.0,-9104.0,0
2022-01-31,2022,5,15,0.0,49537.0,-9104.0,0
2022-02-01,2022,5,15,0.0,49537.0,-9104.0,0
2022-02-02,2022,5,15,0.0,49537.0,-9104.0,0
2022-02-03,2022,5,15,-1244.0,48293.0,-10348.0,8
2022-02-04,2022,5,15,-4.0,48289.0,-10352.0,0
2022-02-06,2022,5,15,0.0,48289.0,-10352.0,0
2022-02-07,2022,5,15,0.0,48289.0,-10352.0,0
2022-02-08,2022,5,15,0.0,48289.0,-10352.0,0
2022-02-09,2022,5,15,652.0,48941.0,-9700.0,8
2022-02-10,2022,5,15,-2892.0,46049.0,-12592.0,8
2022-02-11,2022,5,15,4.0,46053.0,-12588.0,0
2022-02-13,2022,5,15,0.0,46053.0,-12588.0,0
2022-02-14,2022,5,15,0.0,46053.0,-12588.0,0
2022-02-15,2022,5,15,0.0,46053.0,-12588.0,0
2022-02-16,2022,5,15,0.0,46053.0,-12588.0,0
2022-02-17,2022,5,15,0.0,46053.0,-12588.0,0
2022-02-18,2022,5,15,0.0,46053.0,-12588.0,0
2022-02-20,2022,5,15,0.0,46053.0,-12588.0,0
2022-02-21,2022,5,15,0.0,46053.0,-12588.0,0
2022-02-22,2022,5,15,0.0,46053.0,-12588.0,0
2022-02-23,2022,5,15,0.0,46053.0,-12588.0,0
2022-02-24,2022,5,15,0.0,46053.0,-12588.0,0
2022-02-25,2022,5,15,0.0,46053.0,-12588.0,0
2022-02-27,2022,5,15,0.0,46053.0,-12588.0,0
2022-02-28,2022,5,15,0.0,46053.0,-12588.0,0
2022-03-01,2022,5,15,0.0,46053.0,-12588.0,0
2022-03-02,2022,5,15,0.0,46053.0,-12588.0,0
2022-03-03,2022,5,15,0.0,46053.0,-12588.0,0
2022-03-04,2022,5,15,0.0,46053.0,-12588.0,0
2022-03-06,2022,5,15,0.0,46053.0,-12588.0,0
2022-03-07,2022,5,15,0.0,46053.0,-12588.0,0
2022-03-08,2022,5,15,0.0,46053.0,-12588.0,0
2022-03-09,2022,5,15,0.0,46053.0,-12588.0,0
2022-03-10,2022,5,15,0.0,46053.0,-12588.0,0
2022-03-11,2022,5,15,0.0,46053.0,-12588.0,0
2022-03-13,2022,5,15,0.0,46053.0,-12588.0,0
2022-03-14,2022,5,15,0.0,46053.0,-12588.0,0
2022-03-15,2022,5,15,0.0,46053.0,-12588.0,0
2022-03-16,2022,5,15,0.0,46053.0,-12588.0,0
2022-03-17,2022,5,15,0.0,46053.0,-12588.0,0
2022-03-18,2022,5,15,0.0,46053.0,-12588.0,0
2022-03-20,2022,5,15,0.0,46053.0,-12588.0,0
2022-03-21,2022,5,15,0.0,46053.0,-12588.0,0
2022-03-22,2022,5,15,0.0,46053.0,-12588.0,0
2022-03-23,2022,5,15,0.0,46053.0,-12588.0,0
2022-03-24,2022,5,15,0.0,46053.0,-12588.0,0
2022-03-25,2022,5,15,0.0,46053.0,-12588.0,0
2022-03-27,2022,5,15,0.0,46053.0,-12588.0,0
2022-03-28,2022,5,15,0.0,46053.0,-12588.0,0
2022-03-29,2022,5,15,1052.0,47105.0,-11536.0,8
2022-03-30,2022,5,15,36.0,47141.0,-11500.0,8
2022-03-31,2022,5,15,-1664.0,45477.0,-13164.0,8
2022-04-01,2022,5,15,-8.0,45469.0,-13172.0,0
2022-04-03,2022,5,15,0.0,45469.0,-13172.0,0
2022-04-04,2022,5,15,0.0,45469.0,-13172.0,0
2022-04-05,2022,5,15,0.0,45469.0,-13172.0,0
2022-04-06,2022,5,15,0.0,45469.0,-13172.0,0
2022-04-07,2022,5,15,0.0,45469.0,-13172.0,0
2022-04-08,2022,5,15,0.0,45469.0,-13172.0,0
2022-04-10,2022,5,15,0.0,45469.0,-13172.0,0
2022-04-11,2022,5,15,0.0,45469.0,-13172.0,0
2022-04-12,2022,5,15,0.0,45469.0,-13172.0,0
2022-04-13,2022,5,15,0.0,45469.0,-13172.0,0
2022-04-14,2022,5,15,0.0,45469.0,-13172.0,0
2022-04-17,2022,5,15,0.0,45469.0,-13172.0,0
2022-04-18,2022,5,15,0.0,45469.0,-13172.0,0
2022-04-19,2022,5,15,0.0,45469.0,-13172.0,0
2022-04-20,2022,5,15,0.0,45469.0,-13172.0,0
2022-04-21,2022,5,15,-2312.0,43157.0,-15484.0,8
2022-04-22,2022,5,15,4.0,43161.0,-15480.0,0
2022-04-24,2022,5,15,0.0,43161.0,-15480.0,0
2022-04-25,2022,5,15,0.0,43161.0,-15480.0,0
2022-04-26,2022,5,15,0.0,43161.0,-15480.0,0
2022-04-27,2022,5,15,0.0,43161.0,-15480.0,0
2022-04-28,2022,5,15,0.0,43161.0,-15480.0,0
2022-04-29,2022,5,15,0.0,43161.0,-15480.0,0
2022-05-01,2022,5,15,0.0,43161.0,-15480.0,0
2022-05-02,2022,5,15,0.0,43161.0,-15480.0,0
2022-05-03,2022,5,15,0.0,43161.0,-15480.0,0
2022-05-04,2022,5,15,0.0,43161.0,-15480.0,0
2022-05-05,2022,5,15,0.0,43161.0,-15480.0,0
2022-05-06,2022,5,15,0.0,43161.0,-15480.0,0
2022-05-08,2022,5,15,0.0,43161.0,-15480.0,0
2022-05-09,2022,5,15,0.0,43161.0,-15480.0,0
2022-05-10,2022,5,15,0.0,43161.0,-15480.0,0
2022-05-11,2022,5,15,0.0,43161.0,-15480.0,0
2022-05-12,2022,5,15,0.0,43161.0,-15480.0,0
2022-05-13,2022,5,15,0.0,43161.0,-15480.0,0
2022-05-15,2022,5,15,0.0,43161.0,-15480.0,0
2022-05-16,2022,5,15,0.0,43161.0,-15480.0,0
2022-05-17,2022,5,15,0.0,43161.0,-15480.0,0
2022-05-18,2022,5,15,0.0,43161.0,-15480.0,0
2022-05-19,2022,5,15,0.0,43161.0,-15480.0,0
2022-05-20,2022,5,15,0.0,43161.0,-15480.0,0
2022-05-22,2022,5,15,0.0,43161.0,-15480.0,0
2022-05-23,2022,5,15,0.0,43161.0,-15480.0,0
2022-05-24,2022,5,15,0.0,43161.0,-15480.0,0
2022-05-25,2022,5,15,0.0,43161.0,-15480.0,0
2022-05-26,2022,5,15,0.0,43161.0,-15480.0,0
2022-05-27,2022,5,15,0.0,43161.0,-15480.0,0
2022-05-29,2022,5,15,24.0,43185.0,-15456.0,8
2022-05-30,2022,5,15,-144.0,43041.0,-15600.0,8
2022-05-31,2022,5,15,4.0,43045.0,-15596.0,0
2022-06-01,2022,5,15,0.0,43045.0,-15596.0,0
2022-06-02,2022,5,15,0.0,43045.0,-15596.0,0
2022-06-03,2022,5,15,-1320.0,41725.0,-16916.0,8
2022-06-05,2022,5,15,160.0,41885.0,-16756.0,0
2022-06-06,2022,5,15,0.0,41885.0,-16756.0,0
2022-06-07,2022,5,15,0.0,41885.0,-16756.0,0
2022-06-08,2022,5,15,0.0,41885.0,-16756.0,0
2022-06-09,2022,5,15,0.0,41885.0,-16756.0,0
2022-06-10,2022,5,15,0.0,41885.0,-16756.0,0
2022-06-12,2022,5,15,0.0,41885.0,-16756.0,0
2022-06-13,2022,5,15,0.0,41885.0,-16756.0,0
2022-06-14,2022,5,15,0.0,41885.0,-16756.0,0
2022-06-15,2022,5,15,0.0,41885.0,-16756.0,0
2022-06-16,2022,5,15,0.0,41885.0,-16756.0,0
2022-06-17,2022,5,15,0.0,41885.0,-16756.0,0
2022-06-19,2022,5,15,0.0,41885.0,-16756.0,0
2022-06-20,2022,5,15,0.0,41885.0,-16756.0,0
2022-06-21,2022,5,15,0.0,41885.0,-16756.0,0
2022-06-22,2022,5,15,0.0,41885.0,-16756.0,0
2022-06-23,2022,5,15,0.0,41885.0,-16756.0,0
2022-06-24,2022,5,15,0.0,41885.0,-16756.0,0
2022-06-26,2022,5,15,0.0,41885.0,-16756.0,0
2022-06-27,2022,5,15,0.0,41885.0,-16756.0,0
2022-06-28,2022,5,15,0.0,41885.0,-16756.0,0
2022-06-29,2022,5,15,0.0,41885.0,-16756.0,0
2022-06-30,2022,5,15,0.0,41885.0,-16756.0,0
2022-07-01,2022,5,15,0.0,41885.0,-16756.0,0
2022-07-03,2022,5,15,0.0,41885.0,-16756.0,0
2022-07-04,2022,5,15,0.0,41885.0,-16756.0,0
2022-07-05,2022,5,15,0.0,41885.0,-16756.0,0
2022-07-06,2022,5,15,0.0,41885.0,-16756.0,0
2022-07-07,2022,5,15,0.0,41885.0,-16756.0,0
2022-07-08,2022,5,15,0.0,41885.0,-16756.0,0
2022-07-10,2022,5,15,0.0,41885.0,-16756.0,0
2022-07-11,2022,5,15,0.0,41885.0,-16756.0,0
2022-07-12,2022,5,15,0.0,41885.0,-16756.0,0
2022-07-13,2022,5,15,0.0,41885.0,-16756.0,0
2022-07-14,2022,5,15,0.0,41885.0,-16756.0,0
2022-07-15,2022,5,15,0.0,41885.0,-16756.0,0
2022-07-17,2022,5,15,0.0,41885.0,-16756.0,0
2022-07-18,2022,5,15,0.0,41885.0,-16756.0,0
2022-07-19,2022,5,15,0.0,41885.0,-16756.0,0
2022-07-20,2022,5,15,-552.0,41333.0,-17308.0,8
2022-07-21,2022,5,15,-8.0,41325.0,-17316.0,0
2022-07-22,2022,5,15,-444.0,40881.0,-17760.0,8
2022-07-24,2022,5,15,64.0,40945.0,-17696.0,0
2022-07-25,2022,5,15,0.0,40945.0,-17696.0,0
2022-07-26,2022,5,15,0.0,40945.0,-17696.0,0
2022-07-27,2022,5,15,0.0,40945.0,-17696.0,0
2022-07-28,2022,5,15,1524.0,42469.0,-16172.0,8
2022-07-29,2022,5,15,1244.0,43713.0,-14928.0,8
2022-07-31,2022,5,15,-548.0,43165.0,-15476.0,8
2022-08-01,2022,5,15,-20.0,43145.0,-15496.0,8
2022-08-02,2022,5,15,-924.0,42221.0,-16420.0,8
2022-08-03,2022,5,15,1264.0,43485.0,-15156.0,8
2022-08-04,2022,5,15,64.0,43549.0,-15092.0,8
2022-08-05,2022,5,15,-314.0,43235.0,-15406.0,14
2022-08-07,2022,5,15,35.0,43270.0,-15371.0,14
2022-08-08,2022,5,15,1078.0,44348.0,-14293.0,14
2022-08-09,2022,5,15,-1029.0,43319.0,-15322.0,14
2022-08-10,2022,5,15,4431.0,47750.0,-10891.0,14
2022-08-11,2022,5,15,-133.0,47617.0,-11024.0,14
2022-08-12,2022,5,15,2632.0,50249.0,-8392.0,14
2022-08-14,2022,5,15,-476.0,49773.0,-8868.0,14
2022-08-15,2022,5,15,1561.0,51334.0,-7307.0,14
2022-08-16,2022,5,15,1771.0,53105.0,-5536.0,14
2022-08-17,2022,5,15,-1281.0,51824.0,-6817.0,14
2022-08-18,2022,5,15,-35.0,51789.0,-6852.0,14
2022-08-19,2022,5,15,-1673.0,50116.0,-8525.0,15
2022-08-21,2022,5,15,-900.0,49216.0,-9425.0,15
2022-08-22,2022,5,15,-3555.0,45661.0,-12980.0,15
2022-08-23,2022,5,15,7.5,45668.5,-12972.5,0
2022-08-24,2022,5,15,0.0,45668.5,-12972.5,0
2022-08-25,2022,5,15,0.0,45668.5,-12972.5,0
2022-08-26,2022,5,15,0.0,45668.5,-12972.5,0
2022-08-28,2022,5,15,0.0,45668.5,-12972.5,0
2022-08-29,2022,5,15,0.0,45668.5,-12972.5,0
2022-08-30,2022,5,15,0.0,45668.5,-12972.5,0
2022-08-31,2022,5,15,0.0,45668.5,-12972.5,0
2022-09-01,2022,5,15,0.0,45668.5,-12972.5,0
2022-09-02,2022,5,15,0.0,45668.5,-12972.5,0
2022-09-04,2022,5,15,0.0,45668.5,-12972.5,0
2022-09-05,2022,5,15,0.0,45668.5,-12972.5,0
2022-09-06,2022,5,15,0.0,45668.5,-12972.5,0
2022-09-07,2022,5,15,0.0,45668.5,-12972.5,0
2022-09-08,2022,5,15,0.0,45668.5,-12972.5,0
2022-09-09,2022,5,15,0.0,45668.5,-12972.5,0
2022-09-11,2022,5,15,0.0,45668.5,-12972.5,0
2022-09-12,2022,5,15,0.0,45668.5,-12972.5,0
2022-09-13,2022,5,15,0.0,45668.5,-12972.5,0
2022-09-14,2022,5,15,0.0,45668.5,-12972.5,0
2022-09-15,2022,5,15,0.0,45668.5,-12972.5,0
2022-09-16,2022,5,15,0.0,45668.5,-12972.5,0
2022-09-18,2022,5,15,0.0,45668.5,-12972.5,0
2022-09-19,2022,5,15,0.0,45668.5,-12972.5,0
2022-09-20,2022,5,15,0.0,45668.5,-12972.5,0
2022-09-21,2022,5,15,0.0,45668.5,-12972.5,0
2022-09-22,2022,5,15,0.0,45668.5,-12972.5,0
2022-09-23,2022,5,15,0.0,45668.5,-12972.5,0
2022-09-25,2022,5,15,0.0,45668.5,-12972.5,0
2022-09-26,2022,5,15,0.0,45668.5,-12972.5,0
2022-09-27,2022,5,15,0.0,45668.5,-12972.5,0
2022-09-28,2022,5,15,0.0,45668.5,-12972.5,0
2022-09-29,2022,5,15,0.0,45668.5,-12972.5,0
2022-09-30,2022,5,15,0.0,45668.5,-12972.5,0
2022-10-02,2022,5,15,0.0,45668.5,-12972.5,0
2022-10-03,2022,5,15,0.0,45668.5,-12972.5,0
2022-10-04,2022,5,15,0.0,45668.5,-12972.5,0
2022-10-05,2022,5,15,0.0,45668.5,-12972.5,0
2022-10-06,2022,5,15,0.0,45668.5,-12972.5,0
2022-10-07,2022,5,15,0.0,45668.5,-12972.5,0
2022-10-09,2022,5,15,0.0,45668.5,-12972.5,0
2022-10-10,2022,5,15,0.0,45668.5,-12972.5,0
2022-10-11,2022,5,15,0.0,45668.5,-12972.5,0
2022-10-12,2022,5,15,0.0,45668.5,-12972.5,0
2022-10-13,2022,5,15,0.0,45668.5,-12972.5,0
2022-10-14,2022,5,15,0.0,45668.5,-12972.5,0
2022-10-16,2022,5,15,0.0,45668.5,-12972.5,0
2022-10-17,2022,5,15,0.0,45668.5,-12972.5,0
2022-10-18,2022,5,15,564.0,46232.5,-12408.5,8
2022-10-19,2022,5,15,-1452.0,44780.5,-13860.5,8
2022-10-20,2022,5,15,-8.0,44772.5,-13868.5,0
2022-10-21,2022,5,15,0.0,44772.5,-13868.5,0
2022-10-23,2022,5,15,-252.0,44520.5,-14120.5,8
2022-10-24,2022,5,15,1672.0,46192.5,-12448.5,8
2022-10-25,2022,5,15,1052.0,47244.5,-11396.5,8
2022-10-26,2022,5,15,992.0,48236.5,-10404.5,8
2022-10-27,2022,5,15,200.0,48436.5,-10204.5,8
2022-10-28,2022,5,15,3544.0,51980.5,-6660.5,8
2022-10-30,2022,5,15,-432.0,51548.5,-7092.5,8
2022-10-31,2022,5,15,8.0,51556.5,-7084.5,8
2022-11-01,2022,5,15,-628.0,50928.5,-7712.5,8
2022-11-02,2022,5,15,-1956.0,48972.5,-9668.5,8
2022-11-03,2022,5,15,-964.0,48008.5,-10632.5,8
2022-11-04,2022,5,15,1523.0,49531.5,-9109.5,14
2022-11-06,2022,5,15,70.0,49601.5,-9039.5,14
2022-11-07,2022,5,15,3213.0,52814.5,-5826.5,14
2022-11-08,2022,5,15,2233.0,55047.5,-3593.5,14
2022-11-09,2022,5,15,-4095.0,50952.5,-7688.5,14
2022-11-10,2022,5,15,8498.0,59450.5,0.0,14
2022-11-11,2022,5,15,-252.0,59198.5,-252.0,14
2022-11-13,2022,5,15,-490.0,58708.5,-742.0,14
2022-11-14,2022,5,15,-133.0,58575.5,-875.0,14
2022-11-15,2022,5,15,-875.0,57700.5,-1750.0,14
2022-11-16,2022,5,15,336.0,58036.5,-1414.0,14
2022-11-17,2022,5,15,-455.0,57581.5,-1869.0,14
2022-11-18,2022,5,15,1631.5,59213.0,-237.5,15
2022-11-20,2022,5,15,-487.5,58725.5,-725.0,15
2022-11-21,2022,5,15,405.0,59130.5,-320.0,15
2022-11-22,2022,5,15,2775.0,61905.5,0.0,15
2022-11-23,2022,5,15,1012.5,62918.0,0.0,15
2022-11-24,2022,5,15,-97.5,62820.5,-97.5,15
2022-11-25,2022,5,15,990.0,63810.5,0.0,15
2022-11-27,2022,5,15,-1350.0,62460.5,-1350.0,15
2022-11-28,2022,5,15,-1957.5,60503.0,-3307.5,15
2022-11-29,2022,5,15,-307.5,60195.5,-3615.0,15
2022-11-30,2022,5,15,5325.0,65520.5,0.0,15
2022-12-01,2022,5,15,-1680.0,63840.5,-1680.0,15
2022-12-02,2022,5,15,75.0,63915.5,-1605.0,15
2022-12-04,2022,5,15,315.0,64230.5,-1290.0,15
2022-12-05,2022,5,15,-3067.5,61163.0,-4357.5,15
2022-12-06,2022,5,15,-2535.0,58628.0,-6892.5,15
2022-12-07,2022,5,15,-615.0,58013.0,-7507.5,15
2022-12-08,2022,5,15,1837.5,59850.5,-5670.0,15
2022-12-09,2022,5,15,-2737.5,57113.0,-8407.5,15
2022-12-11,2022,5,15,1845.0,58958.0,-6562.5,15
2022-12-12,2022,5,15,4065.0,63023.0,-2497.5,15
2022-12-13,2022,5,15,1597.5,64620.5,-900.0,15
2022-12-14,2022,5,15,-1695.0,62925.5,-2595.0,15
2022-12-15,2022,5,15,-6457.5,56468.0,-9052.5,15
2022-12-16,2022,5,15,15.0,56483.0,-9037.5,0
2022-12-18,2022,5,15,0.0,56483.0,-9037.5,0
2022-12-19,2022,5,15,0.0,56483.0,-9037.5,0
2022-12-20,2022,5,15,0.0,56483.0,-9037.5,0
2022-12-21,2022,5,15,0.0,56483.0,-9037.5,0
2022-12-22,2022,5,15,0.0,56483.0,-9037.5,0
2022-12-23,2022,5,15,0.0,56483.0,-9037.5,0
2022-12-26,2022,5,15,0.0,56483.0,-9037.5,0
2022-12-27,2022,5,15,0.0,56483.0,-9037.5,0
2022-12-28,2022,5,15,0.0,56483.0,-9037.5,0
2022-12-29,2022,5,15,0.0,56483.0,-9037.5,0
2022-12-30,2022,5,15,0.0,56483.0,-9037.5,0
2023-01-02,2023,5,15,0.0,56483.0,-9037.5,0
2023-01-03,2023,5,15,0.0,56483.0,-9037.5,0
2023-01-04,2023,5,15,0.0,56483.0,-9037.5,0
2023-01-05,2023,5,15,0.0,56483.0,-9037.5,0
2023-01-06,2023,5,15,0.0,56483.0,-9037.5,0
2023-01-08,2023,5,15,0.0,56483.0,-9037.5,0
2023-01-09,2023,5,15,0.0,56483.0,-9037.5,0
2023-01-10,2023,5,15,0.0,56483.0,-9037.5,0
2023-01-11,2023,5,15,0.0,56483.0,-9037.5,0
2023-01-12,2023,5,15,0.0,56483.0,-9037.5,0
2023-01-13,2023,5,15,0.0,56483.0,-9037.5,0
2023-01-15,2023,5,15,0.0,56483.0,-9037.5,0
2023-01-16,2023,5,15,0.0,56483.0,-9037.5,0
2023-01-17,2023,5,15,0.0,56483.0,-9037.5,0
2023-01-18,2023,5,15,0.0,56483.0,-9037.5,0
2023-01-19,2023,5,15,0.0,56483.0,-9037.5,0
2023-01-20,2023,5,15,0.0,56483.0,-9037.5,0
2023-01-22,2023,5,15,0.0,56483.0,-9037.5,0
2023-01-23,2023,5,15,0.0,56483.0,-9037.5,0
2023-01-24,2023,5,15,0.0,56483.0,-9037.5,0
2023-01-25,2023,5,15,0.0,56483.0,-9037.5,0
2023-01-26,2023,5,15,0.0,56483.0,-9037.5,0
2023-01-27,2023,5,15,0.0,56483.0,-9037.5,0
2023-01-29,2023,5,15,0.0,56483.0,-9037.5,0
2023-01-30,2023,5,15,0.0,56483.0,-9037.5,0
2023-01-31,2023,5,15,0.0,56483.0,-9037.5,0
2023-02-01,2023,5,15,0.0,56483.0,-9037.5,0
2023-02-02,2023,5,15,0.0,56483.0,-9037.5,0
2023-02-03,2023,5,15,0.0,56483.0,-9037.5,0
2023-02-05,2023,5,15,0.0,56483.0,-9037.5,0
2023-02-06,2023,5,15,0.0,56483.0,-9037.5,0
2023-02-07,2023,5,15,0.0,56483.0,-9037.5,0
2023-02-08,2023,5,15,0.0,56483.0,-9037.5,0
2023-02-09,2023,5,15,0.0,56483.0,-9037.5,0
2023-02-10,2023,5,15,0.0,56483.0,-9037.5,0
2023-02-12,2023,5,15,0.0,56483.0,-9037.5,0
2023-02-13,2023,5,15,0.0,56483.0,-9037.5,0
2023-02-14,2023,5,15,0.0,56483.0,-9037.5,0
2023-02-15,2023,5,15,0.0,56483.0,-9037.5,0
2023-02-16,2023,5,15,0.0,56483.0,-9037.5,0
2023-02-17,2023,5,15,0.0,56483.0,-9037.5,0
2023-02-19,2023,5,15,0.0,56483.0,-9037.5,0
2023-02-20,2023,5,15,0.0,56483.0,-9037.5,0
2023-02-21,2023,5,15,0.0,56483.0,-9037.5,0
2023-02-22,2023,5,15,0.0,56483.0,-9037.5,0
2023-02-23,2023,5,15,0.0,56483.0,-9037.5,0
2023-02-24,2023,5,15,0.0,56483.0,-9037.5,0
2023-02-26,2023,5,15,0.0,56483.0,-9037.5,0
2023-02-27,2023,5,15,0.0,56483.0,-9037.5,0
2023-02-28,2023,5,15,0.0,56483.0,-9037.5,0
2023-03-01,2023,5,15,0.0,56483.0,-9037.5,0
2023-03-02,2023,5,15,0.0,56483.0,-9037.5,0
2023-03-03,2023,5,15,0.0,56483.0,-9037.5,0
2023-03-05,2023,5,15,0.0,56483.0,-9037.5,0
2023-03-06,2023,5,15,0.0,56483.0,-9037.5,0
2023-03-07,2023,5,15,0.0,56483.0,-9037.5,0
2023-03-08,2023,5,15,0.0,56483.0,-9037.5,0
2023-03-09,2023,5,15,0.0,56483.0,-9037.5,0
2023-03-10,2023,5,15,0.0,56483.0,-9037.5,0
2023-03-12,2023,5,15,0.0,56483.0,-9037.5,0
2023-03-13,2023,5,15,0.0,56483.0,-9037.5,0
2023-03-14,2023,5,15,0.0,56483.0,-9037.5,0
2023-03-15,2023,5,15,0.0,56483.0,-9037.5,0
2023-03-16,2023,5,15,0.0,56483.0,-9037.5,0
2023-03-17,2023,5,15,0.0,56483.0,-9037.5,0
2023-03-19,2023,5,15,0.0,56483.0,-9037.5,0
2023-03-20,2023,5,15,0.0,56483.0,-9037.5,0
2023-03-21,2023,5,15,0.0,56483.0,-9037.5,0
2023-03-22,2023,5,15,0.0,56483.0,-9037.5,0
2023-03-23,2023,5,15,0.0,56483.0,-9037.5,0
2023-03-24,2023,5,15,0.0,56483.0,-9037.5,0
2023-03-26,2023,5,15,0.0,56483.0,-9037.5,0
2023-03-27,2023,5,15,0.0,56483.0,-9037.5,0
2023-03-28,2023,5,15,0.0,56483.0,-9037.5,0
2023-03-29,2023,5,15,0.0,56483.0,-9037.5,0
2023-03-30,2023,5,15,0.0,56483.0,-9037.5,0
2023-03-31,2023,5,15,0.0,56483.0,-9037.5,0
2023-04-02,2023,5,15,48.0,56531.0,-8989.5,8
2023-04-03,2023,5,15,1316.0,57847.0,-7673.5,8
2023-04-04,2023,5,15,-736.0,57111.0,-8409.5,8
2023-04-05,2023,5,15,0.0,57111.0,-8409.5,8
2023-04-06,2023,5,15,68.0,57179.0,-8341.5,8
2023-04-07,2023,5,15,404.0,57583.0,-7937.5,8
2023-04-09,2023,5,15,-160.0,57423.0,-8097.5,8
2023-04-10,2023,5,15,464.0,57887.0,-7633.5,8
2023-04-11,2023,5,15,304.0,58191.0,-7329.5,8
2023-04-12,2023,5,15,-268.0,57923.0,-7597.5,8
2023-04-13,2023,5,15,1360.0,59283.0,-6237.5,8
2023-04-14,2023,5,15,-38.0,59245.0,-6275.5,14
2023-04-16,2023,5,15,14.0,59259.0,-6261.5,14
2023-04-17,2023,5,15,182.0,59441.0,-6079.5,14
2023-04-18,2023,5,15,-357.0,59084.0,-6436.5,14
2023-04-19,2023,5,15,-357.0,58727.0,-6793.5,14
2023-04-20,2023,5,15,-812.0,57915.0,-7605.5,14
2023-04-21,2023,5,15,175.0,58090.0,-7430.5,14
2023-04-23,2023,5,15,-609.0,57481.0,-8039.5,14
2023-04-24,2023,5,15,763.0,58244.0,-7276.5,14
2023-04-25,2023,5,15,-1848.0,56396.0,-9124.5,14
2023-04-26,2023,5,15,-1659.0,54737.0,-10783.5,14
2023-04-27,2023,5,15,3045.0,57782.0,-7738.5,14
2023-04-28,2023,5,15,2342.0,60124.0,-5396.5,15
2023-04-30,2023,5,15,-30.0,60094.0,-5426.5,15
2023-05-01,2023,5,15,-472.5,59621.5,-5899.0,15
2023-05-02,2023,5,15,-2422.5,57199.0,-8321.5,15
2023-05-03,2023,5,15,-2235.0,54964.0,-10556.5,15
2023-05-04,2023,5,15,0.0,54964.0,-10556.5,0
2023-05-05,2023,5,15,0.0,54964.0,-10556.5,0
2023-05-07,2023,5,15,0.0,54964.0,-10556.5,0
2023-05-08,2023,5,15,0.0,54964.0,-10556.5,0
2023-05-09,2023,5,15,0.0,54964.0,-10556.5,0
2023-05-10,2023,5,15,0.0,54964.0,-10556.5,0
2023-05-11,2023,5,15,0.0,54964.0,-10556.5,0
2023-05-12,2023,5,15,0.0,54964.0,-10556.5,0
2023-05-14,2023,5,15,0.0,54964.0,-10556.5,0
2023-05-15,2023,5,15,0.0,54964.0,-10556.5,0
2023-05-16,2023,5,15,0.0,54964.0,-10556.5,0
2023-05-17,2023,5,15,0.0,54964.0,-10556.5,0
2023-05-18,2023,5,15,0.0,54964.0,-10556.5,0
2023-05-19,2023,5,15,0.0,54964.0,-10556.5,0
2023-05-21,2023,5,15,0.0,54964.0,-10556.5,0
2023-05-22,2023,5,15,0.0,54964.0,-10556.5,0
2023-05-23,2023,5,15,0.0,54964.0,-10556.5,0
2023-05-24,2023,5,15,0.0,54964.0,-10556.5,0
2023-05-25,2023,5,15,0.0,54964.0,-10556.5,0
2023-05-26,2023,5,15,0.0,54964.0,-10556.5,0
2023-05-28,2023,5,15,0.0,54964.0,-10556.5,0
2023-05-29,2023,5,15,0.0,54964.0,-10556.5,0
2023-05-30,2023,5,15,0.0,54964.0,-10556.5,0
2023-05-31,2023,5,15,0.0,54964.0,-10556.5,0
2023-06-01,2023,5,15,0.0,54964.0,-10556.5,0
2023-06-02,2023,5,15,0.0,54964.0,-10556.5,0
2023-06-04,2023,5,15,60.0,55024.0,-10496.5,8
2023-06-05,2023,5,15,-868.0,54156.0,-11364.5,8
2023-06-06,2023,5,15,0.0,54156.0,-11364.5,0
2023-06-07,2023,5,15,0.0,54156.0,-11364.5,0
2023-06-08,2023,5,15,0.0,54156.0,-11364.5,0
2023-06-09,2023,5,15,264.0,54420.0,-11100.5,8
2023-06-11,2023,5,15,80.0,54500.0,-11020.5,8
2023-06-12,2023,5,15,2000.0,56500.0,-9020.5,8
2023-06-13,2023,5,15,156.0,56656.0,-8864.5,8
2023-06-14,2023,5,15,-728.0,55928.0,-9592.5,8
2023-06-15,2023,5,15,1724.0,57652.0,-7868.5,8
2023-06-16,2023,5,15,-412.0,57240.0,-8280.5,8
2023-06-18,2023,5,15,-208.0,57032.0,-8488.5,8
2023-06-19,2023,5,15,-260.0,56772.0,-8748.5,8
2023-06-20,2023,5,15,-516.0,56256.0,-9264.5,8
2023-06-21,2023,5,15,-488.0,55768.0,-9752.5,8
2023-06-22,2023,5,15,-628.0,55140.0,-10380.5,8
2023-06-23,2023,5,15,-560.0,54580.0,-10940.5,14
2023-06-25,2023,5,15,574.0,55154.0,-10366.5,14
2023-06-26,2023,5,15,-147.0,55007.0,-10513.5,14
2023-06-27,2023,5,15,1022.0,56029.0,-9491.5,14
2023-06-28,2023,5,15,-329.0,55700.0,-9820.5,14
2023-06-29,2023,5,15,1477.0,57177.0,-8343.5,14
2023-06-30,2023,5,15,1904.0,59081.0,-6439.5,14
2023-07-02,2023,5,15,203.0,59284.0,-6236.5,14
2023-07-03,2023,5,15,14.0,59298.0,-6222.5,14
2023-07-04,2023,5,15,-301.0,58997.0,-6523.5,14
2023-07-05,2023,5,15,-1386.0,57611.0,-7909.5,14
2023-07-06,2023,5,15,-1883.0,55728.0,-9792.5,14
2023-07-07,2023,5,15,-1139.0,54589.0,-10931.5,15
2023-07-09,2023,5,15,-592.5,53996.5,-11524.0,15
2023-07-10,2023,5,15,2002.5,55999.0,-9521.5,15
2023-07-11,2023,5,15,2160.0,58159.0,-7361.5,15
2023-07-12,2023,5,15,1275.0,59434.0,-6086.5,15
2023-07-13,2023,5,15,-577.5,58856.5,-6664.0,15
2023-07-14,2023,5,15,900.0,59756.5,-5764.0,15
2023-07-16,2023,5,15,-22.5,59734.0,-5786.5,15
2023-07-17,2023,5,15,727.5,60461.5,-5059.0,15
2023-07-18,2023,5,15,3037.5,63499.0,-2021.5,15
2023-07-19,2023,5,15,712.5,64211.5,-1309.0,15
2023-07-20,2023,5,15,1470.0,65681.5,0.0,15
2023-07-21,2023,5,15,-495.0,65186.5,-495.0,15
2023-07-23,2023,5,15,-22.5,65164.0,-517.5,15
2023-07-24,2023,5,15,1410.0,66574.0,0.0,15
2023-07-25,2023,5,15,37.5,66611.5,0.0,15
2023-07-26,2023,5,15,907.5,67519.0,0.0,15
2023-07-27,2023,5,15,-1867.5,65651.5,-1867.5,15
2023-07-28,2023,5,15,997.5,66649.0,-870.0,15
2023-07-30,2023,5,15,-375.0,66274.0,-1245.0,15
2023-07-31,2023,5,15,1252.5,67526.5,0.0,15
2023-08-01,2023,5,15,-397.5,67129.0,-397.5,15
2023-08-02,2023,5,15,-1305.0,65824.0,-1702.5,15
2023-08-03,2023,5,15,-720.0,65104.0,-2422.5,15
2023-08-04,2023,5,15,-1695.0,63409.0,-4117.5,15
2023-08-06,2023,5,15,817.5,64226.5,-3300.0,15
2023-08-07,2023,5,15,1792.5,66019.0,-1507.5,15
2023-08-08,2023,5,15,-832.5,65186.5,-2340.0,15
2023-08-09,2023,5,15,-337.5,64849.0,-2677.5,15
2023-08-10,2023,5,15,-630.0,64219.0,-3307.5,15
2023-08-11,2023,5,15,862.5,65081.5,-2445.0,15
2023-08-13,2023,5,15,-667.5,64414.0,-3112.5,15
2023-08-14,2023,5,15,832.5,65246.5,-2280.0,15
2023-08-15,2023,5,15,-2797.5,62449.0,-5077.5,15
2023-08-16,2023,5,15,7.5,62456.5,-5070.0,0
2023-08-17,2023,5,15,0.0,62456.5,-5070.0,0
2023-08-18,2023,5,15,0.0,62456.5,-5070.0,0
2023-08-20,2023,5,15,0.0,62456.5,-5070.0,0
2023-08-21,2023,5,15,0.0,62456.5,-5070.0,0
2023-08-22,2023,5,15,0.0,62456.5,-5070.0,0
2023-08-23,2023,5,15,0.0,62456.5,-5070.0,0
2023-08-24,2023,5,15,0.0,62456.5,-5070.0,0
2023-08-25,2023,5,15,0.0,62456.5,-5070.0,0
2023-08-27,2023,5,15,0.0,62456.5,-5070.0,0
2023-08-28,2023,5,15,0.0,62456.5,-5070.0,0
2023-08-29,2023,5,15,0.0,62456.5,-5070.0,0
2023-08-30,2023,5,15,0.0,62456.5,-5070.0,0
2023-08-31,2023,5,15,0.0,62456.5,-5070.0,0
2023-09-01,2023,5,15,0.0,62456.5,-5070.0,0
2023-09-03,2023,5,15,0.0,62456.5,-5070.0,0
2023-09-04,2023,5,15,0.0,62456.5,-5070.0,0
2023-09-05,2023,5,15,0.0,62456.5,-5070.0,0
2023-09-06,2023,5,15,0.0,62456.5,-5070.0,0
2023-09-07,2023,5,15,0.0,62456.5,-5070.0,0
2023-09-08,2023,5,15,0.0,62456.5,-5070.0,0
2023-09-10,2023,5,15,0.0,62456.5,-5070.0,0
2023-09-11,2023,5,15,0.0,62456.5,-5070.0,0
2023-09-12,2023,5,15,0.0,62456.5,-5070.0,0
2023-09-13,2023,5,15,0.0,62456.5,-5070.0,0
2023-09-14,2023,5,15,0.0,62456.5,-5070.0,0
2023-09-15,2023,5,15,-1568.0,60888.5,-6638.0,8
2023-09-17,2023,5,15,-8.0,60880.5,-6646.0,0
2023-09-18,2023,5,15,0.0,60880.5,-6646.0,0
2023-09-19,2023,5,15,0.0,60880.5,-6646.0,0
2023-09-20,2023,5,15,0.0,60880.5,-6646.0,0
2023-09-21,2023,5,15,0.0,60880.5,-6646.0,0
2023-09-22,2023,5,15,0.0,60880.5,-6646.0,0
2023-09-24,2023,5,15,0.0,60880.5,-6646.0,0
2023-09-25,2023,5,15,0.0,60880.5,-6646.0,0
2023-09-26,2023,5,15,0.0,60880.5,-6646.0,0
2023-09-27,2023,5,15,0.0,60880.5,-6646.0,0
2023-09-28,2023,5,15,0.0,60880.5,-6646.0,0
2023-09-29,2023,5,15,0.0,60880.5,-6646.0,0
2023-10-01,2023,5,15,0.0,60880.5,-6646.0,0
2023-10-02,2023,5,15,0.0,60880.5,-6646.0,0
2023-10-03,2023,5,15,0.0,60880.5,-6646.0,0
2023-10-04,2023,5,15,0.0,60880.5,-6646.0,0
2023-10-05,2023,5,15,0.0,60880.5,-6646.0,0
2023-10-06,2023,5,15,0.0,60880.5,-6646.0,0
2023-10-08,2023,5,15,0.0,60880.5,-6646.0,0
2023-10-09,2023,5,15,0.0,60880.5,-6646.0,0
2023-10-10,2023,5,15,0.0,60880.5,-6646.0,0
2023-10-11,2023,5,15,0.0,60880.5,-6646.0,0
2023-10-12,2023,5,15,0.0,60880.5,-6646.0,0
2023-10-13,2023,5,15,0.0,60880.5,-6646.0,0
2023-10-15,2023,5,15,0.0,60880.5,-6646.0,0
2023-10-16,2023,5,15,0.0,60880.5,-6646.0,0
2023-10-17,2023,5,15,0.0,60880.5,-6646.0,0
2023-10-18,2023,5,15,0.0,60880.5,-6646.0,0
2023-10-19,2023,5,15,0.0,60880.5,-6646.0,0
2023-10-20,2023,5,15,0.0,60880.5,-6646.0,0
2023-10-22,2023,5,15,0.0,60880.5,-6646.0,0
2023-10-23,2023,5,15,0.0,60880.5,-6646.0,0
2023-10-24,2023,5,15,0.0,60880.5,-6646.0,0
2023-10-25,2023,5,15,0.0,60880.5,-6646.0,0
2023-10-26,2023,5,15,0.0,60880.5,-6646.0,0
2023-10-27,2023,5,15,0.0,60880.5,-6646.0,0
2023-10-29,2023,5,15,0.0,60880.5,-6646.0,0
2023-10-30,2023,5,15,0.0,60880.5,-6646.0,0
2023-10-31,2023,5,15,0.0,60880.5,-6646.0,0
2023-11-01,2023,5,15,0.0,60880.5,-6646.0,0
2023-11-02,2023,5,15,0.0,60880.5,-6646.0,0
2023-11-03,2023,5,15,860.0,61740.5,-5786.0,8
2023-11-05,2023,5,15,-20.0,61720.5,-5806.0,8
2023-11-06,2023,5,15,-320.0,61400.5,-6126.0,8
2023-11-07,2023,5,15,456.0,61856.5,-5670.0,8
2023-11-08,2023,5,15,-76.0,61780.5,-5746.0,8
2023-11-09,2023,5,15,-716.0,61064.5,-6462.0,8
2023-11-10,2023,5,15,1216.0,62280.5,-5246.0,8
2023-11-12,2023,5,15,-344.0,61936.5,-5590.0,8
2023-11-13,2023,5,15,692.0,62628.5,-4898.0,8
2023-11-14,2023,5,15,2216.0,64844.5,-2682.0,8
2023-11-15,2023,5,15,296.0,65140.5,-2386.0,8
2023-11-16,2023,5,15,176.0,65316.5,-2210.0,8
2023-11-17,2023,5,15,-261.0,65055.5,-2471.0,14
2023-11-19,2023,5,15,84.0,65139.5,-2387.0,14
2023-11-20,2023,5,15,1596.0,66735.5,-791.0,14
2023-11-21,2023,5,15,-357.0,66378.5,-1148.0,14
2023-11-22,2023,5,15,854.0,67232.5,-294.0,14
2023-11-23,2023,5,15,266.0,67498.5,-28.0,14
2023-11-24,2023,5,15,686.0,68184.5,0.0,14
2023-11-26,2023,5,15,-595.0,67589.5,-595.0,14
2023-11-27,2023,5,15,217.0,67806.5,-378.0,14
2023-11-28,2023,5,15,833.0,68639.5,0.0,14
2023-11-29,2023,5,15,819.0,69458.5,0.0,14
2023-11-30,2023,5,15,2905.0,72363.5,0.0,14
2023-12-01,2023,5,15,2075.0,74438.5,0.0,15
2023-12-03,2023,5,15,-157.5,74281.0,-157.5,15
2023-12-04,2023,5,15,-742.5,73538.5,-900.0,15
2023-12-05,2023,5,15,390.0,73928.5,-510.0,15
2023-12-06,2023,5,15,-1297.5,72631.0,-1807.5,15
2023-12-07,2023,5,15,735.0,73366.0,-1072.5,15
2023-12-08,2023,5,15,765.0,74131.0,-307.5,15
2023-12-10,2023,5,15,2655.0,76786.0,0.0,15
2023-12-11,2023,5,15,1350.0,78136.0,0.0,15
2023-12-12,2023,5,15,1432.5,79568.5,0.0,15
2023-12-13,2023,5,15,4365.0,83933.5,0.0,15
2023-12-14,2023,5,15,750.0,84683.5,0.0,15
2023-12-15,2023,5,15,-202.5,84481.0,-202.5,15
2023-12-17,2023,5,15,547.5,85028.5,0.0,15
2023-12-18,2023,5,15,-517.5,84511.0,-517.5,15
2023-12-19,2023,5,15,1980.0,86491.0,0.0,15
2023-12-20,2023,5,15,-3007.5,83483.5,-3007.5,15
2023-12-21,2023,5,15,735.0,84218.5,-2272.5,15
2023-12-22,2023,5,15,540.0,84758.5,-1732.5,15
2023-12-25,2023,5,15,592.5,85351.0,-1140.0,15
2023-12-26,2023,5,15,802.5,86153.5,-337.5,15
2023-12-27,2023,5,15,907.5,87061.0,0.0,15
2023-12-28,2023,5,15,262.5,87323.5,0.0,15
2023-12-29,2023,5,15,-607.5,86716.0,-607.5,15
2024-01-01,2024,11,21,745.5,87461.5,0.0,21
2024-01-02,2024,11,21,-672.0,86789.5,-672.0,21
2024-01-03,2024,11,21,-2593.5,84196.0,-3265.5,21
2024-01-04,2024,11,21,136.5,84332.5,-3129.0,21
2024-01-05,2024,11,21,-294.0,84038.5,-3423.0,21
2024-01-07,2024,11,21,-1270.5,82768.0,-4693.5,21
2024-01-08,2024,11,21,3076.5,85844.5,-1617.0,21
2024-01-09,2024,11,21,-1743.0,84101.5,-3360.0,21
2024-01-10,2024,11,21,2887.5,86989.0,-472.5,21
2024-01-11,2024,11,21,-1050.0,85939.0,-1522.5,21
2024-01-12,2024,11,21,-1417.5,84521.5,-2940.0,21
2024-01-14,2024,11,21,672.0,85193.5,-2268.0,21
2024-01-15,2024,11,21,-1501.5,83692.0,-3769.5,21
2024-01-16,2024,11,21,-1911.0,81781.0,-5680.5,21
2024-01-17,2024,11,21,-798.0,80983.0,-6478.5,21
2024-01-18,2024,11,21,2184.0,83167.0,-4294.5,21
2024-01-19,2024,11,21,4431.0,87598.0,0.0,21
2024-01-21,2024,11,21,577.5,88175.5,0.0,21
2024-01-22,2024,11,21,808.5,88984.0,0.0,21
2024-01-23,2024,11,21,-808.5,88175.5,-808.5,21
2024-01-24,2024,11,21,-588.0,87587.5,-1396.5,21
2024-01-25,2024,11,21,262.5,87850.0,-1134.0,21
2024-01-26,2024,11,21,1806.0,89656.0,0.0,21
2024-01-28,2024,11,21,-514.5,89141.5,-514.5,21
2024-01-29,2024,11,21,2509.5,91651.0,0.0,21
2024-01-30,2024,11,21,2068.5,93719.5,0.0,21
2024-01-31,2024,11,21,-3108.0,90611.5,-3108.0,21
2024-02-01,2024,11,21,3087.0,93698.5,-21.0,21
2024-02-02,2024,11,21,1155.0,94853.5,0.0,21
2024-02-04,2024,11,21,-651.0,94202.5,-651.0,21
2024-02-05,2024,11,21,-2236.5,91966.0,-2887.5,21
2024-02-06,2024,11,21,1669.5,93635.5,-1218.0,21
2024-02-07,2024,11,21,1648.5,95284.0,0.0,21
2024-02-08,2024,11,21,84.0,95368.0,0.0,21
2024-02-09,2024,11,21,-756.0,94612.0,-756.0,21
2024-02-11,2024,11,21,220.5,94832.5,-535.5,21
2024-02-12,2024,11,21,945.0,95777.5,0.0,21
2024-02-13,2024,11,21,-5376.0,90401.5,-5376.0,21
2024-02-14,2024,11,21,1879.5,92281.0,-3496.5,21
2024-02-15,2024,11,21,3171.0,95452.0,-325.5,21
2024-02-16,2024,11,21,-1449.0,94003.0,-1774.5,21
2024-02-18,2024,11,21,630.0,94633.0,-1144.5,21
2024-02-19,2024,11,21,-1407.0,93226.0,-2551.5,21
2024-02-20,2024,11,21,178.5,93404.5,-2373.0,21
2024-02-21,2024,11,21,1291.5,94696.0,-1081.5,21
2024-02-22,2024,11,21,4683.0,99379.0,0.0,21
2024-02-23,2024,11,21,-210.0,99169.0,-210.0,21
2024-02-25,2024,11,21,-115.5,99053.5,-325.5,21
2024-02-26,2024,11,21,-430.5,98623.0,-756.0,21
2024-02-27,2024,11,21,-1176.0,97447.0,-1932.0,21
2024-02-28,2024,11,21,126.0,97573.0,-1806.0,21
2024-02-29,2024,11,21,682.5,98255.5,-1123.5,21
2024-03-01,2024,11,21,168.0,98423.5,-955.5,21
2024-03-03,2024,11,21,42.0,98465.5,-913.5,21
2024-03-04,2024,11,21,-1270.5,97195.0,-2184.0,21
2024-03-05,2024,11,21,-3759.0,93436.0,-5943.0,21
2024-03-06,2024,11,21,577.5,94013.5,-5365.5,21
2024-03-07,2024,11,21,1564.5,95578.0,-3801.0,21
2024-03-08,2024,11,21,-315.0,95263.0,-4116.0,21
2024-03-10,2024,11,21,3717.0,98980.0,-399.0,21
2024-03-11,2024,11,21,1491.0,100471.0,0.0,21
2024-03-12,2024,11,21,1837.5,102308.5,0.0,21
2024-03-13,2024,11,21,997.5,103306.0,0.0,21
2024-03-14,2024,11,21,-2142.0,101164.0,-2142.0,21
2024-03-15,2024,11,21,-2110.5,99053.5,-4252.5,21
2024-03-17,2024,11,21,273.0,99326.5,-3979.5,21
2024-03-18,2024,11,21,399.0,99725.5,-3580.5,21
2024-03-19,2024,11,21,3360.0,103085.5,-220.5,21
2024-03-20,2024,11,21,5565.0,108650.5,0.0,21
2024-03-21,2024,11,21,1753.5,110404.0,0.0,21
2024-03-22,2024,11,21,-4158.0,106246.0,-4158.0,21
2024-03-24,2024,11,21,-189.0,106057.0,-4347.0,21
2024-03-25,2024,11,21,-913.5,105143.5,-5260.5,21
2024-03-26,2024,11,21,724.5,105868.0,-4536.0,21
2024-03-27,2024,11,21,3381.0,109249.0,-1155.0,21
2024-03-28,2024,11,21,315.0,109564.0,-840.0,21
2024-03-31,2024,11,21,1848.0,111412.0,0.0,21
2024-04-01,2024,11,21,-5796.0,105616.0,-5796.0,21
2024-04-02,2024,11,21,-3213.0,102403.0,-9009.0,21
2024-04-03,2024,11,21,808.5,103211.5,-8200.5,21
2024-04-04,2024,11,21,21.0,103232.5,-8179.5,0
2024-04-05,2024,11,21,0.0,103232.5,-8179.5,0
2024-04-07,2024,11,21,0.0,103232.5,-8179.5,0
2024-04-08,2024,11,21,0.0,103232.5,-8179.5,0
2024-04-09,2024,11,21,0.0,103232.5,-8179.5,0
2024-04-10,2024,11,21,0.0,103232.5,-8179.5,0
2024-04-11,2024,11,21,0.0,103232.5,-8179.5,0
2024-04-12,2024,11,21,0.0,103232.5,-8179.5,0
2024-04-14,2024,11,21,0.0,103232.5,-8179.5,0
2024-04-15,2024,11,21,0.0,103232.5,-8179.5,0
2024-04-16,2024,11,21,0.0,103232.5,-8179.5,0
2024-04-17,2024,11,21,0.0,103232.5,-8179.5,0
2024-04-18,2024,11,21,0.0,103232.5,-8179.5,0
2024-04-19,2024,11,21,0.0,103232.5,-8179.5,0
2024-04-21,2024,11,21,0.0,103232.5,-8179.5,0
2024-04-22,2024,11,21,0.0,103232.5,-8179.5,0
2024-04-23,2024,11,21,0.0,103232.5,-8179.5,0
2024-04-24,2024,11,21,0.0,103232.5,-8179.5,0
2024-04-25,2024,11,21,0.0,103232.5,-8179.5,0
2024-04-26,2024,11,21,0.0,103232.5,-8179.5,0
2024-04-28,2024,11,21,0.0,103232.5,-8179.5,0
2024-04-29,2024,11,21,0.0,103232.5,-8179.5,0
2024-04-30,2024,11,21,0.0,103232.5,-8179.5,0
2024-05-01,2024,11,21,0.0,103232.5,-8179.5,0
2024-05-02,2024,11,21,0.0,103232.5,-8179.5,0
2024-05-03,2024,11,21,0.0,103232.5,-8179.5,0
2024-05-05,2024,11,21,0.0,103232.5,-8179.5,0
2024-05-06,2024,11,21,0.0,103232.5,-8179.5,0
2024-05-07,2024,11,21,0.0,103232.5,-8179.5,0
2024-05-08,2024,11,21,0.0,103232.5,-8179.5,0
2024-05-09,2024,11,21,0.0,103232.5,-8179.5,0
2024-05-10,2024,11,21,336.0,103568.5,-7843.5,14
2024-05-12,2024,11,21,161.0,103729.5,-7682.5,14
2024-05-13,2024,11,21,-623.0,103106.5,-8305.5,14
2024-05-14,2024,11,21,-14.0,103092.5,-8319.5,0
2024-05-15,2024,11,21,2842.0,105934.5,-5477.5,14
2024-05-16,2024,11,21,-952.0,104982.5,-6429.5,14
2024-05-17,2024,11,21,1029.0,106011.5,-5400.5,14
2024-05-19,2024,11,21,266.0,106277.5,-5134.5,14
2024-05-20,2024,11,21,-1582.0,104695.5,-6716.5,14
2024-05-21,2024,11,21,476.0,105171.5,-6240.5,14
2024-05-22,2024,11,21,-1134.0,104037.5,-7374.5,14
2024-05-23,2024,11,21,0.0,104037.5,-7374.5,0
2024-05-24,2024,11,21,0.0,104037.5,-7374.5,0
2024-05-26,2024,11,21,0.0,104037.5,-7374.5,0
2024-05-27,2024,11,21,0.0,104037.5,-7374.5,0
2024-05-28,2024,11,21,0.0,104037.5,-7374.5,0
2024-05-29,2024,11,21,0.0,104037.5,-7374.5,0
2024-05-30,2024,11,21,0.0,104037.5,-7374.5,0
2024-05-31,2024,11,21,0.0,104037.5,-7374.5,0
2024-06-02,2024,11,21,0.0,104037.5,-7374.5,0
2024-06-03,2024,11,21,0.0,104037.5,-7374.5,0
2024-06-04,2024,11,21,0.0,104037.5,-7374.5,0
2024-06-05,2024,11,21,0.0,104037.5,-7374.5,0
2024-06-06,2024,11,21,0.0,104037.5,-7374.5,0
2024-06-07,2024,11,21,0.0,104037.5,-7374.5,0
2024-06-09,2024,11,21,0.0,104037.5,-7374.5,0
2024-06-10,2024,11,21,0.0,104037.5,-7374.5,0
2024-06-11,2024,11,21,0.0,104037.5,-7374.5,0
2024-06-12,2024,11,21,0.0,104037.5,-7374.5,0
2024-06-13,2024,11,21,0.0,104037.5,-7374.5,0
2024-06-14,2024,11,21,0.0,104037.5,-7374.5,0
2024-06-16,2024,11,21,0.0,104037.5,-7374.5,0
2024-06-17,2024,11,21,0.0,104037.5,-7374.5,0
2024-06-18,2024,11,21,-63.0,103974.5,-7437.5,14
2024-06-19,2024,11,21,14.0,103988.5,-7423.5,0
2024-06-20,2024,11,21,0.0,103988.5,-7423.5,0
2024-06-21,2024,11,21,42.0,104030.5,-7381.5,14
2024-06-23,2024,11,21,-574.0,103456.5,-7955.5,14
2024-06-24,2024,11,21,2891.0,106347.5,-5064.5,14
2024-06-25,2024,11,21,-2807.0,103540.5,-7871.5,14
2024-06-26,2024,11,21,-665.0,102875.5,-8536.5,14
2024-06-27,2024,11,21,938.0,103813.5,-7598.5,14
2024-06-28,2024,11,21,-182.0,103631.5,-7780.5,14
2024-06-30,2024,11,21,-42.0,103589.5,-7822.5,14
2024-07-01,2024,11,21,-511.0,103078.5,-8333.5,14
2024-07-02,2024,11,21,1351.0,104429.5,-6982.5,14
2024-07-03,2024,11,21,-63.0,104366.5,-7045.5,14
2024-07-04,2024,11,21,336.0,104702.5,-6709.5,14
2024-07-05,2024,11,21,-283.5,104419.0,-6993.0,21
2024-07-07,2024,11,21,-231.0,104188.0,-7224.0,21
2024-07-08,2024,11,21,955.5,105143.5,-6268.5,21
2024-07-09,2024,11,21,-1522.5,103621.0,-7791.0,21
2024-07-10,2024,11,21,4819.5,108440.5,-2971.5,21
2024-07-11,2024,11,21,735.0,109175.5,-2236.5,21
2024-07-12,2024,11,21,2278.5,111454.0,0.0,21
2024-07-14,2024,11,21,441.0,111895.0,0.0,21
2024-07-15,2024,11,21,2110.5,114005.5,0.0,21
2024-07-16,2024,11,21,7549.5,121555.0,0.0,21
2024-07-17,2024,11,21,3213.0,124768.0,0.0,21
2024-07-18,2024,11,21,-6447.0,118321.0,-6447.0,21
2024-07-19,2024,11,21,-4546.5,113774.5,-10993.5,21
2024-07-21,2024,11,21,336.0,114110.5,-10657.5,21
2024-07-22,2024,11,21,735.0,114845.5,-9922.5,21
2024-07-23,2024,11,21,-1354.5,113491.0,-11277.0,21
2024-07-24,2024,11,21,31.5,113522.5,-11245.5,0
2024-07-25,2024,11,21,0.0,113522.5,-11245.5,0
2024-07-26,2024,11,21,0.0,113522.5,-11245.5,0
2024-07-28,2024,11,21,0.0,113522.5,-11245.5,0
2024-07-29,2024,11,21,0.0,113522.5,-11245.5,0
2024-07-30,2024,11,21,0.0,113522.5,-11245.5,0
2024-07-31,2024,11,21,0.0,113522.5,-11245.5,0
2024-08-01,2024,11,21,0.0,113522.5,-11245.5,0
2024-08-02,2024,11,21,0.0,113522.5,-11245.5,0
2024-08-04,2024,11,21,0.0,113522.5,-11245.5,0
2024-08-05,2024,11,21,0.0,113522.5,-11245.5,0
2024-08-06,2024,11,21,0.0,113522.5,-11245.5,0
2024-08-07,2024,11,21,0.0,113522.5,-11245.5,0
2024-08-08,2024,11,21,0.0,113522.5,-11245.5,0
2024-08-09,2024,11,21,0.0,113522.5,-11245.5,0
2024-08-11,2024,11,21,0.0,113522.5,-11245.5,0
2024-08-12,2024,11,21,0.0,113522.5,-11245.5,0
2024-08-13,2024,11,21,0.0,113522.5,-11245.5,0
2024-08-14,2024,11,21,0.0,113522.5,-11245.5,0
2024-08-15,2024,11,21,0.0,113522.5,-11245.5,0
2024-08-16,2024,11,21,406.0,113928.5,-10839.5,14
2024-08-18,2024,11,21,49.0,113977.5,-10790.5,14
2024-08-19,2024,11,21,1337.0,115314.5,-9453.5,14
2024-08-20,2024,11,21,14.0,115328.5,-9439.5,14
2024-08-21,2024,11,21,-238.0,115090.5,-9677.5,14
2024-08-22,2024,11,21,-497.0,114593.5,-10174.5,14
2024-08-23,2024,11,21,2604.0,117197.5,-7570.5,14
2024-08-25,2024,11,21,-245.0,116952.5,-7815.5,14
2024-08-26,2024,11,21,532.0,117484.5,-7283.5,14
2024-08-27,2024,11,21,301.0,117785.5,-6982.5,14
2024-08-28,2024,11,21,-581.0,117204.5,-7563.5,14
2024-08-29,2024,11,21,1225.0,118429.5,-6338.5,14
2024-08-30,2024,11,21,1683.5,120113.0,-4655.0,21
2024-09-01,2024,11,21,-199.5,119913.5,-4854.5,21
2024-09-02,2024,11,21,-430.5,119483.0,-5285.0,21
2024-09-03,2024,11,21,-7245.0,112238.0,-12530.0,21
2024-09-04,2024,11,21,1333.5,113571.5,-11196.5,21
2024-09-05,2024,11,21,-1722.0,111849.5,-12918.5,21
2024-09-06,2024,11,21,-31.5,111818.0,-12950.0,0
2024-09-08,2024,11,21,0.0,111818.0,-12950.0,0
2024-09-09,2024,11,21,0.0,111818.0,-12950.0,0
2024-09-10,2024,11,21,0.0,111818.0,-12950.0,0
2024-09-11,2024,11,21,0.0,111818.0,-12950.0,0
2024-09-12,2024,11,21,0.0,111818.0,-12950.0,0
2024-09-13,2024,11,21,0.0,111818.0,-12950.0,0
2024-09-15,2024,11,21,0.0,111818.0,-12950.0,0
2024-09-16,2024,11,21,0.0,111818.0,-12950.0,0
2024-09-17,2024,11,21,350.0,112168.0,-12600.0,14
2024-09-18,2024,11,21,763.0,112931.0,-11837.0,14
2024-09-19,2024,11,21,1764.0,114695.0,-10073.0,14
2024-09-20,2024,11,21,7.0,114702.0,-10066.0,14
2024-09-22,2024,11,21,497.0,115199.0,-9569.0,14
2024-09-23,2024,11,21,-581.0,114618.0,-10150.0,14
2024-09-24,2024,11,21,588.0,115206.0,-9562.0,14
2024-09-25,2024,11,21,-938.0,114268.0,-10500.0,14
2024-09-26,2024,11,21,1134.0,115402.0,-9366.0,14
2024-09-27,2024,11,21,399.0,115801.0,-8967.0,21
2024-09-29,2024,11,21,556.5,116357.5,-8410.5,21
2024-09-30,2024,11,21,-462.0,115895.5,-8872.5,21
2024-10-01,2024,11,21,-2236.5,113659.0,-11109.0,21
2024-10-02,2024,11,21,451.5,114110.5,-10657.5,21
2024-10-03,2024,11,21,-1575.0,112535.5,-12232.5,21
2024-10-04,2024,11,21,3360.0,115895.5,-8872.5,21
2024-10-06,2024,11,21,42.0,115937.5,-8830.5,21
2024-10-07,2024,11,21,-4431.0,111506.5,-13261.5,21
2024-10-08,2024,11,21,1260.0,112766.5,-12001.5,21
2024-10-09,2024,11,21,5250.0,118016.5,-6751.5,21
2024-10-10,2024,11,21,-798.0,117218.5,-7549.5,21
2024-10-11,2024,11,21,3633.0,120851.5,-3916.5,21
2024-10-13,2024,11,21,420.0,121271.5,-3496.5,21
2024-10-14,2024,11,21,2898.0,124169.5,-598.5,21
2024-10-15,2024,11,21,-4252.5,119917.0,-4851.0,21
2024-10-16,2024,11,21,2814.0,122731.0,-2037.0,21
2024-10-17,2024,11,21,2068.5,124799.5,0.0,21
2024-10-18,2024,11,21,567.0,125366.5,0.0,21
2024-10-20,2024,11,21,126.0,125492.5,0.0,21
2024-10-21,2024,11,21,-4546.5,120946.0,-4546.5,21
2024-10-22,2024,11,21,-819.0,120127.0,-5365.5,21
2024-10-23,2024,11,21,-3801.0,116326.0,-9166.5,21
2024-10-24,2024,11,21,-934.5,115391.5,-10101.0,21
2024-10-25,2024,11,21,31.5,115423.0,-10069.5,0
2024-10-27,2024,11,21,0.0,115423.0,-10069.5,0
2024-10-28,2024,11,21,0.0,115423.0,-10069.5,0
2024-10-29,2024,11,21,0.0,115423.0,-10069.5,0
2024-10-30,2024,11,21,0.0,115423.0,-10069.5,0
2024-10-31,2024,11,21,0.0,115423.0,-10069.5,0
2024-11-01,2024,11,21,0.0,115423.0,-10069.5,0
2024-11-03,2024,11,21,0.0,115423.0,-10069.5,0
2024-11-04,2024,11,21,0.0,115423.0,-10069.5,0
2024-11-05,2024,11,21,0.0,115423.0,-10069.5,0
2024-11-06,2024,11,21,0.0,115423.0,-10069.5,0
2024-11-07,2024,11,21,-784.0,114639.0,-10853.5,14
2024-11-08,2024,11,21,0.0,114639.0,-10853.5,0
2024-11-10,2024,11,21,154.0,114793.0,-10699.5,14
2024-11-11,2024,11,21,1512.0,116305.0,-9187.5,14
2024-11-12,2024,11,21,-2618.0,113687.0,-11805.5,14
2024-11-13,2024,11,21,455.0,114142.0,-11350.5,14
2024-11-14,2024,11,21,-1995.0,112147.0,-13345.5,14
2024-11-15,2024,11,21,7.0,112154.0,-13338.5,0
2024-11-17,2024,11,21,0.0,112154.0,-13338.5,0
2024-11-18,2024,11,21,0.0,112154.0,-13338.5,0
2024-11-19,2024,11,21,0.0,112154.0,-13338.5,0
2024-11-20,2024,11,21,0.0,112154.0,-13338.5,0
2024-11-21,2024,11,21,0.0,112154.0,-13338.5,0
2024-11-22,2024,11,21,0.0,112154.0,-13338.5,0
2024-11-24,2024,11,21,1050.0,113204.0,-12288.5,14
2024-11-25,2024,11,21,1316.0,114520.0,-10972.5,14
2024-11-26,2024,11,21,994.0,115514.0,-9978.5,14
2024-11-27,2024,11,21,-651.0,114863.0,-10629.5,14
2024-11-28,2024,11,21,574.0,115437.0,-10055.5,14
2024-11-29,2024,11,21,630.0,116067.0,-9425.5,14
2024-12-01,2024,11,21,-560.0,115507.0,-9985.5,14
2024-12-02,2024,11,21,-546.0,114961.0,-10531.5,14
2024-12-03,2024,11,21,315.0,115276.0,-10216.5,14
2024-12-04,2024,11,21,1015.0,116291.0,-9201.5,14
2024-12-05,2024,11,21,-1834.0,114457.0,-11035.5,14
2024-12-06,2024,11,21,-1001.0,113456.0,-12036.5,21
2024-12-08,2024,11,21,-220.5,113235.5,-12257.0,21
2024-12-09,2024,11,21,-2205.0,111030.5,-14462.0,21
2024-12-10,2024,11,21,-1449.0,109581.5,-15911.0,21
2024-12-11,2024,11,21,-1995.0,107586.5,-17906.0,21
2024-12-12,2024,11,21,-1564.5,106022.0,-19470.5,21
2024-12-13,2024,11,21,10.5,106032.5,-19460.0,0
2024-12-15,2024,11,21,0.0,106032.5,-19460.0,0
2024-12-16,2024,11,21,0.0,106032.5,-19460.0,0
2024-12-17,2024,11,21,0.0,106032.5,-19460.0,0
2024-12-18,2024,11,21,0.0,106032.5,-19460.0,0
2024-12-19,2024,11,21,0.0,106032.5,-19460.0,0
2024-12-20,2024,11,21,0.0,106032.5,-19460.0,0
2024-12-22,2024,11,21,0.0,106032.5,-19460.0,0
2024-12-23,2024,11,21,0.0,106032.5,-19460.0,0
2024-12-24,2024,11,21,0.0,106032.5,-19460.0,0
2024-12-25,2024,11,21,0.0,106032.5,-19460.0,0
2024-12-26,2024,11,21,0.0,106032.5,-19460.0,0
2024-12-27,2024,11,21,0.0,106032.5,-19460.0,0
2024-12-29,2024,11,21,0.0,106032.5,-19460.0,0
2024-12-30,2024,11,21,0.0,106032.5,-19460.0,0
2024-12-31,2024,11,21,0.0,106032.5,-19460.0,0
2025-01-01,2025,15,25,0.0,106032.5,-19460.0,0
2025-01-02,2025,15,25,0.0,106032.5,-19460.0,0
2025-01-03,2025,15,25,0.0,106032.5,-19460.0,0
2025-01-05,2025,15,25,0.0,106032.5,-19460.0,0
2025-01-06,2025,15,25,0.0,106032.5,-19460.0,0
2025-01-07,2025,15,25,0.0,106032.5,-19460.0,0
2025-01-08,2025,15,25,0.0,106032.5,-19460.0,0
2025-01-09,2025,15,25,0.0,106032.5,-19460.0,0
2025-01-10,2025,15,25,0.0,106032.5,-19460.0,0
2025-01-12,2025,15,25,0.0,106032.5,-19460.0,0
2025-01-13,2025,15,25,0.0,106032.5,-19460.0,0
2025-01-14,2025,15,25,0.0,106032.5,-19460.0,0
2025-01-15,2025,15,25,0.0,106032.5,-19460.0,0
2025-01-16,2025,15,25,-639.0,105393.5,-20099.0,18
2025-01-17,2025,15,25,45.0,105438.5,-20054.0,0
2025-01-19,2025,15,25,234.0,105672.5,-19820.0,18
2025-01-20,2025,15,25,981.0,106653.5,-18839.0,18
2025-01-21,2025,15,25,4023.0,110676.5,-14816.0,18
2025-01-22,2025,15,25,693.0,111369.5,-14123.0,18
2025-01-23,2025,15,25,3438.0,114807.5,-10685.0,18
2025-01-24,2025,15,25,-1215.0,113592.5,-11900.0,18
2025-01-26,2025,15,25,-1431.0,112161.5,-13331.0,18
2025-01-27,2025,15,25,3600.0,115761.5,-9731.0,18
2025-01-28,2025,15,25,1746.0,117507.5,-7985.0,18
2025-01-29,2025,15,25,-387.0,117120.5,-8372.0,18
2025-01-30,2025,15,25,1026.0,118146.5,-7346.0,18
2025-01-31,2025,15,25,-3762.0,114384.5,-11108.0,25
2025-02-02,2025,15,25,-8500.0,105884.5,-19608.0,25
2025-02-03,2025,15,25,7150.0,113034.5,-12458.0,25
2025-02-04,2025,15,25,37.5,113072.0,-12420.5,25
2025-02-05,2025,15,25,6175.0,119247.0,-6245.5,25
2025-02-06,2025,15,25,-3225.0,116022.0,-9470.5,25
2025-02-07,2025,15,25,-5150.0,110872.0,-14620.5,25
2025-02-09,2025,15,25,887.5,111759.5,-13733.0,25
2025-02-10,2025,15,25,275.0,112034.5,-13458.0,25
2025-02-11,2025,15,25,2150.0,114184.5,-11308.0,25
2025-02-12,2025,15,25,-1750.0,112434.5,-13058.0,25
2025-02-13,2025,15,25,4012.5,116447.0,-9045.5,25
2025-02-14,2025,15,25,-2812.5,113634.5,-11858.0,25
2025-02-16,2025,15,25,487.5,114122.0,-11370.5,25
2025-02-17,2025,15,25,62.5,114184.5,-11308.0,25
2025-02-18,2025,15,25,37.5,114222.0,-11270.5,25
2025-02-19,2025,15,25,-887.5,113334.5,-12158.0,25
2025-02-20,2025,15,25,-4400.0,108934.5,-16558.0,25
2025-02-21,2025,15,25,25.0,108959.5,-16533.0,0
2025-02-23,2025,15,25,0.0,108959.5,-16533.0,0
2025-02-24,2025,15,25,0.0,108959.5,-16533.0,0
2025-02-25,2025,15,25,0.0,108959.5,-16533.0,0
2025-02-26,2025,15,25,0.0,108959.5,-16533.0,0
2025-02-27,2025,15,25,0.0,108959.5,-16533.0,0
2025-02-28,2025,15,25,0.0,108959.5,-16533.0,0
2025-03-02,2025,15,25,0.0,108959.5,-16533.0,0
2025-03-03,2025,15,25,0.0,108959.5,-16533.0,0
2025-03-04,2025,15,25,0.0,108959.5,-16533.0,0
2025-03-05,2025,15,25,0.0,108959.5,-16533.0,0
2025-03-06,2025,15,25,0.0,108959.5,-16533.0,0
2025-03-07,2025,15,25,0.0,108959.5,-16533.0,0
2025-03-09,2025,15,25,0.0,108959.5,-16533.0,0
2025-03-10,2025,15,25,0.0,108959.5,-16533.0,0
2025-03-11,2025,15,25,0.0,108959.5,-16533.0,0
2025-03-12,2025,15,25,0.0,108959.5,-16533.0,0
2025-03-13,2025,15,25,0.0,108959.5,-16533.0,0
2025-03-14,2025,15,25,0.0,108959.5,-16533.0,0
2025-03-16,2025,15,25,0.0,108959.5,-16533.0,0
2025-03-17,2025,15,25,0.0,108959.5,-16533.0,0
2025-03-18,2025,15,25,0.0,108959.5,-16533.0,0
2025-03-19,2025,15,25,0.0,108959.5,-16533.0,0
2025-03-20,2025,15,25,0.0,108959.5,-16533.0,0
2025-03-21,2025,15,25,0.0,108959.5,-16533.0,0
2025-03-23,2025,15,25,0.0,108959.5,-16533.0,0
2025-03-24,2025,15,25,0.0,108959.5,-16533.0,0
2025-03-25,2025,15,25,0.0,108959.5,-16533.0,0
2025-03-26,2025,15,25,0.0,108959.5,-16533.0,0
2025-03-27,2025,15,25,0.0,108959.5,-16533.0,0
2025-03-28,2025,15,25,0.0,108959.5,-16533.0,0
2025-03-30,2025,15,25,0.0,108959.5,-16533.0,0
2025-03-31,2025,15,25,0.0,108959.5,-16533.0,0
2025-04-01,2025,15,25,0.0,108959.5,-16533.0,0
2025-04-02,2025,15,25,0.0,108959.5,-16533.0,0
2025-04-03,2025,15,25,0.0,108959.5,-16533.0,0
2025-04-04,2025,15,25,0.0,108959.5,-16533.0,0
2025-04-06,2025,15,25,0.0,108959.5,-16533.0,0
2025-04-07,2025,15,25,0.0,108959.5,-16533.0,0
2025-04-08,2025,15,25,0.0,108959.5,-16533.0,0
2025-04-09,2025,15,25,0.0,108959.5,-16533.0,0
2025-04-10,2025,15,25,-9414.0,99545.5,-25947.0,18
2025-04-11,2025,15,25,27.0,99572.5,-25920.0,0
2025-04-13,2025,15,25,0.0,99572.5,-25920.0,0
2025-04-14,2025,15,25,0.0,99572.5,-25920.0,0
2025-04-15,2025,15,25,0.0,99572.5,-25920.0,0
2025-04-16,2025,15,25,0.0,99572.5,-25920.0,0
2025-04-17,2025,15,25,0.0,99572.5,-25920.0,0
2025-04-20,2025,15,25,0.0,99572.5,-25920.0,0
2025-04-21,2025,15,25,0.0,99572.5,-25920.0,0
2025-04-22,2025,15,25,0.0,99572.5,-25920.0,0
2025-04-23,2025,15,25,0.0,99572.5,-25920.0,0
2025-04-24,2025,15,25,0.0,99572.5,-25920.0,0
2025-04-25,2025,15,25,0.0,99572.5,-25920.0,0
2025-04-27,2025,15,25,0.0,99572.5,-25920.0,0
2025-04-28,2025,15,25,0.0,99572.5,-25920.0,0
2025-04-29,2025,15,25,0.0,99572.5,-25920.0,0
2025-04-30,2025,15,25,0.0,99572.5,-25920.0,0
2025-05-01,2025,15,25,1764.0,101336.5,-24156.0,18
2025-05-02,2025,15,25,2106.0,103442.5,-22050.0,18
2025-05-04,2025,15,25,-2529.0,100913.5,-24579.0,18
2025-05-05,2025,15,25,1242.0,102155.5,-23337.0,18
2025-05-06,2025,15,25,-1377.0,100778.5,-24714.0,18
2025-05-07,2025,15,25,2700.0,103478.5,-22014.0,18
2025-05-08,2025,15,25,315.0,103793.5,-21699.0,18
2025-05-09,2025,15,25,-818.0,102975.5,-22517.0,25
2025-05-11,2025,15,25,5187.5,108163.0,-17329.5,25
2025-05-12,2025,15,25,7425.0,115588.0,-9904.5,25
2025-05-13,2025,15,25,-1800.0,113788.0,-11704.5,25
2025-05-14,2025,15,25,-3512.5,110275.5,-15217.0,25
2025-05-15,2025,15,25,5462.5,115738.0,-9754.5,25
2025-05-16,2025,15,25,1875.0,117613.0,-7879.5,25
2025-05-18,2025,15,25,-1712.5,115900.5,-9592.0,25
2025-05-19,2025,15,25,5312.5,121213.0,-4279.5,25
2025-05-20,2025,15,25,-2187.5,119025.5,-6467.0,25
2025-05-21,2025,15,25,-8875.0,110150.5,-15342.0,25
2025-05-22,2025,15,25,162.5,110313.0,-15179.5,25
2025-05-23,2025,15,25,-3612.5,106700.5,-18792.0,25
2025-05-25,2025,15,25,4637.5,111338.0,-14154.5,25
2025-05-26,2025,15,25,-550.0,110788.0,-14704.5,25
2025-05-27,2025,15,25,4850.0,115638.0,-9854.5,25
2025-05-28,2025,15,25,3925.0,119563.0,-5929.5,25
2025-05-29,2025,15,25,-6025.0,113538.0,-11954.5,25
2025-05-30,2025,15,25,712.5,114250.5,-11242.0,25
2025-06-01,2025,15,25,-1700.0,112550.5,-12942.0,25
2025-06-02,2025,15,25,1037.5,113588.0,-11904.5,25
2025-06-03,2025,15,25,4325.0,117913.0,-7579.5,25
2025-06-04,2025,15,25,-1125.0,116788.0,-8704.5,25
2025-06-05,2025,15,25,125.0,116913.0,-8579.5,25
2025-06-06,2025,15,25,4275.0,121188.0,-4304.5,25
2025-06-08,2025,15,25,-1100.0,120088.0,-5404.5,25
2025-06-09,2025,15,25,2212.5,122300.5,-3192.0,25
2025-06-10,2025,15,25,-1337.5,120963.0,-4529.5,25
2025-06-11,2025,15,25,-712.5,120250.5,-5242.0,25
2025-06-12,2025,15,25,-4300.0,115950.5,-9542.0,25
2025-06-13,2025,15,25,-2950.0,113000.5,-12492.0,25
2025-06-15,2025,15,25,4625.0,117625.5,-7867.0,25
2025-06-16,2025,15,25,2275.0,119900.5,-5592.0,25
2025-06-17,2025,15,25,-2137.5,117763.0,-7729.5,25
2025-06-18,2025,15,25,-1225.0,116538.0,-8954.5,25
2025-06-19,2025,15,25,-787.5,115750.5,-9742.0,25
2025-06-20,2025,15,25,2187.5,117938.0,-7554.5,25
2025-06-22,2025,15,25,-2337.5,115600.5,-9892.0,25
2025-06-23,2025,15,25,9237.5,124838.0,-654.5,25
2025-06-24,2025,15,25,3712.5,128550.5,0.0,25
2025-06-25,2025,15,25,-1000.0,127550.5,-1000.0,25
2025-06-26,2025,15,25,5700.0,133250.5,0.0,25
2025-06-27,2025,15,25,5625.0,138875.5,0.0,25
2025-06-29,2025,15,25,1550.0,140425.5,0.0,25
2025-06-30,2025,15,25,-225.0,140200.5,-225.0,25
2025-07-01,2025,15,25,6450.0,146650.5,0.0,25
2025-07-02,2025,15,25,-812.5,145838.0,-812.5,25
2025-07-03,2025,15,25,2300.0,148138.0,0.0,25
2025-07-04,2025,15,25,-1837.5,146300.5,-1837.5,25
2025-07-06,2025,15,25,1675.0,147975.5,-162.5,25
2025-07-07,2025,15,25,-4312.5,143663.0,-4475.0,25
2025-07-08,2025,15,25,-2062.5,141600.5,-6537.5,25
2025-07-09,2025,15,25,1837.5,143438.0,-4700.0,25
2025-07-10,2025,15,25,1987.5,145425.5,-2712.5,25
2025-07-11,2025,15,25,-2650.0,142775.5,-5362.5,25
2025-07-13,2025,15,25,-1925.0,140850.5,-7287.5,25
2025-07-14,2025,15,25,3162.5,144013.0,-4125.0,25
2025-07-15,2025,15,25,-6100.0,137913.0,-10225.0,25
2025-07-16,2025,15,25,2700.0,140613.0,-7525.0,25
2025-07-17,2025,15,25,5137.5,145750.5,-2387.5,25
2025-07-18,2025,15,25,-3275.0,142475.5,-5662.5,25
2025-07-20,2025,15,25,450.0,142925.5,-5212.5,25
2025-07-21,2025,15,25,237.5,143163.0,-4975.0,25
2025-07-22,2025,15,25,2900.0,146063.0,-2075.0,25
2025-07-23,2025,15,25,3250.0,149313.0,0.0,25
2025-07-24,2025,15,25,-687.5,148625.5,-687.5,25
2025-07-25,2025,15,25,712.5,149338.0,0.0,25
2025-07-27,2025,15,25,2162.5,151500.5,0.0,25
2025-07-28,2025,15,25,-2587.5,148913.0,-2587.5,25
2025-07-29,2025,15,25,-2537.5,146375.5,-5125.0,25
2025-07-30,2025,15,25,-1175.0,145200.5,-6300.0,25
2025-07-31,2025,15,25,-6387.5,138813.0,-12687.5,25
2025-08-01,2025,15,25,-37.5,138775.5,-12725.0,0
2025-08-03,2025,15,25,0.0,138775.5,-12725.0,0
2025-08-04,2025,15,25,0.0,138775.5,-12725.0,0
2025-08-05,2025,15,25,0.0,138775.5,-12725.0,0
2025-08-06,2025,15,25,0.0,138775.5,-12725.0,0
2025-08-07,2025,15,25,0.0,138775.5,-12725.0,0
2025-08-08,2025,15,25,0.0,138775.5,-12725.0,0
2025-08-10,2025,15,25,0.0,138775.5,-12725.0,0
2025-08-11,2025,15,25,0.0,138775.5,-12725.0,0
2025-08-12,2025,15,25,0.0,138775.5,-12725.0,0
2025-08-13,2025,15,25,0.0,138775.5,-12725.0,0
2025-08-14,2025,15,25,0.0,138775.5,-12725.0,0
2025-08-15,2025,15,25,-2475.0,136300.5,-15200.0,18
2025-08-17,2025,15,25,54.0,136354.5,-15146.0,0
2025-08-18,2025,15,25,0.0,136354.5,-15146.0,0
2025-08-19,2025,15,25,0.0,136354.5,-15146.0,0
2025-08-20,2025,15,25,0.0,136354.5,-15146.0,0
2025-08-21,2025,15,25,0.0,136354.5,-15146.0,0
2025-08-22,2025,15,25,0.0,136354.5,-15146.0,0
2025-08-24,2025,15,25,-549.0,135805.5,-15695.0,18
2025-08-25,2025,15,25,-3339.0,132466.5,-19034.0,18
2025-08-26,2025,15,25,2142.0,134608.5,-16892.0,18
2025-08-27,2025,15,25,1746.0,136354.5,-15146.0,18
2025-08-28,2025,15,25,-774.0,135580.5,-15920.0,18
2025-08-29,2025,15,25,-72.0,135508.5,-15992.0,18
2025-08-31,2025,15,25,-279.0,135229.5,-16271.0,18
2025-09-01,2025,15,25,-81.0,135148.5,-16352.0,18
2025-09-02,2025,15,25,-3429.0,131719.5,-19781.0,18
2025-09-03,2025,15,25,-18.0,131701.5,-19799.0,0
2025-09-04,2025,15,25,0.0,131701.5,-19799.0,0
2025-09-05,2025,15,25,-2124.0,129577.5,-21923.0,18
2025-09-07,2025,15,25,369.0,129946.5,-21554.0,18
2025-09-08,2025,15,25,1062.0,131008.5,-20492.0,18
2025-09-09,2025,15,25,783.0,131791.5,-19709.0,18
2025-09-10,2025,15,25,-1251.0,130540.5,-20960.0,18
2025-09-11,2025,15,25,5202.0,135742.5,-15758.0,18
2025-09-12,2025,15,25,-2646.0,133096.5,-18404.0,18
2025-09-14,2025,15,25,3231.0,136327.5,-15173.0,18
2025-09-15,2025,15,25,639.0,136966.5,-14534.0,18
2025-09-16,2025,15,25,-1773.0,135193.5,-16307.0,18
2025-09-17,2025,15,25,3717.0,138910.5,-12590.0,18
2025-09-18,2025,15,25,549.0,139459.5,-12041.0,18
2025-09-19,2025,15,25,146.5,139606.0,-11894.5,25
2025-09-21,2025,15,25,-100.0,139506.0,-11994.5,25
2025-09-22,2025,15,25,1525.0,141031.0,-10469.5,25
2025-09-23,2025,15,25,-500.0,140531.0,-10969.5,25
2025-09-24,2025,15,25,-1887.5,138643.5,-12857.0,25
2025-09-25,2025,15,25,-3212.5,135431.0,-16069.5,25
2025-09-26,2025,15,25,3537.5,138968.5,-12532.0,25
2025-09-28,2025,15,25,1425.0,140393.5,-11107.0,25
2025-09-29,2025,15,25,-862.5,139531.0,-11969.5,25
2025-09-30,2025,15,25,-1312.5,138218.5,-13282.0,25
2025-10-01,2025,15,25,2675.0,140893.5,-10607.0,25
2025-10-02,2025,15,25,2175.0,143068.5,-8432.0,25
2025-10-03,2025,15,25,1925.0,144993.5,-6507.0,25
2025-10-05,2025,15,25,1100.0,146093.5,-5407.0,25
2025-10-06,2025,15,25,-3287.5,142806.0,-8694.5,25
2025-10-07,2025,15,25,512.5,143318.5,-8182.0,25
2025-10-08,2025,15,25,-1150.0,142168.5,-9332.0,25
2025-10-09,2025,15,25,-2137.5,140031.0,-11469.5,25
2025-10-10,2025,15,25,12.5,140043.5,-11457.0,0
2025-10-12,2025,15,25,0.0,140043.5,-11457.0,0
2025-10-13,2025,15,25,0.0,140043.5,-11457.0,0
2025-10-14,2025,15,25,0.0,140043.5,-11457.0,0
2025-10-15,2025,15,25,0.0,140043.5,-11457.0,0
2025-10-16,2025,15,25,0.0,140043.5,-11457.0,0
2025-10-17,2025,15,25,0.0,140043.5,-11457.0,0
2025-10-19,2025,15,25,0.0,140043.5,-11457.0,0
2025-10-20,2025,15,25,0.0,140043.5,-11457.0,0
2025-10-21,2025,15,25,0.0,140043.5,-11457.0,0
2025-10-22,2025,15,25,0.0,140043.5,-11457.0,0
2025-10-23,2025,15,25,0.0,140043.5,-11457.0,0
2025-10-24,2025,15,25,0.0,140043.5,-11457.0,0
2025-10-26,2025,15,25,-99.0,139944.5,-11556.0,18
2025-10-27,2025,15,25,9.0,139953.5,-11547.0,0
2025-10-28,2025,15,25,1170.0,141123.5,-10377.0,18
2025-10-29,2025,15,25,324.0,141447.5,-10053.0,18
2025-10-30,2025,15,25,-1602.0,139845.5,-11655.0,18
2025-10-31,2025,15,25,252.0,140097.5,-11403.0,18
2025-11-02,2025,15,25,387.0,140484.5,-11016.0,18
2025-11-03,2025,15,25,-4212.0,136272.5,-15228.0,18
2025-11-04,2025,15,25,27.0,136299.5,-15201.0,0
2025-11-05,2025,15,25,0.0,136299.5,-15201.0,0
2025-11-06,2025,15,25,0.0,136299.5,-15201.0,0
2025-11-07,2025,15,25,0.0,136299.5,-15201.0,0
2025-11-09,2025,15,25,0.0,136299.5,-15201.0,0
2025-11-10,2025,15,25,0.0,136299.5,-15201.0,0
2025-11-11,2025,15,25,0.0,136299.5,-15201.0,0
2025-11-12,2025,15,25,3681.0,139980.5,-11520.0,18
2025-11-13,2025,15,25,-8343.0,131637.5,-19863.0,18
2025-11-14,2025,15,25,27.0,131664.5,-19836.0,0
2025-11-16,2025,15,25,0.0,131664.5,-19836.0,0
2025-11-17,2025,15,25,0.0,131664.5,-19836.0,0
2025-11-18,2025,15,25,0.0,131664.5,-19836.0,0
2025-11-19,2025,15,25,0.0,131664.5,-19836.0,0
2025-11-20,2025,15,25,0.0,131664.5,-19836.0,0
2025-11-21,2025,15,25,0.0,131664.5,-19836.0,0
2025-11-23,2025,15,25,0.0,131664.5,-19836.0,0
2025-11-24,2025,15,25,0.0,131664.5,-19836.0,0
2025-11-25,2025,15,25,0.0,131664.5,-19836.0,0
2025-11-26,2025,15,25,0.0,131664.5,-19836.0,0
2025-11-27,2025,15,25,0.0,131664.5,-19836.0,0
2025-11-28,2025,15,25,0.0,131664.5,-19836.0,0
2025-11-30,2025,15,25,0.0,131664.5,-19836.0,0
2025-12-01,2025,15,25,0.0,131664.5,-19836.0,0
2025-12-02,2025,15,25,0.0,131664.5,-19836.0,0
2025-12-03,2025,15,25,0.0,131664.5,-19836.0,0
2025-12-04,2025,15,25,-711.0,130953.5,-20547.0,18
2025-12-05,2025,15,25,9.0,130962.5,-20538.0,0
2025-12-07,2025,15,25,0.0,130962.5,-20538.0,0
2025-12-08,2025,15,25,0.0,130962.5,-20538.0,0
2025-12-09,2025,15,25,0.0,130962.5,-20538.0,0
2025-12-10,2025,15,25,0.0,130962.5,-20538.0,0
2025-12-11,2025,15,25,0.0,130962.5,-20538.0,0
2025-12-12,2025,15,25,-2952.0,128010.5,-23490.0,18
2025-12-14,2025,15,25,4554.0,132564.5,-18936.0,18
2025-12-15,2025,15,25,-2691.0,129873.5,-21627.0,18
2025-12-16,2025,15,25,-2763.0,127110.5,-24390.0,18
2025-12-17,2025,15,25,-1836.0,125274.5,-26226.0,18
2025-12-18,2025,15,25,171.0,125445.5,-26055.0,18
2025-12-19,2025,15,25,2313.0,127758.5,-23742.0,18
2025-12-21,2025,15,25,90.0,127848.5,-23652.0,18
2025-12-22,2025,15,25,1287.0,129135.5,-22365.0,18
2025-12-23,2025,15,25,720.0,129855.5,-21645.0,18
2025-12-24,2025,15,25,2673.0,132528.5,-18972.0,18
2025-12-25,2025,15,25,135.0,132663.5,-18837.0,18
2025-12-26,2025,15,25,-193.0,132470.5,-19030.0,25
2025-12-28,2025,15,25,-125.0,132345.5,-19155.0,25
2025-12-29,2025,15,25,-3000.0,129345.5,-22155.0,25
2025-12-30,2025,15,25,-1587.5,127758.0,-23742.5,25
2025-12-31,2025,15,25,-3562.5,124195.5,-27305.0,25
2026-01-01,2026,19,29,1551.5,125747.0,-25753.5,29
2026-01-02,2026,19,29,2146.0,127893.0,-23607.5,29
2026-01-04,2026,19,29,478.5,128371.5,-23129.0,29
2026-01-05,2026,19,29,8903.0,137274.5,-14226.0,29
2026-01-06,2026,19,29,7989.5,145264.0,-6236.5,29
2026-01-07,2026,19,29,-9294.5,135969.5,-15531.0,29
2026-01-08,2026,19,29,4988.0,140957.5,-10543.0,29
2026-01-09,2026,19,29,3378.5,144336.0,-7164.5,29
2026-01-11,2026,19,29,-3697.5,140638.5,-10862.0,29
2026-01-12,2026,19,29,4654.5,145293.0,-6207.5,29
2026-01-13,2026,19,29,-7583.5,137709.5,-13791.0,29
2026-01-14,2026,19,29,377.0,138086.5,-13414.0,29
2026-01-15,2026,19,29,6438.0,144524.5,-6976.0,29
2026-01-16,2026,19,29,-2769.5,141755.0,-9745.5,29
2026-01-18,2026,19,29,-5495.5,136259.5,-15241.0,29
2026-01-19,2026,19,29,-1392.0,134867.5,-16633.0,29
2026-01-20,2026,19,29,-4582.0,130285.5,-21215.0,29
2026-01-21,2026,19,29,8584.0,138869.5,-12631.0,29
2026-01-22,2026,19,29,3480.0,142349.5,-9151.0,29
2026-01-23,2026,19,29,-6046.5,136303.0,-15197.5,29
2026-01-25,2026,19,29,-638.0,135665.0,-15835.5,29
2026-01-26,2026,19,29,5539.0,141204.0,-10296.5,29
2026-01-27,2026,19,29,-5394.0,135810.0,-15690.5,29
2026-01-28,2026,19,29,-304.5,135505.5,-15995.0,29
2026-01-29,2026,19,29,-2117.0,133388.5,-18112.0,29
2026-01-30,2026,19,29,43.5,133432.0,-18068.5,29
2026-02-01,2026,19,29,-4814.0,128618.0,-22882.5,29
2026-02-02,2026,19,29,13311.0,141929.0,-9571.5,29
2026-02-03,2026,19,29,-2392.5,139536.5,-11964.0,29
2026-02-04,2026,19,29,1885.0,141421.5,-10079.0,29
2026-02-05,2026,19,29,-9541.0,131880.5,-19620.0,29
2026-02-06,2026,19,29,19241.5,151122.0,-378.5,29
2026-02-08,2026,19,29,1160.0,152282.0,0.0,29
2026-02-09,2026,19,29,-652.5,151629.5,-652.5,29
2026-02-10,2026,19,29,2262.0,153891.5,0.0,29
2026-02-11,2026,19,29,-609.0,153282.5,-609.0,29
2026-02-12,2026,19,29,-12368.5,140914.0,-12977.5,29
2026-02-13,2026,19,29,391.5,141305.5,-12586.0,29
2026-02-15,2026,19,29,1682.0,142987.5,-10904.0,29
2026-02-16,2026,19,29,-3103.0,139884.5,-14007.0,29
2026-02-17,2026,19,29,3219.0,143103.5,-10788.0,29
2026-02-18,2026,19,29,725.0,143828.5,-10063.0,29
2026-02-19,2026,19,29,-2610.0,141218.5,-12673.0,29
2026-02-20,2026,19,29,2334.5,143553.0,-10338.5,29
2026-02-22,2026,19,29,-4683.5,138869.5,-15022.0,29
2026-02-23,2026,19,29,-6119.0,132750.5,-21141.0,29
2026-02-24,2026,19,29,4306.5,137057.0,-16834.5,29
2026-02-25,2026,19,29,3088.5,140145.5,-13746.0,29
2026-02-26,2026,19,29,-2204.0,137941.5,-15950.0,29
2026-02-27,2026,19,29,-5597.0,132344.5,-21547.0,29
2026-03-01,2026,19,29,-5669.5,126675.0,-27216.5,0
2026-03-02,2026,19,29,0.0,126675.0,-27216.5,0
2026-03-03,2026,19,29,0.0,126675.0,-27216.5,0
2026-03-04,2026,19,29,0.0,126675.0,-27216.5,0
2026-03-05,2026,19,29,0.0,126675.0,-27216.5,0
2026-03-06,2026,19,29,0.0,126675.0,-27216.5,0
2026-03-08,2026,19,29,0.0,126675.0,-27216.5,0
