date,realized_points,open_unrealized_points,total_equity_points,open_units,direction
2019-05-05,0.0,0.0,0.0,0,
2019-05-06,0.0,0.0,0.0,0,
2019-05-07,0.0,0.0,0.0,0,
2019-05-08,0.0,0.0,0.0,0,
2019-05-09,0.0,0.0,0.0,0,
2019-05-10,0.0,0.0,0.0,0,
2019-05-12,0.0,0.0,0.0,0,
2019-05-13,0.0,0.0,0.0,0,
2019-05-14,0.0,0.0,0.0,0,
2019-05-15,0.0,0.0,0.0,0,
2019-05-16,0.0,0.0,0.0,0,
2019-05-17,0.0,0.0,0.0,0,
2019-05-19,0.0,0.0,0.0,0,
2019-05-20,0.0,0.0,0.0,0,
2019-05-21,0.0,0.0,0.0,0,
2019-05-22,0.0,0.0,0.0,0,
2019-05-23,0.0,0.0,0.0,0,
2019-05-24,0.0,0.0,0.0,0,
2019-05-26,0.0,0.0,0.0,0,
2019-05-27,0.0,0.0,0.0,0,
2019-05-28,0.0,0.0,0.0,0,
2019-05-29,0.0,0.0,0.0,0,
2019-05-30,0.0,0.0,0.0,0,
2019-05-31,0.0,0.0,0.0,0,
2019-06-02,0.0,0.0,0.0,0,
2019-06-03,0.0,0.0,0.0,0,
2019-06-04,0.0,0.0,0.0,0,
2019-06-05,0.0,0.0,0.0,0,
2019-06-06,0.0,0.0,0.0,0,
2019-06-07,0.0,0.0,0.0,0,
2019-06-09,0.0,0.0,0.0,0,
2019-06-10,0.0,0.0,0.0,0,
2019-06-11,0.0,0.0,0.0,0,
2019-06-12,0.0,0.0,0.0,0,
2019-06-13,0.0,0.0,0.0,0,
2019-06-14,0.0,0.0,0.0,0,
2019-06-16,0.0,0.0,0.0,0,
2019-06-17,0.0,0.0,0.0,0,
2019-06-18,0.0,0.0,0.0,0,
2019-06-19,0.0,0.0,0.0,0,
2019-06-20,0.0,0.0,0.0,0,
2019-06-21,0.0,0.0,0.0,0,
2019-06-23,0.0,0.0,0.0,0,
2019-06-24,0.0,0.0,0.0,0,
2019-06-25,0.0,0.0,0.0,0,
2019-06-26,0.0,0.0,0.0,0,
2019-06-27,0.0,0.0,0.0,0,
2019-06-28,0.0,0.0,0.0,0,
2019-06-30,0.0,0.0,0.0,0,
2019-07-01,0.0,0.0,0.0,0,
2019-07-02,0.0,0.0,0.0,0,
2019-07-03,0.0,0.0,0.0,0,
2019-07-04,0.0,0.0,0.0,0,
2019-07-05,0.0,0.0,0.0,0,
2019-07-07,0.0,0.0,0.0,0,
2019-07-08,0.0,0.0,0.0,0,
2019-07-09,0.0,0.0,0.0,0,
2019-07-10,0.0,0.0,0.0,0,
2019-07-11,0.0,0.0,0.0,0,
2019-07-12,0.0,0.0,0.0,0,
2019-07-14,0.0,0.0,0.0,0,
2019-07-15,0.0,0.0,0.0,0,
2019-07-16,0.0,0.0,0.0,0,
2019-07-17,0.0,0.0,0.0,0,
2019-07-18,0.0,0.0,0.0,0,
2019-07-19,0.0,0.0,0.0,0,
2019-07-21,0.0,0.0,0.0,0,
2019-07-22,0.0,0.0,0.0,0,
2019-07-23,0.0,0.0,0.0,0,
2019-07-24,0.0,0.0,0.0,0,
2019-07-25,0.0,0.0,0.0,0,
2019-07-26,0.0,0.0,0.0,0,
2019-07-28,0.0,0.0,0.0,0,
2019-07-29,0.0,0.0,0.0,0,
2019-07-30,0.0,0.0,0.0,0,
2019-07-31,0.0,0.0,0.0,0,
2019-08-01,0.0,0.0,0.0,0,
2019-08-02,0.0,0.0,0.0,0,
2019-08-04,0.0,0.0,0.0,0,
2019-08-05,0.0,0.0,0.0,0,
2019-08-06,0.0,0.0,0.0,0,
2019-08-07,0.0,0.0,0.0,0,
2019-08-08,0.0,0.0,0.0,0,
2019-08-09,0.0,0.0,0.0,0,
2019-08-11,0.0,0.0,0.0,0,
2019-08-12,0.0,0.0,0.0,0,
2019-08-13,0.0,0.0,0.0,0,
2019-08-14,0.0,0.0,0.0,0,
2019-08-15,0.0,0.0,0.0,0,
2019-08-16,0.0,0.0,0.0,0,
2019-08-18,0.0,0.0,0.0,0,
2019-08-19,0.0,0.0,0.0,0,
2019-08-20,0.0,0.0,0.0,0,
2019-08-21,0.0,0.0,0.0,0,
2019-08-22,0.0,0.0,0.0,0,
2019-08-23,0.0,0.0,0.0,0,
2019-08-25,0.0,0.0,0.0,0,
2019-08-26,0.0,0.0,0.0,0,
2019-08-27,0.0,0.0,0.0,0,
2019-08-28,0.0,0.0,0.0,0,
2019-08-29,0.0,0.0,0.0,0,
2019-08-30,0.0,0.0,0.0,0,
2019-09-01,0.0,0.0,0.0,0,
2019-09-02,0.0,0.0,0.0,0,
2019-09-03,0.0,0.0,0.0,0,
2019-09-04,0.0,0.0,0.0,0,
2019-09-05,0.0,0.0,0.0,0,
2019-09-06,0.0,0.0,0.0,0,
2019-09-08,0.0,0.0,0.0,0,
2019-09-09,0.0,0.0,0.0,0,
2019-09-10,0.0,0.0,0.0,0,
2019-09-11,0.0,0.0,0.0,0,
2019-09-12,0.0,0.0,0.0,0,
2019-09-13,0.0,0.0,0.0,0,
2019-09-15,0.0,0.0,0.0,0,
2019-09-16,0.0,0.0,0.0,0,
2019-09-17,0.0,0.0,0.0,0,
2019-09-18,0.0,0.0,0.0,0,
2019-09-19,0.0,0.0,0.0,0,
2019-09-20,0.0,0.0,0.0,0,
2019-09-22,0.0,0.0,0.0,0,
2019-09-23,0.0,0.0,0.0,0,
2019-09-24,0.0,0.0,0.0,0,
2019-09-25,0.0,0.0,0.0,0,
2019-09-26,0.0,0.0,0.0,0,
2019-09-27,0.0,0.0,0.0,0,
2019-09-29,0.0,0.0,0.0,0,
2019-09-30,0.0,0.0,0.0,0,
2019-10-01,0.0,0.0,0.0,0,
2019-10-02,0.0,0.0,0.0,0,
2019-10-03,0.0,0.0,0.0,0,
2019-10-04,0.0,0.0,0.0,0,
2019-10-06,0.0,0.0,0.0,0,
2019-10-07,0.0,0.0,0.0,0,
2019-10-08,0.0,0.0,0.0,0,
2019-10-09,0.0,0.0,0.0,0,
2019-10-10,0.0,0.0,0.0,0,
2019-10-11,0.0,0.0,0.0,0,
2019-10-13,0.0,0.0,0.0,0,
2019-10-14,0.0,0.0,0.0,0,
2019-10-15,0.0,0.0,0.0,0,
2019-10-16,0.0,0.0,0.0,0,
2019-10-17,0.0,0.0,0.0,0,
2019-10-18,0.0,0.0,0.0,0,
2019-10-20,0.0,0.0,0.0,0,
2019-10-21,0.0,0.0,0.0,0,
2019-10-22,0.0,0.0,0.0,0,
2019-10-23,0.0,0.0,0.0,0,
2019-10-24,0.0,0.0,0.0,0,
2019-10-25,0.0,0.0,0.0,0,
2019-10-27,0.0,0.0,0.0,0,
2019-10-28,0.0,0.0,0.0,0,
2019-10-29,0.0,0.0,0.0,0,
2019-10-30,0.0,0.0,0.0,0,
2019-10-31,0.0,0.0,0.0,0,
2019-11-01,0.0,0.0,0.0,0,
2019-11-03,0.0,0.0,0.0,0,
2019-11-04,0.0,0.0,0.0,0,
2019-11-05,0.0,0.0,0.0,0,
2019-11-06,0.0,0.0,0.0,0,
2019-11-07,0.0,0.0,0.0,0,
2019-11-08,0.0,0.0,0.0,0,
2019-11-10,0.0,0.0,0.0,0,
2019-11-11,0.0,0.0,0.0,0,
2019-11-12,0.0,0.0,0.0,0,
2019-11-13,0.0,0.0,0.0,0,
2019-11-14,0.0,0.0,0.0,0,
2019-11-15,0.0,0.0,0.0,0,
2019-11-17,0.0,0.0,0.0,0,
2019-11-18,0.0,0.0,0.0,0,
2019-11-19,0.0,0.0,0.0,0,
2019-11-20,0.0,0.0,0.0,0,
2019-11-21,0.0,0.0,0.0,0,
2019-11-22,0.0,0.0,0.0,0,
2019-11-24,0.0,0.0,0.0,0,
2019-11-25,0.0,0.0,0.0,0,
2019-11-26,0.0,0.0,0.0,0,
2019-11-27,0.0,0.0,0.0,0,
2019-11-28,0.0,0.0,0.0,0,
2019-11-29,0.0,0.0,0.0,0,
2019-12-01,0.0,0.0,0.0,0,
2019-12-02,0.0,0.0,0.0,0,
2019-12-03,0.0,0.0,0.0,0,
2019-12-04,0.0,0.0,0.0,0,
2019-12-05,0.0,0.0,0.0,0,
2019-12-06,0.0,0.0,0.0,0,
2019-12-08,0.0,0.0,0.0,0,
2019-12-09,0.0,0.0,0.0,0,
2019-12-10,0.0,0.0,0.0,0,
2019-12-11,0.0,0.0,0.0,0,
2019-12-12,0.0,0.0,0.0,0,
2019-12-13,0.0,0.0,0.0,0,
2019-12-15,0.0,0.0,0.0,0,
2019-12-16,0.0,0.0,0.0,0,
2019-12-17,0.0,0.0,0.0,0,
2019-12-18,0.0,0.0,0.0,0,
2019-12-19,0.0,0.0,0.0,0,
2019-12-20,0.0,0.0,0.0,0,
2019-12-22,0.0,0.0,0.0,0,
2019-12-23,0.0,0.0,0.0,0,
2019-12-24,0.0,0.0,0.0,0,
2019-12-25,0.0,0.0,0.0,0,
2019-12-26,0.0,0.0,0.0,0,
2019-12-27,0.0,0.0,0.0,0,
2019-12-29,0.0,0.0,0.0,0,
2019-12-30,0.0,0.0,0.0,0,
2019-12-31,0.0,0.0,0.0,0,
2020-01-01,0.0,0.0,0.0,0,
2020-01-02,0.0,0.0,0.0,0,
2020-01-03,0.0,0.0,0.0,0,
2020-01-05,0.0,0.0,0.0,0,
2020-01-06,0.0,0.0,0.0,0,
2020-01-07,0.0,0.0,0.0,0,
2020-01-08,0.0,0.0,0.0,0,
2020-01-09,0.0,0.0,0.0,0,
2020-01-10,0.0,0.0,0.0,0,
2020-01-12,0.0,0.0,0.0,0,
2020-01-13,0.0,0.0,0.0,0,
2020-01-14,0.0,0.0,0.0,0,
2020-01-15,0.0,0.0,0.0,0,
2020-01-16,0.0,0.0,0.0,0,
2020-01-17,0.0,0.0,0.0,0,
2020-01-19,0.0,0.0,0.0,0,
2020-01-20,0.0,0.0,0.0,0,
2020-01-21,0.0,0.0,0.0,0,
2020-01-22,0.0,0.0,0.0,0,
2020-01-23,0.0,0.0,0.0,0,
2020-01-24,0.0,0.0,0.0,0,
2020-01-26,0.0,0.0,0.0,0,
2020-01-27,0.0,0.0,0.0,0,
2020-01-28,0.0,0.0,0.0,0,
2020-01-29,0.0,0.0,0.0,0,
2020-01-30,0.0,0.0,0.0,0,
2020-01-31,0.0,0.0,0.0,0,
2020-02-02,0.0,0.0,0.0,0,
2020-02-03,0.0,0.0,0.0,0,
2020-02-04,0.0,0.0,0.0,0,
2020-02-05,0.0,0.0,0.0,0,
2020-02-06,0.0,0.0,0.0,0,
2020-02-07,0.0,0.0,0.0,0,
2020-02-09,0.0,0.0,0.0,0,
2020-02-10,0.0,0.0,0.0,0,
2020-02-11,0.0,0.0,0.0,0,
2020-02-12,0.0,0.0,0.0,0,
2020-02-13,0.0,0.0,0.0,0,
2020-02-14,0.0,0.0,0.0,0,
2020-02-16,0.0,0.0,0.0,0,
2020-02-17,0.0,0.0,0.0,0,
2020-02-18,0.0,0.0,0.0,0,
2020-02-19,0.0,0.0,0.0,0,
2020-02-20,0.0,0.0,0.0,0,
2020-02-21,0.0,0.0,0.0,0,
2020-02-23,0.0,0.0,0.0,0,
2020-02-24,0.0,0.0,0.0,0,
2020-02-25,0.0,0.0,0.0,0,
2020-02-26,0.0,0.0,0.0,0,
2020-02-27,0.0,0.0,0.0,0,
2020-02-28,0.0,0.0,0.0,0,
2020-03-01,0.0,0.0,0.0,0,
2020-03-02,0.0,0.0,0.0,0,
2020-03-03,0.0,0.0,0.0,0,
2020-03-04,0.0,0.0,0.0,0,
2020-03-05,0.0,0.0,0.0,0,
2020-03-06,0.0,0.0,0.0,0,
2020-03-08,0.0,0.0,0.0,0,
2020-03-09,0.0,0.0,0.0,0,
2020-03-10,0.0,0.0,0.0,0,
2020-03-11,0.0,0.0,0.0,0,
2020-03-12,0.0,0.0,0.0,0,
2020-03-13,0.0,0.0,0.0,0,
2020-03-15,0.0,0.0,0.0,0,
2020-03-16,0.0,0.0,0.0,0,
2020-03-17,0.0,0.0,0.0,0,
2020-03-18,0.0,0.0,0.0,0,
2020-03-19,0.0,0.0,0.0,0,
2020-03-20,0.0,0.0,0.0,0,
2020-03-22,0.0,0.0,0.0,0,
2020-03-23,0.0,0.0,0.0,0,
2020-03-24,0.0,0.0,0.0,0,
2020-03-25,0.0,0.0,0.0,0,
2020-03-26,0.0,0.0,0.0,0,
2020-03-27,0.0,0.0,0.0,0,
2020-03-29,0.0,0.0,0.0,0,
2020-03-30,0.0,0.0,0.0,0,
2020-03-31,0.0,0.0,0.0,0,
2020-04-01,0.0,0.0,0.0,0,
2020-04-02,0.0,0.0,0.0,0,
2020-04-03,0.0,0.0,0.0,0,
2020-04-05,0.0,0.0,0.0,0,
2020-04-06,0.0,0.0,0.0,0,
2020-04-07,0.0,0.0,0.0,0,
2020-04-08,0.0,0.0,0.0,0,
2020-04-09,0.0,0.0,0.0,0,
2020-04-12,0.0,0.0,0.0,0,
2020-04-13,0.0,0.0,0.0,0,
2020-04-14,0.0,0.0,0.0,0,
2020-04-15,0.0,0.0,0.0,0,
2020-04-16,0.0,0.0,0.0,0,
2020-04-17,0.0,0.0,0.0,0,
2020-04-19,0.0,0.0,0.0,0,
2020-04-20,0.0,0.0,0.0,0,
2020-04-21,0.0,0.0,0.0,0,
2020-04-22,0.0,0.0,0.0,0,
2020-04-23,0.0,0.0,0.0,0,
2020-04-24,0.0,0.0,0.0,0,
2020-04-26,0.0,0.0,0.0,0,
2020-04-27,0.0,0.0,0.0,0,
2020-04-28,0.0,0.0,0.0,0,
2020-04-29,0.0,0.0,0.0,0,
2020-04-30,0.0,0.0,0.0,0,
2020-05-01,0.0,0.0,0.0,0,
2020-05-03,0.0,0.0,0.0,0,
2020-05-04,0.0,0.0,0.0,0,
2020-05-05,0.0,0.0,0.0,0,
2020-05-06,0.0,0.0,0.0,0,
2020-05-07,0.0,0.0,0.0,0,
2020-05-08,0.0,0.0,0.0,0,
2020-05-10,0.0,0.0,0.0,0,
2020-05-11,0.0,0.0,0.0,0,
2020-05-12,0.0,0.0,0.0,0,
2020-05-13,0.0,0.0,0.0,0,
2020-05-14,0.0,0.0,0.0,0,
2020-05-15,0.0,0.0,0.0,0,
2020-05-17,0.0,0.0,0.0,0,
2020-05-18,0.0,0.0,0.0,0,
2020-05-19,0.0,0.0,0.0,0,
2020-05-20,0.0,0.0,0.0,0,
2020-05-21,0.0,0.0,0.0,0,
2020-05-22,0.0,0.0,0.0,0,
2020-05-24,0.0,0.0,0.0,0,
2020-05-25,0.0,0.0,0.0,0,
2020-05-26,0.0,0.0,0.0,0,
2020-05-27,0.0,0.0,0.0,0,
2020-05-28,0.0,0.0,0.0,0,
2020-05-29,0.0,0.0,0.0,0,
2020-05-31,0.0,0.0,0.0,0,
2020-06-01,0.0,0.0,0.0,0,
2020-06-02,0.0,0.0,0.0,0,
2020-06-03,0.0,0.0,0.0,0,
2020-06-04,0.0,0.0,0.0,0,
2020-06-05,0.0,0.0,0.0,0,
2020-06-07,0.0,0.0,0.0,0,
2020-06-08,0.0,0.0,0.0,0,
2020-06-09,0.0,0.0,0.0,0,
2020-06-10,0.0,0.0,0.0,0,
2020-06-11,0.0,0.0,0.0,0,
2020-06-12,0.0,0.0,0.0,0,
2020-06-14,0.0,0.0,0.0,0,
2020-06-15,0.0,0.0,0.0,0,
2020-06-16,0.0,0.0,0.0,0,
2020-06-17,0.0,0.0,0.0,0,
2020-06-18,0.0,0.0,0.0,0,
2020-06-19,0.0,0.0,0.0,0,
2020-06-21,0.0,0.0,0.0,0,
2020-06-22,0.0,0.0,0.0,0,
2020-06-23,0.0,0.0,0.0,0,
2020-06-24,0.0,0.0,0.0,0,
2020-06-25,0.0,0.0,0.0,0,
2020-06-26,0.0,0.0,0.0,0,
2020-06-28,0.0,0.0,0.0,0,
2020-06-29,0.0,0.0,0.0,0,
2020-06-30,0.0,0.0,0.0,0,
2020-07-01,0.0,0.0,0.0,0,
2020-07-02,0.0,0.0,0.0,0,
2020-07-03,0.0,0.0,0.0,0,
2020-07-05,0.0,0.0,0.0,0,
2020-07-06,0.0,0.0,0.0,0,
2020-07-07,0.0,0.0,0.0,0,
2020-07-08,0.0,0.0,0.0,0,
2020-07-09,0.0,0.0,0.0,0,
2020-07-10,0.0,0.0,0.0,0,
2020-07-12,0.0,0.0,0.0,0,
2020-07-13,0.0,0.0,0.0,0,
2020-07-14,0.0,0.0,0.0,0,
2020-07-15,0.0,0.0,0.0,0,
2020-07-16,0.0,0.0,0.0,0,
2020-07-17,0.0,0.0,0.0,0,
2020-07-19,0.0,0.0,0.0,0,
2020-07-20,0.0,0.0,0.0,0,
2020-07-21,0.0,0.0,0.0,0,
2020-07-22,0.0,0.0,0.0,0,
2020-07-23,0.0,0.0,0.0,0,
2020-07-24,0.0,0.0,0.0,0,
2020-07-26,0.0,0.0,0.0,0,
2020-07-27,0.0,0.0,0.0,0,
2020-07-28,0.0,0.0,0.0,0,
2020-07-29,0.0,0.0,0.0,0,
2020-07-30,0.0,0.0,0.0,0,
2020-07-31,0.0,0.0,0.0,0,
2020-08-02,0.0,0.0,0.0,0,
2020-08-03,0.0,0.0,0.0,0,
2020-08-04,0.0,0.0,0.0,0,
2020-08-05,0.0,0.0,0.0,0,
2020-08-06,0.0,0.0,0.0,0,
2020-08-07,0.0,0.0,0.0,0,
2020-08-09,0.0,0.0,0.0,0,
2020-08-10,0.0,0.0,0.0,0,
2020-08-11,0.0,0.0,0.0,0,
2020-08-12,0.0,0.0,0.0,0,
2020-08-13,0.0,0.0,0.0,0,
2020-08-14,0.0,0.0,0.0,0,
2020-08-16,0.0,0.0,0.0,0,
2020-08-17,0.0,0.0,0.0,0,
2020-08-18,0.0,0.0,0.0,0,
2020-08-19,0.0,0.0,0.0,0,
2020-08-20,0.0,0.0,0.0,0,
2020-08-21,0.0,0.0,0.0,0,
2020-08-23,0.0,0.0,0.0,0,
2020-08-24,0.0,0.0,0.0,0,
2020-08-25,0.0,0.0,0.0,0,
2020-08-26,0.0,0.0,0.0,0,
2020-08-27,0.0,0.0,0.0,0,
2020-08-28,0.0,0.0,0.0,0,
2020-08-30,0.0,0.0,0.0,0,
2020-08-31,0.0,0.0,0.0,0,
2020-09-01,0.0,0.0,0.0,0,
2020-09-02,0.0,0.0,0.0,0,
2020-09-03,0.0,0.0,0.0,0,
2020-09-04,0.0,0.0,0.0,0,
2020-09-06,0.0,0.0,0.0,0,
2020-09-07,0.0,0.0,0.0,0,
2020-09-08,0.0,0.0,0.0,0,
2020-09-09,0.0,0.0,0.0,0,
2020-09-10,0.0,0.0,0.0,0,
2020-09-11,0.0,0.0,0.0,0,
2020-09-13,0.0,0.0,0.0,0,
2020-09-14,0.0,0.0,0.0,0,
2020-09-15,0.0,0.0,0.0,0,
2020-09-16,0.0,0.0,0.0,0,
2020-09-17,0.0,0.0,0.0,0,
2020-09-18,0.0,0.0,0.0,0,
2020-09-20,0.0,0.0,0.0,0,
2020-09-21,0.0,0.0,0.0,0,
2020-09-22,0.0,0.0,0.0,0,
2020-09-23,0.0,0.0,0.0,0,
2020-09-24,0.0,0.0,0.0,0,
2020-09-25,0.0,0.0,0.0,0,
2020-09-27,0.0,0.0,0.0,0,
2020-09-28,0.0,0.0,0.0,0,
2020-09-29,0.0,0.0,0.0,0,
2020-09-30,0.0,0.0,0.0,0,
2020-10-01,0.0,0.0,0.0,0,
2020-10-02,0.0,0.0,0.0,0,
2020-10-04,0.0,0.0,0.0,0,
2020-10-05,0.0,0.0,0.0,0,
2020-10-06,0.0,0.0,0.0,0,
2020-10-07,0.0,0.0,0.0,0,
2020-10-08,0.0,0.0,0.0,0,
2020-10-09,0.0,0.0,0.0,0,
2020-10-11,0.0,14.75,14.75,1,Long
2020-10-12,0.0,380.5,380.5,1,Long
2020-10-13,0.0,386.0,386.0,1,Long
2020-10-14,0.0,232.25,232.25,1,Long
2020-10-15,0.0,186.75,186.75,1,Long
2020-10-16,0.0,64.5,64.5,1,Long
2020-10-18,0.0,144.25,144.25,1,Long
2020-10-19,0.0,-13.75,-13.75,1,Long
2020-10-20,-13.5,0.0,-13.5,0,
2020-10-21,-13.5,0.0,-13.5,0,
2020-10-22,-13.5,0.0,-13.5,0,
2020-10-23,-13.5,0.0,-13.5,0,
2020-10-25,-13.5,0.0,-13.5,0,
2020-10-26,-13.5,0.0,-13.5,0,
2020-10-27,-13.5,0.0,-13.5,0,
2020-10-28,-13.5,0.0,-13.5,0,
2020-10-29,-13.5,0.0,-13.5,0,
2020-10-30,-13.5,0.0,-13.5,0,
2020-11-01,-13.5,0.0,-13.5,0,
2020-11-02,-13.5,0.0,-13.5,0,
2020-11-03,-13.5,0.0,-13.5,0,
2020-11-04,-13.5,478.0,464.5,1,Long
2020-11-05,-13.5,749.75,736.25,1,Long
2020-11-06,-13.5,777.75,764.25,1,Long
2020-11-08,-13.5,915.5,902.0,1,Long
2020-11-09,-13.5,537.25,523.75,1,Long
2020-11-10,-13.5,280.5,267.0,1,Long
2020-11-11,-13.5,579.5,566.0,1,Long
2020-11-12,-13.5,534.5,521.0,1,Long
2020-11-13,-13.5,642.0,628.5,2,Long
2020-11-15,-13.5,840.5,827.0,2,Long
2020-11-16,-13.5,847.0,833.5,2,Long
2020-11-17,-13.5,708.0,694.5,2,Long
2020-11-18,-13.5,510.5,497.0,2,Long
2020-11-19,-13.5,624.5,611.0,2,Long
2020-11-20,-13.5,572.0,558.5,2,Long
2020-11-22,-13.5,612.5,599.0,2,Long
2020-11-23,-13.5,653.5,640.0,2,Long
2020-11-24,-13.5,1002.0,988.5,2,Long
2020-11-25,-13.5,1109.0,1095.5,2,Long
2020-11-26,-13.5,1059.0,1045.5,2,Long
2020-11-27,-13.5,1297.0,1283.5,4,Long
2020-11-29,-13.5,1470.0,1456.5,4,Long
2020-11-30,-13.5,1598.0,1584.5,4,Long
2020-12-01,-13.5,2006.0,1992.5,4,Long
2020-12-02,-13.5,2067.0,2053.5,4,Long
2020-12-03,-13.5,2143.0,2129.5,4,Long
2020-12-04,-13.5,2243.0,2229.5,4,Long
2020-12-06,-13.5,2381.0,2367.5,4,Long
2020-12-07,-13.5,2503.0,2489.5,4,Long
2020-12-08,-13.5,2791.0,2777.5,4,Long
2020-12-09,-13.5,1655.0,1641.5,4,Long
2020-12-10,-13.5,1815.0,1801.5,4,Long
2020-12-11,-13.5,1719.5,1706.0,6,Long
2020-12-13,-13.5,2019.5,2006.0,6,Long
2020-12-14,-13.5,2397.5,2384.0,6,Long
2020-12-15,-13.5,3090.5,3077.0,6,Long
2020-12-16,-13.5,3617.0,3603.5,6,Long
2020-12-17,-13.5,4020.5,4007.0,6,Long
2020-12-18,-13.5,4010.0,3996.5,6,Long
2020-12-20,-13.5,4014.5,4001.0,6,Long
2020-12-21,-13.5,3728.0,3714.5,6,Long
2020-12-22,-13.5,3842.0,3828.5,6,Long
2020-12-23,-13.5,3449.0,3435.5,6,Long
2020-12-24,-13.5,3744.5,3731.0,6,Long
2020-12-27,-13.5,3926.0,3912.5,6,Long
2020-12-28,-13.5,4631.0,4617.5,6,Long
2020-12-29,-13.5,4587.5,4574.0,6,Long
2020-12-30,-13.5,4611.5,4598.0,6,Long
2020-12-31,-13.5,4826.0,4812.5,6,Long
2021-01-03,-13.5,4703.0,4689.5,6,Long
2021-01-04,-13.5,3569.0,3555.5,6,Long
2021-01-05,-13.5,4289.0,4275.5,6,Long
2021-01-06,-13.5,3557.0,3543.5,6,Long
2021-01-07,-13.5,5150.0,5136.5,6,Long
2021-01-08,-13.5,6356.5,6343.0,8,Long
2021-01-10,-13.5,6020.5,6007.0,8,Long
2021-01-11,-13.5,4736.5,4723.0,8,Long
2021-01-12,-13.5,4534.5,4521.0,8,Long
2021-01-13,-13.5,5120.5,5107.0,8,Long
2021-01-14,-13.5,4696.5,4683.0,8,Long
2021-01-15,-13.5,3470.5,3457.0,8,Long
2021-01-17,-13.5,3328.5,3315.0,8,Long
2021-01-18,-13.5,4012.5,3999.0,8,Long
2021-01-19,-13.5,5758.5,5745.0,8,Long
2021-01-20,-13.5,7876.5,7863.0,8,Long
2021-01-21,-13.5,8430.5,8417.0,8,Long
2021-01-22,-13.5,8143.0,8129.5,9,Long
2021-01-24,-13.5,8559.25,8545.75,9,Long
2021-01-25,-13.5,9135.25,9121.75,9,Long
2021-01-26,-13.5,10010.5,9997.0,9,Long
2021-01-27,-13.5,4779.25,4765.75,9,Long
2021-01-28,-13.5,6208.0,6194.5,9,Long
2021-01-29,6196.75,0.0,6196.75,0,
2021-01-31,6196.75,0.0,6196.75,0,
2021-02-01,6196.75,0.0,6196.75,0,
2021-02-02,6196.75,0.0,6196.75,0,
2021-02-03,6196.75,0.0,6196.75,0,
2021-02-04,6196.75,0.0,6196.75,0,
2021-02-05,6196.75,0.0,6196.75,0,
2021-02-07,6196.75,0.0,6196.75,0,
2021-02-08,6196.75,0.0,6196.75,0,
2021-02-09,6196.75,0.0,6196.75,0,
2021-02-10,6196.75,0.0,6196.75,0,
2021-02-11,6196.75,0.0,6196.75,0,
2021-02-12,6196.75,0.0,6196.75,0,
2021-02-14,6196.75,0.0,6196.75,0,
2021-02-15,6196.75,0.0,6196.75,0,
2021-02-16,6196.75,0.0,6196.75,0,
2021-02-17,6196.75,0.0,6196.75,0,
2021-02-18,6196.75,0.0,6196.75,0,
2021-02-19,6196.75,0.0,6196.75,0,
2021-02-21,6196.75,0.0,6196.75,0,
2021-02-22,6196.75,0.0,6196.75,0,
2021-02-23,6196.75,0.0,6196.75,0,
2021-02-24,6196.75,0.0,6196.75,0,
2021-02-25,6196.75,0.0,6196.75,0,
2021-02-26,6196.75,0.0,6196.75,0,
2021-02-28,6196.75,0.0,6196.75,0,
2021-03-01,6196.75,0.0,6196.75,0,
2021-03-02,6196.75,0.0,6196.75,0,
2021-03-03,6196.75,0.0,6196.75,0,
2021-03-04,6196.75,0.0,6196.75,0,
2021-03-05,6196.75,0.0,6196.75,0,
2021-03-07,6196.75,0.0,6196.75,0,
2021-03-08,6196.75,0.0,6196.75,0,
2021-03-09,6196.75,0.0,6196.75,0,
2021-03-10,6196.75,0.0,6196.75,0,
2021-03-11,6196.75,0.0,6196.75,0,
2021-03-12,6196.75,0.0,6196.75,0,
2021-03-14,6196.75,0.0,6196.75,0,
2021-03-15,6196.75,0.0,6196.75,0,
2021-03-16,6196.75,0.0,6196.75,0,
2021-03-17,6196.75,0.0,6196.75,0,
2021-03-18,6196.75,0.0,6196.75,0,
2021-03-19,6196.75,0.0,6196.75,0,
2021-03-21,6196.75,0.0,6196.75,0,
2021-03-22,6196.75,0.0,6196.75,0,
2021-03-23,6196.75,0.0,6196.75,0,
2021-03-24,6196.75,0.0,6196.75,0,
2021-03-25,6196.75,0.0,6196.75,0,
2021-03-26,6196.75,0.0,6196.75,0,
2021-03-28,6196.75,0.0,6196.75,0,
2021-03-29,6196.75,0.0,6196.75,0,
2021-03-30,6196.75,0.0,6196.75,0,
2021-03-31,6196.75,0.0,6196.75,0,
2021-04-01,6196.75,0.0,6196.75,0,
2021-04-02,6196.75,0.0,6196.75,0,
2021-04-04,6196.75,0.0,6196.75,0,
2021-04-05,6196.75,0.0,6196.75,0,
2021-04-06,6196.75,0.0,6196.75,0,
2021-04-07,6196.75,0.0,6196.75,0,
2021-04-08,6196.75,0.0,6196.75,0,
2021-04-09,6196.75,0.0,6196.75,0,
2021-04-11,6196.75,0.0,6196.75,0,
2021-04-12,6196.75,0.0,6196.75,0,
2021-04-13,6196.75,0.0,6196.75,0,
2021-04-14,6196.75,0.0,6196.75,0,
2021-04-15,6196.75,0.0,6196.75,0,
2021-04-16,6196.75,0.0,6196.75,0,
2021-04-18,6196.75,0.0,6196.75,0,
2021-04-19,6196.75,0.0,6196.75,0,
2021-04-20,6196.75,0.0,6196.75,0,
2021-04-21,6196.75,0.0,6196.75,0,
2021-04-22,6196.75,0.0,6196.75,0,
2021-04-23,6196.75,0.0,6196.75,0,
2021-04-25,6196.75,0.0,6196.75,0,
2021-04-26,6196.75,0.0,6196.75,0,
2021-04-27,6196.75,0.0,6196.75,0,
2021-04-28,6196.75,0.0,6196.75,0,
2021-04-29,6196.75,0.0,6196.75,0,
2021-04-30,6196.75,0.0,6196.75,0,
2021-05-02,6196.75,0.0,6196.75,0,
2021-05-03,6196.75,0.0,6196.75,0,
2021-05-04,6196.75,0.0,6196.75,0,
2021-05-05,6196.75,0.0,6196.75,0,
2021-05-06,6196.75,0.0,6196.75,0,
2021-05-07,6196.75,0.0,6196.75,0,
2021-05-09,6196.75,0.0,6196.75,0,
2021-05-10,6196.75,0.0,6196.75,0,
2021-05-11,6196.75,0.0,6196.75,0,
2021-05-12,6196.75,0.0,6196.75,0,
2021-05-13,6196.75,0.0,6196.75,0,
2021-05-14,6196.75,0.0,6196.75,0,
2021-05-16,6196.75,0.0,6196.75,0,
2021-05-17,6196.75,0.0,6196.75,0,
2021-05-18,6196.75,0.0,6196.75,0,
2021-05-19,6196.75,0.0,6196.75,0,
2021-05-20,6196.75,0.0,6196.75,0,
2021-05-21,6196.75,0.0,6196.75,0,
2021-05-23,6196.75,0.0,6196.75,0,
2021-05-24,6196.75,0.0,6196.75,0,
2021-05-25,6196.75,0.0,6196.75,0,
2021-05-26,6196.75,0.0,6196.75,0,
2021-05-27,6196.75,0.0,6196.75,0,
2021-05-28,6196.75,0.0,6196.75,0,
2021-05-30,6196.75,0.0,6196.75,0,
2021-05-31,6196.75,0.0,6196.75,0,
2021-06-01,6196.75,0.0,6196.75,0,
2021-06-02,6196.75,0.0,6196.75,0,
2021-06-03,6196.75,0.0,6196.75,0,
2021-06-04,6196.75,260.5,6457.25,1,Long
2021-06-06,6196.75,264.0,6460.75,1,Long
2021-06-07,6196.75,319.25,6516.0,1,Long
2021-06-08,6196.75,313.5,6510.25,1,Long
2021-06-09,6196.75,311.5,6508.25,1,Long
2021-06-10,6196.75,464.25,6661.0,1,Long
2021-06-11,6196.75,481.25,6678.0,1,Long
2021-06-13,6196.75,506.0,6702.75,1,Long
2021-06-14,6196.75,602.75,6799.5,1,Long
2021-06-15,6196.75,527.75,6724.5,1,Long
2021-06-16,6196.75,383.0,6579.75,1,Long
2021-06-17,6196.75,672.0,6868.75,1,Long
2021-06-18,6196.75,470.0,6666.75,2,Long
2021-06-20,6196.75,510.5,6707.25,2,Long
2021-06-21,6196.75,704.0,6900.75,2,Long
2021-06-22,6196.75,979.0,7175.75,2,Long
2021-06-23,6196.75,1006.5,7203.25,2,Long
2021-06-24,6196.75,1127.0,7323.75,2,Long
2021-06-25,6196.75,1096.5,7293.25,2,Long
2021-06-27,6196.75,1143.5,7340.25,2,Long
2021-06-28,6196.75,1417.5,7614.25,2,Long
2021-06-29,6196.75,1609.5,7806.25,2,Long
2021-06-30,6196.75,1555.0,7751.75,2,Long
2021-07-01,6196.75,1500.0,7696.75,2,Long
2021-07-02,6196.75,1805.0,8001.75,4,Long
2021-07-04,6196.75,1861.0,8057.75,4,Long
2021-07-05,6196.75,1860.0,8056.75,4,Long
2021-07-06,6196.75,2062.0,8258.75,4,Long
2021-07-07,6196.75,2244.0,8440.75,4,Long
2021-07-08,6196.75,1771.0,7967.75,4,Long
2021-07-09,6196.75,2261.0,8457.75,4,Long
2021-07-11,6196.75,2321.0,8517.75,4,Long
2021-07-12,6196.75,2522.0,8718.75,4,Long
2021-07-13,6196.75,2383.0,8579.75,4,Long
2021-07-14,6196.75,2620.0,8816.75,4,Long
2021-07-15,6196.75,2031.0,8227.75,4,Long
2021-07-16,6196.75,1703.5,7900.25,6,Long
2021-07-18,6196.75,1538.5,7735.25,6,Long
2021-07-19,6196.75,1219.0,7415.75,6,Long
2021-07-20,6196.75,2140.0,8336.75,6,Long
2021-07-21,6196.75,2695.0,8891.75,6,Long
2021-07-22,6196.75,3506.5,9703.25,6,Long
2021-07-23,6196.75,4237.0,10433.75,6,Long
2021-07-25,6196.75,4408.0,10604.75,6,Long
2021-07-26,6196.75,4351.0,10547.75,6,Long
2021-07-27,6196.75,3203.5,9400.25,6,Long
2021-07-28,6196.75,3611.5,9808.25,6,Long
2021-07-29,6196.75,2902.0,9098.75,6,Long
2021-07-30,6196.75,3528.5,9725.25,8,Long
2021-08-01,6196.75,3804.5,10001.25,8,Long
2021-08-02,6196.75,3480.5,9677.25,8,Long
2021-08-03,6196.75,4038.5,10235.25,8,Long
2021-08-04,6196.75,4460.5,10657.25,8,Long
2021-08-05,6196.75,5074.5,11271.25,8,Long
2021-08-06,6196.75,4532.5,10729.25,8,Long
2021-08-08,6196.75,3966.5,10163.25,8,Long
2021-08-09,6196.75,4740.5,10937.25,8,Long
2021-08-10,6196.75,4074.5,10271.25,8,Long
2021-08-11,6196.75,3756.5,9953.25,8,Long
2021-08-12,6196.75,4332.5,10529.25,8,Long
2021-08-13,6196.75,4788.5,10985.25,9,Long
2021-08-15,6196.75,4700.75,10897.5,9,Long
2021-08-16,6196.75,4849.25,11046.0,9,Long
2021-08-17,6196.75,3287.75,9484.5,9,Long
2021-08-18,6196.75,2284.25,8481.0,9,Long
2021-08-19,6196.75,2925.5,9122.25,9,Long
2021-08-20,6196.75,4529.75,10726.5,9,Long
2021-08-22,6196.75,4640.0,10836.75,9,Long
2021-08-23,6196.75,6640.25,12837.0,9,Long
2021-08-24,6196.75,6894.5,13091.25,9,Long
2021-08-25,6196.75,6930.5,13127.25,9,Long
2021-08-26,6196.75,6179.0,12375.75,9,Long
2021-08-27,6196.75,7522.0,13718.75,10,Long
2021-08-29,6196.75,7767.0,13963.75,10,Long
2021-08-30,6196.75,9224.5,15421.25,10,Long
2021-08-31,6196.75,9212.0,15408.75,10,Long
2021-09-01,6196.75,9427.0,15623.75,10,Long
2021-09-02,6196.75,9212.0,15408.75,10,Long
2021-09-03,6196.75,9777.0,15973.75,10,Long
2021-09-05,6196.75,9744.5,15941.25,10,Long
2021-09-06,6196.75,10134.5,16331.25,10,Long
2021-09-07,6196.75,9862.0,16058.75,10,Long
2021-09-08,6196.75,9242.0,15438.75,10,Long
2021-09-09,6196.75,8882.0,15078.75,10,Long
2021-09-10,6196.75,7619.5,13816.25,10,Long
2021-09-12,6196.75,8087.0,14283.75,10,Long
2021-09-13,6196.75,7694.5,13891.25,10,Long
2021-09-14,6196.75,7312.0,13508.75,10,Long
2021-09-15,6196.75,8259.5,14456.25,10,Long
2021-09-16,6196.75,8057.0,14253.75,10,Long
2021-09-17,14253.75,0.0,14253.75,0,
2021-09-19,14253.75,0.0,14253.75,0,
2021-09-20,14253.75,0.0,14253.75,0,
2021-09-21,14253.75,0.0,14253.75,0,
2021-09-22,14253.75,0.0,14253.75,0,
2021-09-23,14253.75,0.0,14253.75,0,
2021-09-24,14253.75,0.0,14253.75,0,
2021-09-26,14253.75,0.0,14253.75,0,
2021-09-27,14253.75,0.0,14253.75,0,
2021-09-28,14253.75,0.0,14253.75,0,
2021-09-29,14253.75,0.0,14253.75,0,
2021-09-30,14253.75,0.0,14253.75,0,
2021-10-01,14253.75,0.0,14253.75,0,
2021-10-03,14253.75,0.0,14253.75,0,
2021-10-04,14253.75,0.0,14253.75,0,
2021-10-05,14253.75,0.0,14253.75,0,
2021-10-06,14253.75,0.0,14253.75,0,
2021-10-07,14253.75,0.0,14253.75,0,
2021-10-08,14253.75,0.0,14253.75,0,
2021-10-10,14253.75,0.0,14253.75,0,
2021-10-11,14253.75,0.0,14253.75,0,
2021-10-12,14253.75,0.0,14253.75,0,
2021-10-13,14253.75,0.0,14253.75,0,
2021-10-14,14253.75,0.0,14253.75,0,
2021-10-15,14253.75,0.0,14253.75,0,
2021-10-17,14253.75,0.0,14253.75,0,
2021-10-18,14253.75,210.0,14463.75,1,Long
2021-10-19,14253.75,327.25,14581.0,1,Long
2021-10-20,14253.75,253.25,14507.0,1,Long
2021-10-21,14253.75,309.75,14563.5,1,Long
2021-10-22,14253.75,242.0,14495.75,1,Long
2021-10-24,14253.75,224.25,14478.0,1,Long
2021-10-25,14253.75,457.0,14710.75,1,Long
2021-10-26,14253.75,478.0,14731.75,1,Long
2021-10-27,14253.75,544.25,14798.0,1,Long
2021-10-28,14253.75,590.25,14844.0,1,Long
2021-10-29,14253.75,854.75,15108.5,2,Long
2021-10-31,14253.75,877.75,15131.5,2,Long
2021-11-01,14253.75,869.25,15123.0,2,Long
2021-11-02,14253.75,1002.25,15256.0,2,Long
2021-11-03,14253.75,1488.75,15742.5,2,Long
2021-11-04,14253.75,1797.25,16051.0,2,Long
2021-11-05,14253.75,1803.25,16057.0,2,Long
2021-11-07,14253.75,1741.25,15995.0,2,Long
2021-11-08,14253.75,1738.25,15992.0,2,Long
2021-11-09,14253.75,1488.25,15742.0,2,Long
2021-11-10,14253.75,1097.75,15351.5,2,Long
2021-11-11,14253.75,1245.75,15499.5,2,Long
2021-11-12,14253.75,1561.25,15815.0,4,Long
2021-11-14,14253.75,1659.25,15913.0,4,Long
2021-11-15,14253.75,1513.25,15767.0,4,Long
2021-11-16,14253.75,1975.25,16229.0,4,Long
2021-11-17,14253.75,2072.25,16326.0,4,Long
2021-11-18,14253.75,2738.25,16992.0,4,Long
2021-11-19,14253.75,3107.25,17361.0,4,Long
2021-11-21,14253.75,3109.25,17363.0,4,Long
2021-11-22,14253.75,2341.25,16595.0,4,Long
2021-11-23,14253.75,1900.25,16154.0,4,Long
2021-11-24,14253.75,2185.25,16439.0,4,Long
2021-11-25,14253.75,2238.25,16492.0,4,Long
2021-11-26,16489.0,0.0,16489.0,0,
2021-11-28,16489.0,0.0,16489.0,0,
2021-11-29,16489.0,0.0,16489.0,0,
2021-11-30,16489.0,0.0,16489.0,0,
2021-12-01,16489.0,0.0,16489.0,0,
2021-12-02,16489.0,0.0,16489.0,0,
2021-12-03,16489.0,0.0,16489.0,0,
2021-12-05,16489.0,0.0,16489.0,0,
2021-12-06,16489.0,0.0,16489.0,0,
2021-12-07,16489.0,0.0,16489.0,0,
2021-12-08,16489.0,0.0,16489.0,0,
2021-12-09,16489.0,0.0,16489.0,0,
2021-12-10,16489.0,0.0,16489.0,0,
2021-12-12,16489.0,0.0,16489.0,0,
2021-12-13,16489.0,0.0,16489.0,0,
2021-12-14,16489.0,0.0,16489.0,0,
2021-12-15,16489.0,0.0,16489.0,0,
2021-12-16,16489.0,0.0,16489.0,0,
2021-12-17,16489.0,0.0,16489.0,0,
2021-12-19,16489.0,0.0,16489.0,0,
2021-12-20,16489.0,0.0,16489.0,0,
2021-12-21,16489.0,0.0,16489.0,0,
2021-12-22,16489.0,0.0,16489.0,0,
2021-12-23,16489.0,0.0,16489.0,0,
2021-12-26,16489.0,0.0,16489.0,0,
2021-12-27,16489.0,212.5,16701.5,1,Long
2021-12-28,16489.0,197.0,16686.0,1,Long
2021-12-29,16489.0,121.0,16610.0,1,Long
2021-12-30,16489.0,96.0,16585.0,1,Long
2021-12-31,16489.0,-8.75,16480.25,1,Long
2022-01-02,16501.75,0.0,16501.75,0,
2022-01-03,16501.75,0.0,16501.75,0,
2022-01-04,16501.75,0.0,16501.75,0,
2022-01-05,16501.75,0.0,16501.75,0,
2022-01-06,16501.75,0.0,16501.75,0,
2022-01-07,16501.75,0.0,16501.75,0,
2022-01-09,16501.75,0.0,16501.75,0,
2022-01-10,16501.75,0.0,16501.75,0,
2022-01-11,16501.75,0.0,16501.75,0,
2022-01-12,16501.75,0.0,16501.75,0,
2022-01-13,16501.75,0.0,16501.75,0,
2022-01-14,16501.75,0.0,16501.75,0,
2022-01-16,16501.75,0.0,16501.75,0,
2022-01-17,16501.75,0.0,16501.75,0,
2022-01-18,16501.75,0.0,16501.75,0,
2022-01-19,16501.75,0.0,16501.75,0,
2022-01-20,16501.75,0.0,16501.75,0,
2022-01-21,16501.75,0.0,16501.75,0,
2022-01-23,16501.75,0.0,16501.75,0,
2022-01-24,16501.75,0.0,16501.75,0,
2022-01-25,16501.75,0.0,16501.75,0,
2022-01-26,16501.75,0.0,16501.75,0,
2022-01-27,16501.75,0.0,16501.75,0,
2022-01-28,16501.75,0.0,16501.75,0,
2022-01-30,16501.75,0.0,16501.75,0,
2022-01-31,16501.75,0.0,16501.75,0,
2022-02-01,16501.75,0.0,16501.75,0,
2022-02-02,16501.75,0.0,16501.75,0,
2022-02-03,16501.75,0.0,16501.75,0,
2022-02-04,16501.75,0.0,16501.75,0,
2022-02-06,16501.75,0.0,16501.75,0,
2022-02-07,16501.75,0.0,16501.75,0,
2022-02-08,16501.75,0.0,16501.75,0,
2022-02-09,16501.75,0.0,16501.75,0,
2022-02-10,16501.75,0.0,16501.75,0,
2022-02-11,16501.75,0.0,16501.75,0,
2022-02-13,16501.75,0.0,16501.75,0,
2022-02-14,16501.75,0.0,16501.75,0,
2022-02-15,16501.75,0.0,16501.75,0,
2022-02-16,16501.75,0.0,16501.75,0,
2022-02-17,16501.75,0.0,16501.75,0,
2022-02-18,16501.75,0.0,16501.75,0,
2022-02-20,16501.75,0.0,16501.75,0,
2022-02-21,16501.75,0.0,16501.75,0,
2022-02-22,16501.75,0.0,16501.75,0,
2022-02-23,16501.75,0.0,16501.75,0,
2022-02-24,16501.75,0.0,16501.75,0,
2022-02-25,16501.75,0.0,16501.75,0,
2022-02-27,16501.75,0.0,16501.75,0,
2022-02-28,16501.75,0.0,16501.75,0,
2022-03-01,16501.75,0.0,16501.75,0,
2022-03-02,16501.75,0.0,16501.75,0,
2022-03-03,16501.75,0.0,16501.75,0,
2022-03-04,16501.75,0.0,16501.75,0,
2022-03-06,16501.75,0.0,16501.75,0,
2022-03-07,16501.75,0.0,16501.75,0,
2022-03-08,16501.75,0.0,16501.75,0,
2022-03-09,16501.75,0.0,16501.75,0,
2022-03-10,16501.75,0.0,16501.75,0,
2022-03-11,16501.75,0.0,16501.75,0,
2022-03-13,16501.75,0.0,16501.75,0,
2022-03-14,16501.75,0.0,16501.75,0,
2022-03-15,16501.75,0.0,16501.75,0,
2022-03-16,16501.75,0.0,16501.75,0,
2022-03-17,16501.75,0.0,16501.75,0,
2022-03-18,16501.75,0.0,16501.75,0,
2022-03-20,16501.75,0.0,16501.75,0,
2022-03-21,16501.75,0.0,16501.75,0,
2022-03-22,16501.75,0.0,16501.75,0,
2022-03-23,16501.75,0.0,16501.75,0,
2022-03-24,16501.75,0.0,16501.75,0,
2022-03-25,16501.75,0.0,16501.75,0,
2022-03-27,16501.75,0.0,16501.75,0,
2022-03-28,16501.75,0.0,16501.75,0,
2022-03-29,16501.75,0.0,16501.75,0,
2022-03-30,16501.75,0.0,16501.75,0,
2022-03-31,16501.75,0.0,16501.75,0,
2022-04-01,16501.75,0.0,16501.75,0,
2022-04-03,16501.75,0.0,16501.75,0,
2022-04-04,16501.75,0.0,16501.75,0,
2022-04-05,16501.75,0.0,16501.75,0,
2022-04-06,16501.75,0.0,16501.75,0,
2022-04-07,16501.75,0.0,16501.75,0,
2022-04-08,16501.75,0.0,16501.75,0,
2022-04-10,16501.75,0.0,16501.75,0,
2022-04-11,16501.75,0.0,16501.75,0,
2022-04-12,16501.75,0.0,16501.75,0,
2022-04-13,16501.75,0.0,16501.75,0,
2022-04-14,16501.75,0.0,16501.75,0,
2022-04-17,16501.75,0.0,16501.75,0,
2022-04-18,16501.75,0.0,16501.75,0,
2022-04-19,16501.75,0.0,16501.75,0,
2022-04-20,16501.75,0.0,16501.75,0,
2022-04-21,16501.75,0.0,16501.75,0,
2022-04-22,16501.75,0.0,16501.75,0,
2022-04-24,16501.75,0.0,16501.75,0,
2022-04-25,16501.75,0.0,16501.75,0,
2022-04-26,16501.75,0.0,16501.75,0,
2022-04-27,16501.75,0.0,16501.75,0,
2022-04-28,16501.75,0.0,16501.75,0,
2022-04-29,16501.75,0.0,16501.75,0,
2022-05-01,16501.75,0.0,16501.75,0,
2022-05-02,16501.75,0.0,16501.75,0,
2022-05-03,16501.75,0.0,16501.75,0,
2022-05-04,16501.75,0.0,16501.75,0,
2022-05-05,16501.75,0.0,16501.75,0,
2022-05-06,16501.75,0.0,16501.75,0,
2022-05-08,16501.75,0.0,16501.75,0,
2022-05-09,16501.75,0.0,16501.75,0,
2022-05-10,16501.75,0.0,16501.75,0,
2022-05-11,16501.75,0.0,16501.75,0,
2022-05-12,16501.75,0.0,16501.75,0,
2022-05-13,16501.75,0.0,16501.75,0,
2022-05-15,16501.75,0.0,16501.75,0,
2022-05-16,16501.75,0.0,16501.75,0,
2022-05-17,16501.75,0.0,16501.75,0,
2022-05-18,16501.75,0.0,16501.75,0,
2022-05-19,16501.75,0.0,16501.75,0,
2022-05-20,16501.75,0.0,16501.75,0,
2022-05-22,16501.75,0.0,16501.75,0,
2022-05-23,16501.75,0.0,16501.75,0,
2022-05-24,16501.75,0.0,16501.75,0,
2022-05-25,16501.75,0.0,16501.75,0,
2022-05-26,16501.75,0.0,16501.75,0,
2022-05-27,16501.75,0.0,16501.75,0,
2022-05-29,16501.75,0.0,16501.75,0,
2022-05-30,16501.75,0.0,16501.75,0,
2022-05-31,16501.75,0.0,16501.75,0,
2022-06-01,16501.75,0.0,16501.75,0,
2022-06-02,16501.75,0.0,16501.75,0,
2022-06-03,16501.75,0.0,16501.75,0,
2022-06-05,16501.75,0.0,16501.75,0,
2022-06-06,16501.75,0.0,16501.75,0,
2022-06-07,16501.75,0.0,16501.75,0,
2022-06-08,16501.75,0.0,16501.75,0,
2022-06-09,16501.75,0.0,16501.75,0,
2022-06-10,16501.75,0.0,16501.75,0,
2022-06-12,16501.75,0.0,16501.75,0,
2022-06-13,16501.75,0.0,16501.75,0,
2022-06-14,16501.75,0.0,16501.75,0,
2022-06-15,16501.75,0.0,16501.75,0,
2022-06-16,16501.75,0.0,16501.75,0,
2022-06-17,16501.75,0.0,16501.75,0,
2022-06-19,16501.75,0.0,16501.75,0,
2022-06-20,16501.75,0.0,16501.75,0,
2022-06-21,16501.75,0.0,16501.75,0,
2022-06-22,16501.75,0.0,16501.75,0,
2022-06-23,16501.75,0.0,16501.75,0,
2022-06-24,16501.75,0.0,16501.75,0,
2022-06-26,16501.75,0.0,16501.75,0,
2022-06-27,16501.75,0.0,16501.75,0,
2022-06-28,16501.75,0.0,16501.75,0,
2022-06-29,16501.75,0.0,16501.75,0,
2022-06-30,16501.75,0.0,16501.75,0,
2022-07-01,16501.75,0.0,16501.75,0,
2022-07-03,16501.75,0.0,16501.75,0,
2022-07-04,16501.75,0.0,16501.75,0,
2022-07-05,16501.75,0.0,16501.75,0,
2022-07-06,16501.75,0.0,16501.75,0,
2022-07-07,16501.75,0.0,16501.75,0,
2022-07-08,16501.75,0.0,16501.75,0,
2022-07-10,16501.75,0.0,16501.75,0,
2022-07-11,16501.75,0.0,16501.75,0,
2022-07-12,16501.75,0.0,16501.75,0,
2022-07-13,16501.75,0.0,16501.75,0,
2022-07-14,16501.75,0.0,16501.75,0,
2022-07-15,16501.75,0.0,16501.75,0,
2022-07-17,16501.75,0.0,16501.75,0,
2022-07-18,16501.75,0.0,16501.75,0,
2022-07-19,16501.75,0.0,16501.75,0,
2022-07-20,16501.75,0.0,16501.75,0,
2022-07-21,16501.75,0.0,16501.75,0,
2022-07-22,16501.75,0.0,16501.75,0,
2022-07-24,16501.75,0.0,16501.75,0,
2022-07-25,16501.75,0.0,16501.75,0,
2022-07-26,16501.75,0.0,16501.75,0,
2022-07-27,16501.75,0.0,16501.75,0,
2022-07-28,16501.75,0.0,16501.75,0,
2022-07-29,16501.75,0.0,16501.75,0,
2022-07-31,16501.75,0.0,16501.75,0,
2022-08-01,16501.75,0.0,16501.75,0,
2022-08-02,16501.75,0.0,16501.75,0,
2022-08-03,16501.75,0.0,16501.75,0,
2022-08-04,16501.75,0.0,16501.75,0,
2022-08-05,16501.75,0.0,16501.75,0,
2022-08-07,16501.75,0.0,16501.75,0,
2022-08-08,16501.75,0.0,16501.75,0,
2022-08-09,16501.75,0.0,16501.75,0,
2022-08-10,16501.75,0.0,16501.75,0,
2022-08-11,16501.75,0.0,16501.75,0,
2022-08-12,16501.75,0.0,16501.75,0,
2022-08-14,16501.75,0.0,16501.75,0,
2022-08-15,16501.75,0.0,16501.75,0,
2022-08-16,16501.75,0.0,16501.75,0,
2022-08-17,16501.75,0.0,16501.75,0,
2022-08-18,16501.75,0.0,16501.75,0,
2022-08-19,16501.75,0.0,16501.75,0,
2022-08-21,16501.75,0.0,16501.75,0,
2022-08-22,16501.75,0.0,16501.75,0,
2022-08-23,16501.75,0.0,16501.75,0,
2022-08-24,16501.75,0.0,16501.75,0,
2022-08-25,16501.75,0.0,16501.75,0,
2022-08-26,16501.75,0.0,16501.75,0,
2022-08-28,16501.75,0.0,16501.75,0,
2022-08-29,16501.75,0.0,16501.75,0,
2022-08-30,16501.75,0.0,16501.75,0,
2022-08-31,16501.75,0.0,16501.75,0,
2022-09-01,16501.75,0.0,16501.75,0,
2022-09-02,16501.75,0.0,16501.75,0,
2022-09-04,16501.75,0.0,16501.75,0,
2022-09-05,16501.75,0.0,16501.75,0,
2022-09-06,16501.75,0.0,16501.75,0,
2022-09-07,16501.75,0.0,16501.75,0,
2022-09-08,16501.75,0.0,16501.75,0,
2022-09-09,16501.75,0.0,16501.75,0,
2022-09-11,16501.75,0.0,16501.75,0,
2022-09-12,16501.75,0.0,16501.75,0,
2022-09-13,16501.75,0.0,16501.75,0,
2022-09-14,16501.75,0.0,16501.75,0,
2022-09-15,16501.75,0.0,16501.75,0,
2022-09-16,16501.75,0.0,16501.75,0,
2022-09-18,16501.75,0.0,16501.75,0,
2022-09-19,16501.75,0.0,16501.75,0,
2022-09-20,16501.75,0.0,16501.75,0,
2022-09-21,16501.75,0.0,16501.75,0,
2022-09-22,16501.75,0.0,16501.75,0,
2022-09-23,16501.75,0.0,16501.75,0,
2022-09-25,16501.75,0.0,16501.75,0,
2022-09-26,16501.75,0.0,16501.75,0,
2022-09-27,16501.75,0.0,16501.75,0,
2022-09-28,16501.75,0.0,16501.75,0,
2022-09-29,16501.75,0.0,16501.75,0,
2022-09-30,16501.75,0.0,16501.75,0,
2022-10-02,16501.75,0.0,16501.75,0,
2022-10-03,16501.75,0.0,16501.75,0,
2022-10-04,16501.75,0.0,16501.75,0,
2022-10-05,16501.75,0.0,16501.75,0,
2022-10-06,16501.75,0.0,16501.75,0,
2022-10-07,16501.75,0.0,16501.75,0,
2022-10-09,16501.75,0.0,16501.75,0,
2022-10-10,16501.75,0.0,16501.75,0,
2022-10-11,16501.75,0.0,16501.75,0,
2022-10-12,16501.75,0.0,16501.75,0,
2022-10-13,16501.75,0.0,16501.75,0,
2022-10-14,16501.75,0.0,16501.75,0,
2022-10-16,16501.75,0.0,16501.75,0,
2022-10-17,16501.75,0.0,16501.75,0,
2022-10-18,16501.75,0.0,16501.75,0,
2022-10-19,16501.75,0.0,16501.75,0,
2022-10-20,16501.75,0.0,16501.75,0,
2022-10-21,16501.75,0.0,16501.75,0,
2022-10-23,16501.75,0.0,16501.75,0,
2022-10-24,16501.75,0.0,16501.75,0,
2022-10-25,16501.75,0.0,16501.75,0,
2022-10-26,16501.75,0.0,16501.75,0,
2022-10-27,16501.75,0.0,16501.75,0,
2022-10-28,16501.75,0.0,16501.75,0,
2022-10-30,16501.75,0.0,16501.75,0,
2022-10-31,16501.75,0.0,16501.75,0,
2022-11-01,16501.75,0.0,16501.75,0,
2022-11-02,16501.75,0.0,16501.75,0,
2022-11-03,16501.75,0.0,16501.75,0,
2022-11-04,16501.75,0.0,16501.75,0,
2022-11-06,16501.75,0.0,16501.75,0,
2022-11-07,16501.75,0.0,16501.75,0,
2022-11-08,16501.75,0.0,16501.75,0,
2022-11-09,16501.75,0.0,16501.75,0,
2022-11-10,16501.75,0.0,16501.75,0,
2022-11-11,16501.75,0.0,16501.75,0,
2022-11-13,16501.75,0.0,16501.75,0,
2022-11-14,16501.75,0.0,16501.75,0,
2022-11-15,16501.75,0.0,16501.75,0,
2022-11-16,16501.75,0.0,16501.75,0,
2022-11-17,16501.75,0.0,16501.75,0,
2022-11-18,16501.75,0.0,16501.75,0,
2022-11-20,16501.75,0.0,16501.75,0,
2022-11-21,16501.75,0.0,16501.75,0,
2022-11-22,16501.75,0.0,16501.75,0,
2022-11-23,16501.75,0.0,16501.75,0,
2022-11-24,16501.75,0.0,16501.75,0,
2022-11-25,16501.75,0.0,16501.75,0,
2022-11-27,16501.75,0.0,16501.75,0,
2022-11-28,16501.75,0.0,16501.75,0,
2022-11-29,16501.75,0.0,16501.75,0,
2022-11-30,16501.75,0.0,16501.75,0,
2022-12-01,16501.75,0.0,16501.75,0,
2022-12-02,16501.75,0.0,16501.75,0,
2022-12-04,16501.75,0.0,16501.75,0,
2022-12-05,16501.75,0.0,16501.75,0,
2022-12-06,16501.75,0.0,16501.75,0,
2022-12-07,16501.75,0.0,16501.75,0,
2022-12-08,16501.75,0.0,16501.75,0,
2022-12-09,16501.75,0.0,16501.75,0,
2022-12-11,16501.75,0.0,16501.75,0,
2022-12-12,16501.75,0.0,16501.75,0,
2022-12-13,16501.75,0.0,16501.75,0,
2022-12-14,16501.75,0.0,16501.75,0,
2022-12-15,16501.75,0.0,16501.75,0,
2022-12-16,16501.75,0.0,16501.75,0,
2022-12-18,16501.75,0.0,16501.75,0,
2022-12-19,16501.75,0.0,16501.75,0,
2022-12-20,16501.75,0.0,16501.75,0,
2022-12-21,16501.75,0.0,16501.75,0,
2022-12-22,16501.75,0.0,16501.75,0,
2022-12-23,16501.75,0.0,16501.75,0,
2022-12-26,16501.75,0.0,16501.75,0,
2022-12-27,16501.75,0.0,16501.75,0,
2022-12-28,16501.75,0.0,16501.75,0,
2022-12-29,16501.75,0.0,16501.75,0,
2022-12-30,16501.75,0.0,16501.75,0,
2023-01-02,16501.75,0.0,16501.75,0,
2023-01-03,16501.75,0.0,16501.75,0,
2023-01-04,16501.75,0.0,16501.75,0,
2023-01-05,16501.75,0.0,16501.75,0,
2023-01-06,16501.75,0.0,16501.75,0,
2023-01-08,16501.75,0.0,16501.75,0,
2023-01-09,16501.75,0.0,16501.75,0,
2023-01-10,16501.75,0.0,16501.75,0,
2023-01-11,16501.75,0.0,16501.75,0,
2023-01-12,16501.75,0.0,16501.75,0,
2023-01-13,16501.75,0.0,16501.75,0,
2023-01-15,16501.75,0.0,16501.75,0,
2023-01-16,16501.75,0.0,16501.75,0,
2023-01-17,16501.75,0.0,16501.75,0,
2023-01-18,16501.75,0.0,16501.75,0,
2023-01-19,16501.75,0.0,16501.75,0,
2023-01-20,16501.75,0.0,16501.75,0,
2023-01-22,16501.75,0.0,16501.75,0,
2023-01-23,16501.75,0.0,16501.75,0,
2023-01-24,16501.75,0.0,16501.75,0,
2023-01-25,16501.75,0.0,16501.75,0,
2023-01-26,16501.75,0.0,16501.75,0,
2023-01-27,16501.75,0.0,16501.75,0,
2023-01-29,16501.75,0.0,16501.75,0,
2023-01-30,16501.75,0.0,16501.75,0,
2023-01-31,16501.75,0.0,16501.75,0,
2023-02-01,16501.75,0.0,16501.75,0,
2023-02-02,16501.75,0.0,16501.75,0,
2023-02-03,16501.75,0.0,16501.75,0,
2023-02-05,16501.75,0.0,16501.75,0,
2023-02-06,16501.75,0.0,16501.75,0,
2023-02-07,16501.75,0.0,16501.75,0,
2023-02-08,16501.75,0.0,16501.75,0,
2023-02-09,16501.75,0.0,16501.75,0,
2023-02-10,16501.75,0.0,16501.75,0,
2023-02-12,16501.75,0.0,16501.75,0,
2023-02-13,16501.75,0.0,16501.75,0,
2023-02-14,16501.75,0.0,16501.75,0,
2023-02-15,16501.75,0.0,16501.75,0,
2023-02-16,16501.75,0.0,16501.75,0,
2023-02-17,16501.75,0.0,16501.75,0,
2023-02-19,16501.75,0.0,16501.75,0,
2023-02-20,16501.75,0.0,16501.75,0,
2023-02-21,16501.75,0.0,16501.75,0,
2023-02-22,16501.75,0.0,16501.75,0,
2023-02-23,16501.75,0.0,16501.75,0,
2023-02-24,16501.75,0.0,16501.75,0,
2023-02-26,16501.75,0.0,16501.75,0,
2023-02-27,16501.75,0.0,16501.75,0,
2023-02-28,16501.75,0.0,16501.75,0,
2023-03-01,16501.75,0.0,16501.75,0,
2023-03-02,16501.75,0.0,16501.75,0,
2023-03-03,16501.75,0.0,16501.75,0,
2023-03-05,16501.75,0.0,16501.75,0,
2023-03-06,16501.75,0.0,16501.75,0,
2023-03-07,16501.75,0.0,16501.75,0,
2023-03-08,16501.75,0.0,16501.75,0,
2023-03-09,16501.75,0.0,16501.75,0,
2023-03-10,16501.75,0.0,16501.75,0,
2023-03-12,16501.75,0.0,16501.75,0,
2023-03-13,16501.75,0.0,16501.75,0,
2023-03-14,16501.75,0.0,16501.75,0,
2023-03-15,16501.75,0.0,16501.75,0,
2023-03-16,16501.75,0.0,16501.75,0,
2023-03-17,16501.75,0.0,16501.75,0,
2023-03-19,16501.75,0.0,16501.75,0,
2023-03-20,16501.75,0.0,16501.75,0,
2023-03-21,16501.75,0.0,16501.75,0,
2023-03-22,16501.75,0.0,16501.75,0,
2023-03-23,16501.75,0.0,16501.75,0,
2023-03-24,16501.75,0.0,16501.75,0,
2023-03-26,16501.75,0.0,16501.75,0,
2023-03-27,16501.75,0.0,16501.75,0,
2023-03-28,16501.75,0.0,16501.75,0,
2023-03-29,16501.75,0.0,16501.75,0,
2023-03-30,16501.75,0.0,16501.75,0,
2023-03-31,16501.75,0.0,16501.75,0,
2023-04-02,16501.75,0.0,16501.75,0,
2023-04-03,16501.75,0.0,16501.75,0,
2023-04-04,16501.75,0.0,16501.75,0,
2023-04-05,16501.75,0.0,16501.75,0,
2023-04-06,16501.75,0.0,16501.75,0,
2023-04-07,16501.75,0.0,16501.75,0,
2023-04-09,16501.75,0.0,16501.75,0,
2023-04-10,16501.75,0.0,16501.75,0,
2023-04-11,16501.75,0.0,16501.75,0,
2023-04-12,16501.75,0.0,16501.75,0,
2023-04-13,16501.75,0.0,16501.75,0,
2023-04-14,16501.75,0.0,16501.75,0,
2023-04-16,16501.75,0.0,16501.75,0,
2023-04-17,16501.75,0.0,16501.75,0,
2023-04-18,16501.75,0.0,16501.75,0,
2023-04-19,16501.75,0.0,16501.75,0,
2023-04-20,16501.75,0.0,16501.75,0,
2023-04-21,16501.75,0.0,16501.75,0,
2023-04-23,16501.75,0.0,16501.75,0,
2023-04-24,16501.75,0.0,16501.75,0,
2023-04-25,16501.75,0.0,16501.75,0,
2023-04-26,16501.75,0.0,16501.75,0,
2023-04-27,16501.75,0.0,16501.75,0,
2023-04-28,16501.75,0.0,16501.75,0,
2023-04-30,16501.75,0.0,16501.75,0,
2023-05-01,16501.75,0.0,16501.75,0,
2023-05-02,16501.75,0.0,16501.75,0,
2023-05-03,16501.75,0.0,16501.75,0,
2023-05-04,16501.75,0.0,16501.75,0,
2023-05-05,16501.75,0.0,16501.75,0,
2023-05-07,16501.75,0.0,16501.75,0,
2023-05-08,16501.75,0.0,16501.75,0,
2023-05-09,16501.75,0.0,16501.75,0,
2023-05-10,16501.75,0.0,16501.75,0,
2023-05-11,16501.75,0.0,16501.75,0,
2023-05-12,16501.75,0.0,16501.75,0,
2023-05-14,16501.75,0.0,16501.75,0,
2023-05-15,16501.75,0.0,16501.75,0,
2023-05-16,16501.75,0.0,16501.75,0,
2023-05-17,16501.75,0.0,16501.75,0,
2023-05-18,16501.75,0.0,16501.75,0,
2023-05-19,16501.75,0.0,16501.75,0,
2023-05-21,16501.75,0.0,16501.75,0,
2023-05-22,16501.75,0.0,16501.75,0,
2023-05-23,16501.75,0.0,16501.75,0,
2023-05-24,16501.75,0.0,16501.75,0,
2023-05-25,16501.75,0.0,16501.75,0,
2023-05-26,16501.75,0.0,16501.75,0,
2023-05-28,16501.75,0.0,16501.75,0,
2023-05-29,16501.75,0.0,16501.75,0,
2023-05-30,16501.75,0.0,16501.75,0,
2023-05-31,16501.75,0.0,16501.75,0,
2023-06-01,16501.75,0.0,16501.75,0,
2023-06-02,16501.75,0.0,16501.75,0,
2023-06-04,16501.75,0.0,16501.75,0,
2023-06-05,16501.75,0.0,16501.75,0,
2023-06-06,16501.75,0.0,16501.75,0,
2023-06-07,16501.75,0.0,16501.75,0,
2023-06-08,16501.75,0.0,16501.75,0,
2023-06-09,16501.75,0.0,16501.75,0,
2023-06-11,16501.75,0.0,16501.75,0,
2023-06-12,16501.75,0.0,16501.75,0,
2023-06-13,16501.75,0.0,16501.75,0,
2023-06-14,16501.75,0.0,16501.75,0,
2023-06-15,16501.75,0.0,16501.75,0,
2023-06-16,16501.75,0.0,16501.75,0,
2023-06-18,16501.75,0.0,16501.75,0,
2023-06-19,16501.75,0.0,16501.75,0,
2023-06-20,16501.75,0.0,16501.75,0,
2023-06-21,16501.75,0.0,16501.75,0,
2023-06-22,16501.75,0.0,16501.75,0,
2023-06-23,16501.75,0.0,16501.75,0,
2023-06-25,16501.75,0.0,16501.75,0,
2023-06-26,16501.75,0.0,16501.75,0,
2023-06-27,16501.75,0.0,16501.75,0,
2023-06-28,16501.75,0.0,16501.75,0,
2023-06-29,16501.75,0.0,16501.75,0,
2023-06-30,16501.75,0.0,16501.75,0,
2023-07-02,16501.75,0.0,16501.75,0,
2023-07-03,16501.75,0.0,16501.75,0,
2023-07-04,16501.75,0.0,16501.75,0,
2023-07-05,16501.75,0.0,16501.75,0,
2023-07-06,16501.75,0.0,16501.75,0,
2023-07-07,16501.75,0.0,16501.75,0,
2023-07-09,16501.75,0.0,16501.75,0,
2023-07-10,16501.75,0.0,16501.75,0,
2023-07-11,16501.75,0.0,16501.75,0,
2023-07-12,16501.75,0.0,16501.75,0,
2023-07-13,16501.75,0.0,16501.75,0,
2023-07-14,16501.75,0.0,16501.75,0,
2023-07-16,16501.75,0.0,16501.75,0,
2023-07-17,16501.75,0.0,16501.75,0,
2023-07-18,16501.75,0.0,16501.75,0,
2023-07-19,16501.75,0.0,16501.75,0,
2023-07-20,16501.75,0.0,16501.75,0,
2023-07-21,16501.75,0.0,16501.75,0,
2023-07-23,16501.75,0.0,16501.75,0,
2023-07-24,16501.75,0.0,16501.75,0,
2023-07-25,16501.75,0.0,16501.75,0,
2023-07-26,16501.75,0.0,16501.75,0,
2023-07-27,16501.75,0.0,16501.75,0,
2023-07-28,16501.75,0.0,16501.75,0,
2023-07-30,16501.75,0.0,16501.75,0,
2023-07-31,16501.75,0.0,16501.75,0,
2023-08-01,16501.75,0.0,16501.75,0,
2023-08-02,16501.75,0.0,16501.75,0,
2023-08-03,16501.75,0.0,16501.75,0,
2023-08-04,16501.75,0.0,16501.75,0,
2023-08-06,16501.75,0.0,16501.75,0,
2023-08-07,16501.75,0.0,16501.75,0,
2023-08-08,16501.75,0.0,16501.75,0,
2023-08-09,16501.75,0.0,16501.75,0,
2023-08-10,16501.75,0.0,16501.75,0,
2023-08-11,16501.75,0.0,16501.75,0,
2023-08-13,16501.75,0.0,16501.75,0,
2023-08-14,16501.75,0.0,16501.75,0,
2023-08-15,16501.75,0.0,16501.75,0,
2023-08-16,16501.75,0.0,16501.75,0,
2023-08-17,16501.75,0.0,16501.75,0,
2023-08-18,16501.75,0.0,16501.75,0,
2023-08-20,16501.75,0.0,16501.75,0,
2023-08-21,16501.75,0.0,16501.75,0,
2023-08-22,16501.75,0.0,16501.75,0,
2023-08-23,16501.75,0.0,16501.75,0,
2023-08-24,16501.75,0.0,16501.75,0,
2023-08-25,16501.75,0.0,16501.75,0,
2023-08-27,16501.75,0.0,16501.75,0,
2023-08-28,16501.75,0.0,16501.75,0,
2023-08-29,16501.75,337.75,16839.5,1,Long
2023-08-30,16501.75,405.75,16907.5,1,Long
2023-08-31,16501.75,439.25,16941.0,1,Long
2023-09-01,16501.75,415.25,16917.0,1,Long
2023-09-03,16501.75,419.5,16921.25,1,Long
2023-09-04,16501.75,429.0,16930.75,1,Long
2023-09-05,16501.75,424.75,16926.5,1,Long
2023-09-06,16501.75,294.0,16795.75,1,Long
2023-09-07,16501.75,183.5,16685.25,1,Long
2023-09-08,16501.75,257.75,16759.5,2,Long
2023-09-10,16501.75,274.25,16776.0,2,Long
2023-09-11,16501.75,945.75,17447.5,2,Long
2023-09-12,16501.75,639.75,17141.5,2,Long
2023-09-13,16501.75,787.75,17289.5,2,Long
2023-09-14,16501.75,982.75,17484.5,2,Long
2023-09-15,16501.75,394.75,16896.5,2,Long
2023-09-17,16501.75,454.75,16956.5,2,Long
2023-09-18,16501.75,477.25,16979.0,2,Long
2023-09-19,16501.75,395.25,16897.0,2,Long
2023-09-20,16501.75,-144.25,16357.5,2,Long
2023-09-21,16356.0,0.0,16356.0,0,
2023-09-22,16356.0,0.0,16356.0,0,
2023-09-24,16356.0,0.0,16356.0,0,
2023-09-25,16356.0,0.0,16356.0,0,
2023-09-26,16356.0,0.0,16356.0,0,
2023-09-27,16356.0,0.0,16356.0,0,
2023-09-28,16356.0,0.0,16356.0,0,
2023-09-29,16356.0,0.0,16356.0,0,
2023-10-01,16356.0,0.0,16356.0,0,
2023-10-02,16356.0,0.0,16356.0,0,
2023-10-03,16356.0,0.0,16356.0,0,
2023-10-04,16356.0,0.0,16356.0,0,
2023-10-05,16356.0,0.0,16356.0,0,
2023-10-06,16356.0,0.0,16356.0,0,
2023-10-08,16356.0,0.0,16356.0,0,
2023-10-09,16356.0,0.0,16356.0,0,
2023-10-10,16356.0,0.0,16356.0,0,
2023-10-11,16356.0,127.5,16483.5,1,Long
2023-10-12,16356.0,42.25,16398.25,1,Long
2023-10-13,16356.0,-181.0,16175.0,1,Long
2023-10-15,16188.0,0.0,16188.0,0,
2023-10-16,16188.0,0.0,16188.0,0,
2023-10-17,16188.0,-79.25,16108.75,1,Long
2023-10-18,16107.75,0.0,16107.75,0,
2023-10-19,16107.75,0.0,16107.75,0,
2023-10-20,16107.75,0.0,16107.75,0,
2023-10-22,16107.75,0.0,16107.75,0,
2023-10-23,16107.75,0.0,16107.75,0,
2023-10-24,16107.75,0.0,16107.75,0,
2023-10-25,16107.75,0.0,16107.75,0,
2023-10-26,16107.75,0.0,16107.75,0,
2023-10-27,16107.75,0.0,16107.75,0,
2023-10-29,16107.75,0.0,16107.75,0,
2023-10-30,16107.75,0.0,16107.75,0,
2023-10-31,16107.75,0.0,16107.75,0,
2023-11-01,16107.75,0.0,16107.75,0,
2023-11-02,16107.75,0.0,16107.75,0,
2023-11-03,16107.75,241.0,16348.75,1,Long
2023-11-05,16107.75,232.25,16340.0,1,Long
2023-11-06,16107.75,265.25,16373.0,1,Long
2023-11-07,16107.75,424.75,16532.5,1,Long
2023-11-08,16107.75,414.5,16522.25,1,Long
2023-11-09,16107.75,289.25,16397.0,1,Long
2023-11-10,16107.75,637.75,16745.5,1,Long
2023-11-12,16107.75,616.75,16724.5,1,Long
2023-11-13,16107.75,615.0,16722.75,1,Long
2023-11-14,16107.75,961.25,17069.0,1,Long
2023-11-15,16107.75,921.5,17029.25,1,Long
2023-11-16,16107.75,942.25,17050.0,1,Long
2023-11-17,16107.75,931.25,17039.0,2,Long
2023-11-19,16107.75,910.75,17018.5,2,Long
2023-11-20,16107.75,1384.75,17492.5,2,Long
2023-11-21,16107.75,1091.75,17199.5,2,Long
2023-11-22,16107.75,1274.75,17382.5,2,Long
2023-11-23,16107.75,1312.25,17420.0,2,Long
2023-11-24,16107.75,1204.75,17312.5,2,Long
2023-11-26,16107.75,1155.75,17263.5,2,Long
2023-11-27,16107.75,1202.75,17310.5,2,Long
2023-11-28,16107.75,1289.75,17397.5,2,Long
2023-11-29,16107.75,1277.25,17385.0,2,Long
2023-11-30,16107.75,1112.25,17220.0,2,Long
2023-12-01,16107.75,1270.75,17378.5,4,Long
2023-12-03,16107.75,1114.75,17222.5,4,Long
2023-12-04,16107.75,544.75,16652.5,4,Long
2023-12-05,16107.75,858.75,16966.5,4,Long
2023-12-06,16107.75,412.75,16520.5,4,Long
2023-12-07,16107.75,1226.75,17334.5,4,Long
2023-12-08,16107.75,1516.75,17624.5,4,Long
2023-12-10,16107.75,1564.75,17672.5,4,Long
2023-12-11,16107.75,2965.75,19073.5,4,Long
2023-12-12,16107.75,3584.75,19692.5,4,Long
2023-12-13,16107.75,4410.75,20518.5,4,Long
2023-12-14,16107.75,4188.75,20296.5,4,Long
2023-12-15,16107.75,4372.75,20480.5,6,Long
2023-12-17,16107.75,4419.25,20527.0,6,Long
2023-12-18,16107.75,5022.25,21130.0,6,Long
2023-12-19,16107.75,5643.25,21751.0,6,Long
2023-12-20,16107.75,4347.25,20455.0,6,Long
2023-12-21,16107.75,5128.75,21236.5,6,Long
2023-12-22,16107.75,5251.75,21359.5,6,Long
2023-12-25,16107.75,5500.75,21608.5,6,Long
2023-12-26,16107.75,6013.75,22121.5,6,Long
2023-12-27,16107.75,6207.25,22315.0,6,Long
2023-12-28,16107.75,6081.25,22189.0,6,Long
2023-12-29,16107.75,5473.75,21581.5,8,Long
2024-01-01,16107.75,5679.75,21787.5,8,Long
2024-01-02,16107.75,3237.75,19345.5,8,Long
2024-01-03,19347.5,0.0,19347.5,0,
2024-01-04,19347.5,0.0,19347.5,0,
2024-01-05,19347.5,0.0,19347.5,0,
2024-01-07,19347.5,0.0,19347.5,0,
2024-01-08,19347.5,0.0,19347.5,0,
2024-01-09,19347.5,0.0,19347.5,0,
2024-01-10,19347.5,0.0,19347.5,0,
2024-01-11,19347.5,0.0,19347.5,0,
2024-01-12,19347.5,0.0,19347.5,0,
2024-01-14,19347.5,0.0,19347.5,0,
2024-01-15,19347.5,0.0,19347.5,0,
2024-01-16,19347.5,0.0,19347.5,0,
2024-01-17,19347.5,0.0,19347.5,0,
2024-01-18,19347.5,0.0,19347.5,0,
2024-01-19,19347.5,0.0,19347.5,0,
2024-01-21,19347.5,0.0,19347.5,0,
2024-01-22,19347.5,0.0,19347.5,0,
2024-01-23,19347.5,0.0,19347.5,0,
2024-01-24,19347.5,0.0,19347.5,0,
2024-01-25,19347.5,0.0,19347.5,0,
2024-01-26,19347.5,0.0,19347.5,0,
2024-01-28,19347.5,0.0,19347.5,0,
2024-01-29,19347.5,0.0,19347.5,0,
2024-01-30,19347.5,0.0,19347.5,0,
2024-01-31,19347.5,0.0,19347.5,0,
2024-02-01,19347.5,0.0,19347.5,0,
2024-02-02,19347.5,0.0,19347.5,0,
2024-02-04,19347.5,0.0,19347.5,0,
2024-02-05,19347.5,0.0,19347.5,0,
2024-02-06,19347.5,0.0,19347.5,0,
2024-02-07,19347.5,0.0,19347.5,0,
2024-02-08,19347.5,0.0,19347.5,0,
2024-02-09,19347.5,0.0,19347.5,0,
2024-02-11,19347.5,0.0,19347.5,0,
2024-02-12,19347.5,0.0,19347.5,0,
2024-02-13,19347.5,0.0,19347.5,0,
2024-02-14,19347.5,0.0,19347.5,0,
2024-02-15,19347.5,0.0,19347.5,0,
2024-02-16,19347.5,0.0,19347.5,0,
2024-02-18,19347.5,0.0,19347.5,0,
2024-02-19,19347.5,0.0,19347.5,0,
2024-02-20,19347.5,0.0,19347.5,0,
2024-02-21,19347.5,0.0,19347.5,0,
2024-02-22,19347.5,0.0,19347.5,0,
2024-02-23,19347.5,0.0,19347.5,0,
2024-02-25,19347.5,0.0,19347.5,0,
2024-02-26,19347.5,0.0,19347.5,0,
2024-02-27,19347.5,0.0,19347.5,0,
2024-02-28,19347.5,0.0,19347.5,0,
2024-02-29,19347.5,0.0,19347.5,0,
2024-03-01,19347.5,0.0,19347.5,0,
2024-03-03,19347.5,0.0,19347.5,0,
2024-03-04,19347.5,0.0,19347.5,0,
2024-03-05,19347.5,0.0,19347.5,0,
2024-03-06,19347.5,0.0,19347.5,0,
2024-03-07,19347.5,0.0,19347.5,0,
2024-03-08,19347.5,0.0,19347.5,0,
2024-03-10,19347.5,0.0,19347.5,0,
2024-03-11,19347.5,0.0,19347.5,0,
2024-03-12,19347.5,0.0,19347.5,0,
2024-03-13,19347.5,0.0,19347.5,0,
2024-03-14,19347.5,0.0,19347.5,0,
2024-03-15,19347.5,0.0,19347.5,0,
2024-03-17,19347.5,0.0,19347.5,0,
2024-03-18,19347.5,0.0,19347.5,0,
2024-03-19,19347.5,0.0,19347.5,0,
2024-03-20,19347.5,0.0,19347.5,0,
2024-03-21,19347.5,0.0,19347.5,0,
2024-03-22,19347.5,0.0,19347.5,0,
2024-03-24,19347.5,0.0,19347.5,0,
2024-03-25,19347.5,0.0,19347.5,0,
2024-03-26,19347.5,0.0,19347.5,0,
2024-03-27,19347.5,0.0,19347.5,0,
2024-03-28,19347.5,0.0,19347.5,0,
2024-03-31,19347.5,0.0,19347.5,0,
2024-04-01,19347.5,0.0,19347.5,0,
2024-04-02,19347.5,0.0,19347.5,0,
2024-04-03,19347.5,0.0,19347.5,0,
2024-04-04,19347.5,0.0,19347.5,0,
2024-04-05,19347.5,0.0,19347.5,0,
2024-04-07,19347.5,0.0,19347.5,0,
2024-04-08,19347.5,0.0,19347.5,0,
2024-04-09,19347.5,0.0,19347.5,0,
2024-04-10,19347.5,0.0,19347.5,0,
2024-04-11,19347.5,0.0,19347.5,0,
2024-04-12,19347.5,0.0,19347.5,0,
2024-04-14,19347.5,0.0,19347.5,0,
2024-04-15,19347.5,0.0,19347.5,0,
2024-04-16,19347.5,0.0,19347.5,0,
2024-04-17,19347.5,0.0,19347.5,0,
2024-04-18,19347.5,0.0,19347.5,0,
2024-04-19,19347.5,0.0,19347.5,0,
2024-04-21,19347.5,0.0,19347.5,0,
2024-04-22,19347.5,0.0,19347.5,0,
2024-04-23,19347.5,0.0,19347.5,0,
2024-04-24,19347.5,0.0,19347.5,0,
2024-04-25,19347.5,0.0,19347.5,0,
2024-04-26,19347.5,0.0,19347.5,0,
2024-04-28,19347.5,0.0,19347.5,0,
2024-04-29,19347.5,0.0,19347.5,0,
2024-04-30,19347.5,0.0,19347.5,0,
2024-05-01,19347.5,0.0,19347.5,0,
2024-05-02,19347.5,0.0,19347.5,0,
2024-05-03,19347.5,0.0,19347.5,0,
2024-05-05,19347.5,0.0,19347.5,0,
2024-05-06,19347.5,0.0,19347.5,0,
2024-05-07,19347.5,0.0,19347.5,0,
2024-05-08,19347.5,0.0,19347.5,0,
2024-05-09,19347.5,0.0,19347.5,0,
2024-05-10,19347.5,0.0,19347.5,0,
2024-05-12,19347.5,0.0,19347.5,0,
2024-05-13,19347.5,0.0,19347.5,0,
2024-05-14,19347.5,0.0,19347.5,0,
2024-05-15,19347.5,0.0,19347.5,0,
2024-05-16,19347.5,0.0,19347.5,0,
2024-05-17,19347.5,0.0,19347.5,0,
2024-05-19,19347.5,0.0,19347.5,0,
2024-05-20,19347.5,0.0,19347.5,0,
2024-05-21,19347.5,0.0,19347.5,0,
2024-05-22,19347.5,0.0,19347.5,0,
2024-05-23,19347.5,0.0,19347.5,0,
2024-05-24,19347.5,0.0,19347.5,0,
2024-05-26,19347.5,0.0,19347.5,0,
2024-05-27,19347.5,0.0,19347.5,0,
2024-05-28,19347.5,0.0,19347.5,0,
2024-05-29,19347.5,0.0,19347.5,0,
2024-05-30,19347.5,0.0,19347.5,0,
2024-05-31,19347.5,0.0,19347.5,0,
2024-06-02,19347.5,0.0,19347.5,0,
2024-06-03,19347.5,0.0,19347.5,0,
2024-06-04,19347.5,0.0,19347.5,0,
2024-06-05,19347.5,0.0,19347.5,0,
2024-06-06,19347.5,0.0,19347.5,0,
2024-06-07,19347.5,0.0,19347.5,0,
2024-06-09,19347.5,0.0,19347.5,0,
2024-06-10,19347.5,0.0,19347.5,0,
2024-06-11,19347.5,0.0,19347.5,0,
2024-06-12,19347.5,0.0,19347.5,0,
2024-06-13,19347.5,0.0,19347.5,0,
2024-06-14,19347.5,0.0,19347.5,0,
2024-06-16,19347.5,0.0,19347.5,0,
2024-06-17,19347.5,0.0,19347.5,0,
2024-06-18,19347.5,0.0,19347.5,0,
2024-06-19,19347.5,0.0,19347.5,0,
2024-06-20,19347.5,0.0,19347.5,0,
2024-06-21,19347.5,0.0,19347.5,0,
2024-06-23,19347.5,0.0,19347.5,0,
2024-06-24,19347.5,0.0,19347.5,0,
2024-06-25,19347.5,0.0,19347.5,0,
2024-06-26,19347.5,0.0,19347.5,0,
2024-06-27,19347.5,0.0,19347.5,0,
2024-06-28,19347.5,0.0,19347.5,0,
2024-06-30,19347.5,0.0,19347.5,0,
2024-07-01,19347.5,0.0,19347.5,0,
2024-07-02,19347.5,0.0,19347.5,0,
2024-07-03,19347.5,0.0,19347.5,0,
2024-07-04,19347.5,0.0,19347.5,0,
2024-07-05,19347.5,0.0,19347.5,0,
2024-07-07,19347.5,0.0,19347.5,0,
2024-07-08,19347.5,0.0,19347.5,0,
2024-07-09,19347.5,0.0,19347.5,0,
2024-07-10,19347.5,0.0,19347.5,0,
2024-07-11,19347.5,0.0,19347.5,0,
2024-07-12,19347.5,0.0,19347.5,0,
2024-07-14,19347.5,0.0,19347.5,0,
2024-07-15,19347.5,0.0,19347.5,0,
2024-07-16,19347.5,0.0,19347.5,0,
2024-07-17,19347.5,0.0,19347.5,0,
2024-07-18,19347.5,0.0,19347.5,0,
2024-07-19,19347.5,0.0,19347.5,0,
2024-07-21,19347.5,0.0,19347.5,0,
2024-07-22,19347.5,0.0,19347.5,0,
2024-07-23,19347.5,0.0,19347.5,0,
2024-07-24,19347.5,0.0,19347.5,0,
2024-07-25,19347.5,0.0,19347.5,0,
2024-07-26,19347.5,0.0,19347.5,0,
2024-07-28,19347.5,0.0,19347.5,0,
2024-07-29,19347.5,0.0,19347.5,0,
2024-07-30,19347.5,0.0,19347.5,0,
2024-07-31,19347.5,0.0,19347.5,0,
2024-08-01,19347.5,0.0,19347.5,0,
2024-08-02,19347.5,0.0,19347.5,0,
2024-08-04,19347.5,0.0,19347.5,0,
2024-08-05,19347.5,0.0,19347.5,0,
2024-08-06,19347.5,0.0,19347.5,0,
2024-08-07,19347.5,0.0,19347.5,0,
2024-08-08,19347.5,0.0,19347.5,0,
2024-08-09,19347.5,0.0,19347.5,0,
2024-08-11,19347.5,0.0,19347.5,0,
2024-08-12,19347.5,0.0,19347.5,0,
2024-08-13,19347.5,462.25,19809.75,1,Long
2024-08-14,19347.5,452.5,19800.0,1,Long
2024-08-15,19347.5,959.5,20307.0,1,Long
2024-08-16,19347.5,950.0,20297.5,1,Long
2024-08-18,19347.5,994.0,20341.5,1,Long
2024-08-19,19347.5,1206.5,20554.0,1,Long
2024-08-20,19347.5,1135.5,20483.0,1,Long
2024-08-21,19347.5,1282.0,20629.5,1,Long
2024-08-22,19347.5,984.25,20331.75,1,Long
2024-08-23,19347.5,1137.0,20484.5,2,Long
2024-08-25,19347.5,1107.5,20455.0,2,Long
2024-08-26,19347.5,724.0,20071.5,2,Long
2024-08-27,19347.5,755.5,20103.0,2,Long
2024-08-28,19347.5,-33.0,19314.5,2,Long
2024-08-29,19347.5,441.5,19789.0,2,Long
2024-08-30,19347.5,769.5,20117.0,2,Long
2024-09-01,19347.5,753.5,20101.0,2,Long
2024-09-02,19347.5,742.5,20090.0,2,Long
2024-09-03,19347.5,-503.5,18844.0,2,Long
2024-09-04,19347.5,-553.0,18794.5,2,Long
2024-09-05,19347.5,-593.5,18754.0,2,Long
2024-09-06,18752.0,0.0,18752.0,0,
2024-09-08,18752.0,0.0,18752.0,0,
2024-09-09,18752.0,0.0,18752.0,0,
2024-09-10,18752.0,0.0,18752.0,0,
2024-09-11,18752.0,0.0,18752.0,0,
2024-09-12,18752.0,0.0,18752.0,0,
2024-09-13,18752.0,51.25,18803.25,1,Long
2024-09-15,18752.0,85.75,18837.75,1,Long
2024-09-16,18752.0,220.25,18972.25,1,Long
2024-09-17,18752.0,252.75,19004.75,1,Long
2024-09-18,18752.0,310.75,19062.75,1,Long
2024-09-19,18752.0,596.5,19348.5,1,Long
2024-09-20,18752.0,561.75,19313.75,1,Long
2024-09-22,18752.0,609.5,19361.5,1,Long
2024-09-23,18752.0,615.75,19367.75,1,Long
2024-09-24,18752.0,727.0,19479.0,1,Long
2024-09-25,18752.0,825.0,19577.0,1,Long
2024-09-26,18752.0,891.25,19643.25,1,Long
2024-09-27,18752.0,720.0,19472.0,2,Long
2024-09-29,18752.0,878.0,19630.0,2,Long
2024-09-30,18752.0,828.0,19580.0,2,Long
2024-10-01,18752.0,198.0,18950.0,2,Long
2024-10-02,18752.0,442.5,19194.5,2,Long
2024-10-03,18752.0,299.0,19051.0,2,Long
2024-10-04,18752.0,739.5,19491.5,2,Long
2024-10-06,18752.0,794.0,19546.0,2,Long
2024-10-07,18752.0,299.0,19051.0,2,Long
2024-10-08,18752.0,879.0,19631.0,2,Long
2024-10-09,18752.0,1233.5,19985.5,2,Long
2024-10-10,18752.0,1236.0,19988.0,2,Long
2024-10-11,18752.0,1037.5,19789.5,4,Long
2024-10-13,18752.0,1096.5,19848.5,4,Long
2024-10-14,18752.0,1915.5,20667.5,4,Long
2024-10-15,18752.0,795.5,19547.5,4,Long
2024-10-16,18752.0,643.5,19395.5,4,Long
2024-10-17,18752.0,1008.5,19760.5,4,Long
2024-10-18,18752.0,1325.5,20077.5,4,Long
2024-10-20,18752.0,1442.5,20194.5,4,Long
2024-10-21,18752.0,1451.5,20203.5,4,Long
2024-10-22,18752.0,1506.5,20258.5,4,Long
2024-10-23,18752.0,548.5,19300.5,4,Long
2024-10-24,18752.0,912.5,19664.5,4,Long
2024-10-25,18752.0,1212.5,19964.5,6,Long
2024-10-27,18752.0,1940.0,20692.0,6,Long
2024-10-28,18752.0,1397.0,20149.0,6,Long
2024-10-29,18752.0,2837.0,21589.0,6,Long
2024-10-30,18752.0,908.0,19660.0,6,Long
2024-10-31,18752.0,-1207.0,17545.0,6,Long
2024-11-01,18752.0,-634.0,18118.0,6,Long
2024-11-03,18752.0,-841.0,17911.0,6,Long
2024-11-04,18752.0,-1121.5,17630.5,6,Long
2024-11-05,18752.0,413.0,19165.0,6,Long
2024-11-06,18752.0,3695.0,22447.0,6,Long
2024-11-07,18752.0,5709.5,24461.5,6,Long
2024-11-08,18752.0,5727.5,24479.5,8,Long
2024-11-10,18752.0,6343.5,25095.5,8,Long
2024-11-11,18752.0,5639.5,24391.5,8,Long
2024-11-12,18752.0,5191.5,23943.5,8,Long
2024-11-13,18752.0,5239.5,23991.5,8,Long
2024-11-14,18752.0,3507.5,22259.5,8,Long
2024-11-15,18752.0,-60.5,18691.5,8,Long
2024-11-17,18752.0,457.5,19209.5,8,Long
2024-11-18,18752.0,889.5,19641.5,8,Long
2024-11-19,18752.0,2175.5,20927.5,8,Long
2024-11-20,18752.0,1931.5,20683.5,8,Long
2024-11-21,18752.0,2099.5,20851.5,8,Long
2024-11-22,18752.0,2981.25,21733.25,9,Long
2024-11-24,18752.0,3496.5,22248.5,9,Long
2024-11-25,18752.0,2583.0,21335.0,9,Long
2024-11-26,18752.0,3946.5,22698.5,9,Long
2024-11-27,18752.0,2484.0,21236.0,9,Long
2024-11-28,18752.0,3064.5,21816.5,9,Long
2024-11-29,18752.0,3998.25,22750.25,9,Long
2024-12-01,18752.0,3755.25,22507.25,9,Long
2024-12-02,18752.0,5998.5,24750.5,9,Long
2024-12-03,18752.0,7069.5,25821.5,9,Long
2024-12-04,18752.0,8667.0,27419.0,9,Long
2024-12-05,18752.0,8176.5,26928.5,9,Long
2024-12-06,18752.0,9771.75,28523.75,10,Long
2024-12-08,18752.0,10009.25,28761.25,10,Long
2024-12-09,18752.0,8086.75,26838.75,10,Long
2024-12-10,18752.0,7716.75,26468.75,10,Long
2024-12-11,18752.0,11014.25,29766.25,10,Long
2024-12-12,18752.0,10876.75,29628.75,10,Long
2024-12-13,18752.0,11036.75,29788.75,10,Long
2024-12-15,18752.0,11324.25,30076.25,10,Long
2024-12-16,18752.0,14421.75,33173.75,10,Long
2024-12-17,18752.0,16174.25,34926.25,10,Long
2024-12-18,34926.25,0.0,34926.25,0,
2024-12-19,34926.25,0.0,34926.25,0,
2024-12-20,34926.25,0.0,34926.25,0,
2024-12-22,34926.25,0.0,34926.25,0,
2024-12-23,34926.25,0.0,34926.25,0,
2024-12-24,34926.25,0.0,34926.25,0,
2024-12-25,34926.25,0.0,34926.25,0,
2024-12-26,34926.25,0.0,34926.25,0,
2024-12-27,34926.25,0.0,34926.25,0,
2024-12-29,34926.25,0.0,34926.25,0,
2024-12-30,34926.25,0.0,34926.25,0,
2024-12-31,34926.25,0.0,34926.25,0,
2025-01-01,34926.25,0.0,34926.25,0,
2025-01-02,34926.25,0.0,34926.25,0,
2025-01-03,34926.25,0.0,34926.25,0,
2025-01-05,34926.25,0.0,34926.25,0,
2025-01-06,34926.25,0.0,34926.25,0,
2025-01-07,34926.25,0.0,34926.25,0,
2025-01-08,34926.25,0.0,34926.25,0,
2025-01-09,34926.25,0.0,34926.25,0,
2025-01-10,34926.25,0.0,34926.25,0,
2025-01-12,34926.25,0.0,34926.25,0,
2025-01-13,34926.25,0.0,34926.25,0,
2025-01-14,34926.25,0.0,34926.25,0,
2025-01-15,34926.25,0.0,34926.25,0,
2025-01-16,34926.25,0.0,34926.25,0,
2025-01-17,34926.25,0.0,34926.25,0,
2025-01-19,34926.25,0.0,34926.25,0,
2025-01-20,34926.25,0.0,34926.25,0,
2025-01-21,34926.25,0.0,34926.25,0,
2025-01-22,34926.25,0.0,34926.25,0,
2025-01-23,34926.25,0.0,34926.25,0,
2025-01-24,34926.25,0.0,34926.25,0,
2025-01-26,34926.25,0.0,34926.25,0,
2025-01-27,34926.25,0.0,34926.25,0,
2025-01-28,34926.25,0.0,34926.25,0,
2025-01-29,34926.25,0.0,34926.25,0,
2025-01-30,34926.25,0.0,34926.25,0,
2025-01-31,34926.25,0.0,34926.25,0,
2025-02-02,34926.25,0.0,34926.25,0,
2025-02-03,34926.25,0.0,34926.25,0,
2025-02-04,34926.25,0.0,34926.25,0,
2025-02-05,34926.25,0.0,34926.25,0,
2025-02-06,34926.25,0.0,34926.25,0,
2025-02-07,34926.25,0.0,34926.25,0,
2025-02-09,34926.25,0.0,34926.25,0,
2025-02-10,34926.25,0.0,34926.25,0,
2025-02-11,34926.25,0.0,34926.25,0,
2025-02-12,34926.25,0.0,34926.25,0,
2025-02-13,34926.25,0.0,34926.25,0,
2025-02-14,34926.25,0.0,34926.25,0,
2025-02-16,34926.25,0.0,34926.25,0,
2025-02-17,34926.25,0.0,34926.25,0,
2025-02-18,34926.25,0.0,34926.25,0,
2025-02-19,34926.25,0.0,34926.25,0,
2025-02-20,34926.25,0.0,34926.25,0,
2025-02-21,34926.25,0.0,34926.25,0,
2025-02-23,34926.25,0.0,34926.25,0,
2025-02-24,34926.25,0.0,34926.25,0,
2025-02-25,34926.25,0.0,34926.25,0,
2025-02-26,34926.25,0.0,34926.25,0,
2025-02-27,34926.25,0.0,34926.25,0,
2025-02-28,34926.25,0.0,34926.25,0,
2025-03-02,34926.25,0.0,34926.25,0,
2025-03-03,34926.25,0.0,34926.25,0,
2025-03-04,34926.25,0.0,34926.25,0,
2025-03-05,34926.25,0.0,34926.25,0,
2025-03-06,34926.25,0.0,34926.25,0,
2025-03-07,34926.25,0.0,34926.25,0,
2025-03-09,34926.25,0.0,34926.25,0,
2025-03-10,34926.25,0.0,34926.25,0,
2025-03-11,34926.25,0.0,34926.25,0,
2025-03-12,34926.25,0.0,34926.25,0,
2025-03-13,34926.25,0.0,34926.25,0,
2025-03-14,34926.25,0.0,34926.25,0,
2025-03-16,34926.25,0.0,34926.25,0,
2025-03-17,34926.25,0.0,34926.25,0,
2025-03-18,34926.25,0.0,34926.25,0,
2025-03-19,34926.25,0.0,34926.25,0,
2025-03-20,34926.25,0.0,34926.25,0,
2025-03-21,34926.25,0.0,34926.25,0,
2025-03-23,34926.25,0.0,34926.25,0,
2025-03-24,34926.25,0.0,34926.25,0,
2025-03-25,34926.25,0.0,34926.25,0,
2025-03-26,34926.25,0.0,34926.25,0,
2025-03-27,34926.25,0.0,34926.25,0,
2025-03-28,34926.25,0.0,34926.25,0,
2025-03-30,34926.25,0.0,34926.25,0,
2025-03-31,34926.25,0.0,34926.25,0,
2025-04-01,34926.25,0.0,34926.25,0,
2025-04-02,34926.25,0.0,34926.25,0,
2025-04-03,34926.25,0.0,34926.25,0,
2025-04-04,34926.25,0.0,34926.25,0,
2025-04-06,34926.25,0.0,34926.25,0,
2025-04-07,34926.25,0.0,34926.25,0,
2025-04-08,34926.25,0.0,34926.25,0,
2025-04-09,34926.25,0.0,34926.25,0,
2025-04-10,34926.25,0.0,34926.25,0,
2025-04-11,34926.25,0.0,34926.25,0,
2025-04-13,34926.25,0.0,34926.25,0,
2025-04-14,34926.25,0.0,34926.25,0,
2025-04-15,34926.25,0.0,34926.25,0,
2025-04-16,34926.25,0.0,34926.25,0,
2025-04-17,34926.25,0.0,34926.25,0,
2025-04-20,34926.25,0.0,34926.25,0,
2025-04-21,34926.25,0.0,34926.25,0,
2025-04-22,34926.25,0.0,34926.25,0,
2025-04-23,34926.25,0.0,34926.25,0,
2025-04-24,34926.25,0.0,34926.25,0,
2025-04-25,34926.25,0.0,34926.25,0,
2025-04-27,34926.25,0.0,34926.25,0,
2025-04-28,34926.25,0.0,34926.25,0,
2025-04-29,34926.25,0.0,34926.25,0,
2025-04-30,34926.25,0.0,34926.25,0,
2025-05-01,34926.25,0.0,34926.25,0,
2025-05-02,34926.25,0.0,34926.25,0,
2025-05-04,34926.25,0.0,34926.25,0,
2025-05-05,34926.25,0.0,34926.25,0,
2025-05-06,34926.25,0.0,34926.25,0,
2025-05-07,34926.25,0.0,34926.25,0,
2025-05-08,34926.25,0.0,34926.25,0,
2025-05-09,34926.25,0.0,34926.25,0,
2025-05-11,34926.25,0.0,34926.25,0,
2025-05-12,34926.25,0.0,34926.25,0,
2025-05-13,34926.25,0.0,34926.25,0,
2025-05-14,34926.25,0.0,34926.25,0,
2025-05-15,34926.25,0.0,34926.25,0,
2025-05-16,34926.25,0.0,34926.25,0,
2025-05-18,34926.25,0.0,34926.25,0,
2025-05-19,34926.25,0.0,34926.25,0,
2025-05-20,34926.25,0.0,34926.25,0,
2025-05-21,34926.25,0.0,34926.25,0,
2025-05-22,34926.25,0.0,34926.25,0,
2025-05-23,34926.25,0.0,34926.25,0,
2025-05-25,34926.25,0.0,34926.25,0,
2025-05-26,34926.25,0.0,34926.25,0,
2025-05-27,34926.25,0.0,34926.25,0,
2025-05-28,34926.25,0.0,34926.25,0,
2025-05-29,34926.25,0.0,34926.25,0,
2025-05-30,34926.25,0.0,34926.25,0,
2025-06-01,34926.25,0.0,34926.25,0,
2025-06-02,34926.25,0.0,34926.25,0,
2025-06-03,34926.25,0.0,34926.25,0,
2025-06-04,34926.25,0.0,34926.25,0,
2025-06-05,34926.25,0.0,34926.25,0,
2025-06-06,34926.25,0.0,34926.25,0,
2025-06-08,34926.25,0.0,34926.25,0,
2025-06-09,34926.25,0.0,34926.25,0,
2025-06-10,34926.25,0.0,34926.25,0,
2025-06-11,34926.25,0.0,34926.25,0,
2025-06-12,34926.25,0.0,34926.25,0,
2025-06-13,34926.25,0.0,34926.25,0,
2025-06-15,34926.25,0.0,34926.25,0,
2025-06-16,34926.25,0.0,34926.25,0,
2025-06-17,34926.25,0.0,34926.25,0,
2025-06-18,34926.25,0.0,34926.25,0,
2025-06-19,34926.25,0.0,34926.25,0,
2025-06-20,34926.25,0.0,34926.25,0,
2025-06-22,34926.25,0.0,34926.25,0,
2025-06-23,34926.25,0.0,34926.25,0,
2025-06-24,34926.25,0.0,34926.25,0,
2025-06-25,34926.25,0.0,34926.25,0,
2025-06-26,34926.25,0.0,34926.25,0,
2025-06-27,34926.25,0.0,34926.25,0,
2025-06-29,34926.25,0.0,34926.25,0,
2025-06-30,34926.25,0.0,34926.25,0,
2025-07-01,34926.25,0.0,34926.25,0,
2025-07-02,34926.25,0.0,34926.25,0,
2025-07-03,34926.25,0.0,34926.25,0,
2025-07-04,34926.25,0.0,34926.25,0,
2025-07-06,34926.25,0.0,34926.25,0,
2025-07-07,34926.25,0.0,34926.25,0,
2025-07-08,34926.25,0.0,34926.25,0,
2025-07-09,34926.25,0.0,34926.25,0,
2025-07-10,34926.25,0.0,34926.25,0,
2025-07-11,34926.25,0.0,34926.25,0,
2025-07-13,34926.25,0.0,34926.25,0,
2025-07-14,34926.25,0.0,34926.25,0,
2025-07-15,34926.25,0.0,34926.25,0,
2025-07-16,34926.25,0.0,34926.25,0,
2025-07-17,34926.25,0.0,34926.25,0,
2025-07-18,34926.25,0.0,34926.25,0,
2025-07-20,34926.25,0.0,34926.25,0,
2025-07-21,34926.25,0.0,34926.25,0,
2025-07-22,34926.25,0.0,34926.25,0,
2025-07-23,34926.25,0.0,34926.25,0,
2025-07-24,34926.25,0.0,34926.25,0,
2025-07-25,34926.25,0.0,34926.25,0,
2025-07-27,34926.25,0.0,34926.25,0,
2025-07-28,34926.25,0.0,34926.25,0,
2025-07-29,34926.25,0.0,34926.25,0,
2025-07-30,34926.25,0.0,34926.25,0,
2025-07-31,34926.25,0.0,34926.25,0,
2025-08-01,34926.25,0.0,34926.25,0,
2025-08-03,34926.25,0.0,34926.25,0,
2025-08-04,34926.25,0.0,34926.25,0,
2025-08-05,34926.25,0.0,34926.25,0,
2025-08-06,34926.25,0.0,34926.25,0,
2025-08-07,34926.25,0.0,34926.25,0,
2025-08-08,34926.25,227.5,35153.75,1,Long
2025-08-10,34926.25,168.0,35094.25,1,Long
2025-08-11,34926.25,97.0,35023.25,1,Long
2025-08-12,34926.25,420.75,35347.0,1,Long
2025-08-13,34926.25,409.5,35335.75,1,Long
2025-08-14,34926.25,349.0,35275.25,1,Long
2025-08-15,34926.25,256.75,35183.0,1,Long
2025-08-17,34926.25,311.25,35237.5,1,Long
2025-08-18,34926.25,265.0,35191.25,1,Long
2025-08-19,34926.25,-117.75,34808.5,1,Long
2025-08-20,34809.25,0.0,34809.25,0,
2025-08-21,34809.25,0.0,34809.25,0,
2025-08-22,34809.25,0.0,34809.25,0,
2025-08-24,34809.25,-25.5,34783.75,1,Long
2025-08-25,34809.25,-103.5,34705.75,1,Long
2025-08-26,34705.5,0.0,34705.5,0,
2025-08-27,34705.5,-106.25,34599.25,1,Long
2025-08-28,34599.25,0.0,34599.25,0,
2025-08-29,34599.25,-293.0,34306.25,1,Long
2025-08-31,34330.25,0.0,34330.25,0,
2025-09-01,34330.25,0.0,34330.25,0,
2025-09-02,34330.25,0.0,34330.25,0,
2025-09-03,34330.25,0.0,34330.25,0,
2025-09-04,34330.25,0.0,34330.25,0,
2025-09-05,34330.25,-33.25,34297.0,1,Long
2025-09-07,34330.25,71.5,34401.75,1,Long
2025-09-08,34330.25,101.0,34431.25,1,Long
2025-09-09,34330.25,179.5,34509.75,1,Long
2025-09-10,34330.25,194.5,34524.75,1,Long
2025-09-11,34330.25,313.0,34643.25,1,Long
2025-09-12,34330.25,408.25,34738.5,1,Long
2025-09-14,34330.25,404.75,34735.0,1,Long
2025-09-15,34330.25,598.75,34929.0,1,Long
2025-09-16,34330.25,836.75,35167.0,1,Long
2025-09-17,34330.25,877.75,35208.0,1,Long
2025-09-18,34330.25,1033.75,35364.0,1,Long
2025-09-19,34330.25,1172.25,35502.5,2,Long
2025-09-21,34330.25,1152.25,35482.5,2,Long
2025-09-22,34330.25,1444.75,35775.0,2,Long
2025-09-23,34330.25,1131.25,35461.5,2,Long
2025-09-24,34330.25,961.25,35291.5,2,Long
2025-09-25,34330.25,683.25,35013.5,2,Long
2025-09-26,34330.25,904.75,35235.0,2,Long
2025-09-28,34330.25,994.25,35324.5,2,Long
2025-09-29,34330.25,1097.75,35428.0,2,Long
2025-09-30,34330.25,1110.25,35440.5,2,Long
2025-10-01,34330.25,1494.75,35825.0,2,Long
2025-10-02,34330.25,1698.25,36028.5,2,Long
2025-10-03,34330.25,1338.25,35668.5,4,Long
2025-10-05,34330.25,1679.25,36009.5,4,Long
2025-10-06,34330.25,1980.25,36310.5,4,Long
2025-10-07,34330.25,1546.25,35876.5,4,Long
2025-10-08,34330.25,2928.25,37258.5,4,Long
2025-10-09,34330.25,2752.25,37082.5,4,Long
2025-10-10,37084.5,0.0,37084.5,0,
2025-10-12,37084.5,0.0,37084.5,0,
2025-10-13,37084.5,0.0,37084.5,0,
2025-10-14,37084.5,0.0,37084.5,0,
2025-10-15,37084.5,0.0,37084.5,0,
2025-10-16,37084.5,0.0,37084.5,0,
2025-10-17,37084.5,0.0,37084.5,0,
2025-10-19,37084.5,0.0,37084.5,0,
2025-10-20,37084.5,0.0,37084.5,0,
2025-10-21,37084.5,0.0,37084.5,0,
2025-10-22,37084.5,0.0,37084.5,0,
2025-10-23,37084.5,0.0,37084.5,0,
2025-10-24,37084.5,0.0,37084.5,0,
2025-10-26,37084.5,18.75,37103.25,1,Long
2025-10-27,37084.5,296.25,37380.75,1,Long
2025-10-28,37084.5,485.5,37570.0,1,Long
2025-10-29,37084.5,537.25,37621.75,1,Long
2025-10-30,37084.5,472.0,37556.5,1,Long
2025-10-31,37084.5,285.25,37369.75,1,Long
2025-11-02,37084.5,382.25,37466.75,1,Long
2025-11-03,37084.5,370.5,37455.0,1,Long
2025-11-04,37084.5,-194.75,36889.75,1,Long
2025-11-05,36890.25,0.0,36890.25,0,
2025-11-06,36890.25,-456.0,36434.25,1,Long
2025-11-07,36434.25,0.0,36434.25,0,
2025-11-09,36434.25,0.0,36434.25,0,
2025-11-10,36434.25,0.0,36434.25,0,
2025-11-11,36434.25,-91.75,36342.5,1,Long
2025-11-12,36342.75,0.0,36342.75,0,
2025-11-13,36342.75,0.0,36342.75,0,
2025-11-14,36342.75,0.0,36342.75,0,
2025-11-16,36342.75,0.0,36342.75,0,
2025-11-17,36342.75,0.0,36342.75,0,
2025-11-18,36342.75,0.0,36342.75,0,
2025-11-19,36342.75,0.0,36342.75,0,
2025-11-20,36342.75,0.0,36342.75,0,
2025-11-21,36342.75,0.0,36342.75,0,
2025-11-23,36342.75,0.0,36342.75,0,
2025-11-24,36342.75,0.0,36342.75,0,
2025-11-25,36342.75,0.0,36342.75,0,
2025-11-26,36342.75,0.0,36342.75,0,
2025-11-27,36342.75,0.0,36342.75,0,
2025-11-28,36342.75,0.0,36342.75,0,
2025-11-30,36342.75,0.0,36342.75,0,
2025-12-01,36342.75,0.0,36342.75,0,
2025-12-02,36342.75,0.0,36342.75,0,
2025-12-03,36342.75,0.0,36342.75,0,
2025-12-04,36342.75,0.0,36342.75,0,
2025-12-05,36342.75,0.0,36342.75,0,
2025-12-07,36342.75,0.0,36342.75,0,
2025-12-08,36342.75,0.0,36342.75,0,
2025-12-09,36342.75,0.0,36342.75,0,
2025-12-10,36342.75,0.0,36342.75,0,
2025-12-11,36342.75,0.0,36342.75,0,
2025-12-12,36342.75,0.0,36342.75,0,
2025-12-14,36342.75,0.0,36342.75,0,
2025-12-15,36342.75,0.0,36342.75,0,
2025-12-16,36342.75,0.0,36342.75,0,
2025-12-17,36342.75,0.0,36342.75,0,
2025-12-18,36342.75,0.0,36342.75,0,
2025-12-19,36342.75,0.0,36342.75,0,
2025-12-21,36342.75,0.0,36342.75,0,
2025-12-22,36342.75,0.0,36342.75,0,
2025-12-23,36342.75,0.0,36342.75,0,
2025-12-24,36342.75,51.75,36394.5,1,Long
2025-12-25,36342.75,77.25,36420.0,1,Long
2025-12-26,36342.75,47.0,36389.75,1,Long
2025-12-28,36342.75,60.0,36402.75,1,Long
2025-12-29,36342.75,-103.0,36239.75,1,Long
2025-12-30,36240.0,0.0,36240.0,0,
2025-12-31,36240.0,0.0,36240.0,0,
2026-01-01,36240.0,0.0,36240.0,0,
2026-01-02,36240.0,0.0,36240.0,0,
2026-01-04,36240.0,0.0,36240.0,0,
2026-01-05,36240.0,0.0,36240.0,0,
2026-01-06,36240.0,0.0,36240.0,0,
2026-01-07,36240.0,0.0,36240.0,0,
2026-01-08,36240.0,0.0,36240.0,0,
2026-01-09,36240.0,0.0,36240.0,0,
2026-01-11,36240.0,0.0,36240.0,0,
2026-01-12,36240.0,0.0,36240.0,0,
2026-01-13,36240.0,0.0,36240.0,0,
2026-01-14,36240.0,0.0,36240.0,0,
2026-01-15,36240.0,0.0,36240.0,0,
2026-01-16,36240.0,0.0,36240.0,0,
2026-01-18,36240.0,0.0,36240.0,0,
2026-01-19,36240.0,0.0,36240.0,0,
2026-01-20,36240.0,0.0,36240.0,0,
2026-01-21,36240.0,0.0,36240.0,0,
2026-01-22,36240.0,0.0,36240.0,0,
2026-01-23,36240.0,0.0,36240.0,0,
2026-01-25,36240.0,0.0,36240.0,0,
2026-01-26,36240.0,0.0,36240.0,0,
2026-01-27,36240.0,0.0,36240.0,0,
2026-01-28,36240.0,0.0,36240.0,0,
2026-01-29,36240.0,0.0,36240.0,0,
2026-01-30,36240.0,0.0,36240.0,0,
2026-02-01,36240.0,0.0,36240.0,0,
2026-02-02,36240.0,0.0,36240.0,0,
2026-02-03,36240.0,0.0,36240.0,0,
2026-02-04,36240.0,0.0,36240.0,0,
2026-02-05,36240.0,0.0,36240.0,0,
2026-02-06,36240.0,0.0,36240.0,0,
2026-02-08,36240.0,0.0,36240.0,0,
2026-02-09,36240.0,0.0,36240.0,0,
2026-02-10,36240.0,0.0,36240.0,0,
2026-02-11,36240.0,0.0,36240.0,0,
2026-02-12,36240.0,0.0,36240.0,0,
2026-02-13,36240.0,0.0,36240.0,0,
2026-02-15,36240.0,0.0,36240.0,0,
2026-02-16,36240.0,0.0,36240.0,0,
2026-02-17,36240.0,0.0,36240.0,0,
2026-02-18,36240.0,0.0,36240.0,0,
2026-02-19,36240.0,0.0,36240.0,0,
2026-02-20,36240.0,0.0,36240.0,0,
2026-02-22,36240.0,0.0,36240.0,0,
2026-02-23,36240.0,0.0,36240.0,0,
2026-02-24,36240.0,0.0,36240.0,0,
2026-02-25,36240.0,0.0,36240.0,0,
2026-02-26,36240.0,0.0,36240.0,0,
2026-02-27,36240.0,0.0,36240.0,0,
2026-03-01,36240.0,0.0,36240.0,0,
2026-03-02,36240.0,0.0,36240.0,0,
2026-03-03,36240.0,0.0,36240.0,0,
2026-03-04,36240.0,0.0,36240.0,0,
2026-03-05,36240.0,0.0,36240.0,0,
2026-03-06,36240.0,0.0,36240.0,0,
2026-03-08,36240.0,0.0,36240.0,0,
