date,year,bump_level,max_contracts,daily_equity_delta_usd,equity_usd,drawdown_usd,open_units
2019-05-05,2019,0,10,0.0,226428.0,0.0,0
2019-05-06,2019,0,10,0.0,226428.0,0.0,0
2019-05-07,2019,0,10,0.0,226428.0,0.0,0
2019-05-08,2019,0,10,0.0,226428.0,0.0,0
2019-05-09,2019,0,10,0.0,226428.0,0.0,0
2019-05-10,2019,0,10,0.0,226428.0,0.0,0
2019-05-12,2019,0,10,0.0,226428.0,0.0,0
2019-05-13,2019,0,10,0.0,226428.0,0.0,0
2019-05-14,2019,0,10,0.0,226428.0,0.0,0
2019-05-15,2019,0,10,0.0,226428.0,0.0,0
2019-05-16,2019,0,10,0.0,226428.0,0.0,0
2019-05-17,2019,0,10,0.0,226428.0,0.0,0
2019-05-19,2019,0,10,0.0,226428.0,0.0,0
2019-05-20,2019,0,10,0.0,226428.0,0.0,0
2019-05-21,2019,0,10,0.0,226428.0,0.0,0
2019-05-22,2019,0,10,0.0,226428.0,0.0,0
2019-05-23,2019,0,10,0.0,226428.0,0.0,0
2019-05-24,2019,0,10,0.0,226428.0,0.0,0
2019-05-26,2019,0,10,0.0,226428.0,0.0,0
2019-05-27,2019,0,10,0.0,226428.0,0.0,0
2019-05-28,2019,0,10,0.0,226428.0,0.0,0
2019-05-29,2019,0,10,0.0,226428.0,0.0,0
2019-05-30,2019,0,10,0.0,226428.0,0.0,0
2019-05-31,2019,0,10,0.0,226428.0,0.0,0
2019-06-02,2019,0,10,0.0,226428.0,0.0,0
2019-06-03,2019,0,10,0.0,226428.0,0.0,0
2019-06-04,2019,0,10,0.0,226428.0,0.0,0
2019-06-05,2019,0,10,0.0,226428.0,0.0,0
2019-06-06,2019,0,10,0.0,226428.0,0.0,0
2019-06-07,2019,0,10,0.0,226428.0,0.0,0
2019-06-09,2019,0,10,0.0,226428.0,0.0,0
2019-06-10,2019,0,10,0.0,226428.0,0.0,0
2019-06-11,2019,0,10,0.0,226428.0,0.0,0
2019-06-12,2019,0,10,0.0,226428.0,0.0,0
2019-06-13,2019,0,10,0.0,226428.0,0.0,0
2019-06-14,2019,0,10,0.0,226428.0,0.0,0
2019-06-16,2019,0,10,0.0,226428.0,0.0,0
2019-06-17,2019,0,10,0.0,226428.0,0.0,0
2019-06-18,2019,0,10,0.0,226428.0,0.0,0
2019-06-19,2019,0,10,0.0,226428.0,0.0,0
2019-06-20,2019,0,10,0.0,226428.0,0.0,0
2019-06-21,2019,0,10,0.0,226428.0,0.0,0
2019-06-23,2019,0,10,0.0,226428.0,0.0,0
2019-06-24,2019,0,10,0.0,226428.0,0.0,0
2019-06-25,2019,0,10,0.0,226428.0,0.0,0
2019-06-26,2019,0,10,0.0,226428.0,0.0,0
2019-06-27,2019,0,10,0.0,226428.0,0.0,0
2019-06-28,2019,0,10,0.0,226428.0,0.0,0
2019-06-30,2019,0,10,0.0,226428.0,0.0,0
2019-07-01,2019,0,10,0.0,226428.0,0.0,0
2019-07-02,2019,0,10,0.0,226428.0,0.0,0
2019-07-03,2019,0,10,0.0,226428.0,0.0,0
2019-07-04,2019,0,10,0.0,226428.0,0.0,0
2019-07-05,2019,0,10,0.0,226428.0,0.0,0
2019-07-07,2019,0,10,0.0,226428.0,0.0,0
2019-07-08,2019,0,10,0.0,226428.0,0.0,0
2019-07-09,2019,0,10,0.0,226428.0,0.0,0
2019-07-10,2019,0,10,0.0,226428.0,0.0,0
2019-07-11,2019,0,10,0.0,226428.0,0.0,0
2019-07-12,2019,0,10,0.0,226428.0,0.0,0
2019-07-14,2019,0,10,0.0,226428.0,0.0,0
2019-07-15,2019,0,10,0.0,226428.0,0.0,0
2019-07-16,2019,0,10,0.0,226428.0,0.0,0
2019-07-17,2019,0,10,0.0,226428.0,0.0,0
2019-07-18,2019,0,10,0.0,226428.0,0.0,0
2019-07-19,2019,0,10,0.0,226428.0,0.0,0
2019-07-21,2019,0,10,0.0,226428.0,0.0,0
2019-07-22,2019,0,10,0.0,226428.0,0.0,0
2019-07-23,2019,0,10,0.0,226428.0,0.0,0
2019-07-24,2019,0,10,0.0,226428.0,0.0,0
2019-07-25,2019,0,10,0.0,226428.0,0.0,0
2019-07-26,2019,0,10,0.0,226428.0,0.0,0
2019-07-28,2019,0,10,0.0,226428.0,0.0,0
2019-07-29,2019,0,10,0.0,226428.0,0.0,0
2019-07-30,2019,0,10,0.0,226428.0,0.0,0
2019-07-31,2019,0,10,0.0,226428.0,0.0,0
2019-08-01,2019,0,10,0.0,226428.0,0.0,0
2019-08-02,2019,0,10,0.0,226428.0,0.0,0
2019-08-04,2019,0,10,0.0,226428.0,0.0,0
2019-08-05,2019,0,10,0.0,226428.0,0.0,0
2019-08-06,2019,0,10,0.0,226428.0,0.0,0
2019-08-07,2019,0,10,0.0,226428.0,0.0,0
2019-08-08,2019,0,10,0.0,226428.0,0.0,0
2019-08-09,2019,0,10,0.0,226428.0,0.0,0
2019-08-11,2019,0,10,0.0,226428.0,0.0,0
2019-08-12,2019,0,10,0.0,226428.0,0.0,0
2019-08-13,2019,0,10,0.0,226428.0,0.0,0
2019-08-14,2019,0,10,0.0,226428.0,0.0,0
2019-08-15,2019,0,10,0.0,226428.0,0.0,0
2019-08-16,2019,0,10,0.0,226428.0,0.0,0
2019-08-18,2019,0,10,0.0,226428.0,0.0,0
2019-08-19,2019,0,10,0.0,226428.0,0.0,0
2019-08-20,2019,0,10,0.0,226428.0,0.0,0
2019-08-21,2019,0,10,0.0,226428.0,0.0,0
2019-08-22,2019,0,10,0.0,226428.0,0.0,0
2019-08-23,2019,0,10,0.0,226428.0,0.0,0
2019-08-25,2019,0,10,0.0,226428.0,0.0,0
2019-08-26,2019,0,10,0.0,226428.0,0.0,0
2019-08-27,2019,0,10,0.0,226428.0,0.0,0
2019-08-28,2019,0,10,0.0,226428.0,0.0,0
2019-08-29,2019,0,10,0.0,226428.0,0.0,0
2019-08-30,2019,0,10,0.0,226428.0,0.0,0
2019-09-01,2019,0,10,0.0,226428.0,0.0,0
2019-09-02,2019,0,10,0.0,226428.0,0.0,0
2019-09-03,2019,0,10,0.0,226428.0,0.0,0
2019-09-04,2019,0,10,0.0,226428.0,0.0,0
2019-09-05,2019,0,10,0.0,226428.0,0.0,0
2019-09-06,2019,0,10,0.0,226428.0,0.0,0
2019-09-08,2019,0,10,0.0,226428.0,0.0,0
2019-09-09,2019,0,10,0.0,226428.0,0.0,0
2019-09-10,2019,0,10,0.0,226428.0,0.0,0
2019-09-11,2019,0,10,0.0,226428.0,0.0,0
2019-09-12,2019,0,10,0.0,226428.0,0.0,0
2019-09-13,2019,0,10,0.0,226428.0,0.0,0
2019-09-15,2019,0,10,0.0,226428.0,0.0,0
2019-09-16,2019,0,10,0.0,226428.0,0.0,0
2019-09-17,2019,0,10,0.0,226428.0,0.0,0
2019-09-18,2019,0,10,0.0,226428.0,0.0,0
2019-09-19,2019,0,10,0.0,226428.0,0.0,0
2019-09-20,2019,0,10,0.0,226428.0,0.0,0
2019-09-22,2019,0,10,0.0,226428.0,0.0,0
2019-09-23,2019,0,10,0.0,226428.0,0.0,0
2019-09-24,2019,0,10,0.0,226428.0,0.0,0
2019-09-25,2019,0,10,0.0,226428.0,0.0,0
2019-09-26,2019,0,10,0.0,226428.0,0.0,0
2019-09-27,2019,0,10,0.0,226428.0,0.0,0
2019-09-29,2019,0,10,0.0,226428.0,0.0,0
2019-09-30,2019,0,10,0.0,226428.0,0.0,0
2019-10-01,2019,0,10,0.0,226428.0,0.0,0
2019-10-02,2019,0,10,0.0,226428.0,0.0,0
2019-10-03,2019,0,10,0.0,226428.0,0.0,0
2019-10-04,2019,0,10,0.0,226428.0,0.0,0
2019-10-06,2019,0,10,0.0,226428.0,0.0,0
2019-10-07,2019,0,10,0.0,226428.0,0.0,0
2019-10-08,2019,0,10,0.0,226428.0,0.0,0
2019-10-09,2019,0,10,0.0,226428.0,0.0,0
2019-10-10,2019,0,10,0.0,226428.0,0.0,0
2019-10-11,2019,0,10,0.0,226428.0,0.0,0
2019-10-13,2019,0,10,0.0,226428.0,0.0,0
2019-10-14,2019,0,10,0.0,226428.0,0.0,0
2019-10-15,2019,0,10,0.0,226428.0,0.0,0
2019-10-16,2019,0,10,0.0,226428.0,0.0,0
2019-10-17,2019,0,10,0.0,226428.0,0.0,0
2019-10-18,2019,0,10,0.0,226428.0,0.0,0
2019-10-20,2019,0,10,0.0,226428.0,0.0,0
2019-10-21,2019,0,10,0.0,226428.0,0.0,0
2019-10-22,2019,0,10,0.0,226428.0,0.0,0
2019-10-23,2019,0,10,0.0,226428.0,0.0,0
2019-10-24,2019,0,10,0.0,226428.0,0.0,0
2019-10-25,2019,0,10,0.0,226428.0,0.0,0
2019-10-27,2019,0,10,0.0,226428.0,0.0,0
2019-10-28,2019,0,10,0.0,226428.0,0.0,0
2019-10-29,2019,0,10,0.0,226428.0,0.0,0
2019-10-30,2019,0,10,0.0,226428.0,0.0,0
2019-10-31,2019,0,10,0.0,226428.0,0.0,0
2019-11-01,2019,0,10,0.0,226428.0,0.0,0
2019-11-03,2019,0,10,0.0,226428.0,0.0,0
2019-11-04,2019,0,10,0.0,226428.0,0.0,0
2019-11-05,2019,0,10,0.0,226428.0,0.0,0
2019-11-06,2019,0,10,0.0,226428.0,0.0,0
2019-11-07,2019,0,10,0.0,226428.0,0.0,0
2019-11-08,2019,0,10,0.0,226428.0,0.0,0
2019-11-10,2019,0,10,0.0,226428.0,0.0,0
2019-11-11,2019,0,10,0.0,226428.0,0.0,0
2019-11-12,2019,0,10,0.0,226428.0,0.0,0
2019-11-13,2019,0,10,0.0,226428.0,0.0,0
2019-11-14,2019,0,10,0.0,226428.0,0.0,0
2019-11-15,2019,0,10,0.0,226428.0,0.0,0
2019-11-17,2019,0,10,0.0,226428.0,0.0,0
2019-11-18,2019,0,10,0.0,226428.0,0.0,0
2019-11-19,2019,0,10,0.0,226428.0,0.0,0
2019-11-20,2019,0,10,0.0,226428.0,0.0,0
2019-11-21,2019,0,10,0.0,226428.0,0.0,0
2019-11-22,2019,0,10,0.0,226428.0,0.0,0
2019-11-24,2019,0,10,0.0,226428.0,0.0,0
2019-11-25,2019,0,10,0.0,226428.0,0.0,0
2019-11-26,2019,0,10,0.0,226428.0,0.0,0
2019-11-27,2019,0,10,0.0,226428.0,0.0,0
2019-11-28,2019,0,10,0.0,226428.0,0.0,0
2019-11-29,2019,0,10,0.0,226428.0,0.0,0
2019-12-01,2019,0,10,0.0,226428.0,0.0,0
2019-12-02,2019,0,10,0.0,226428.0,0.0,0
2019-12-03,2019,0,10,0.0,226428.0,0.0,0
2019-12-04,2019,0,10,0.0,226428.0,0.0,0
2019-12-05,2019,0,10,0.0,226428.0,0.0,0
2019-12-06,2019,0,10,0.0,226428.0,0.0,0
2019-12-08,2019,0,10,0.0,226428.0,0.0,0
2019-12-09,2019,0,10,0.0,226428.0,0.0,0
2019-12-10,2019,0,10,0.0,226428.0,0.0,0
2019-12-11,2019,0,10,0.0,226428.0,0.0,0
2019-12-12,2019,0,10,0.0,226428.0,0.0,0
2019-12-13,2019,0,10,0.0,226428.0,0.0,0
2019-12-15,2019,0,10,0.0,226428.0,0.0,0
2019-12-16,2019,0,10,0.0,226428.0,0.0,0
2019-12-17,2019,0,10,0.0,226428.0,0.0,0
2019-12-18,2019,0,10,0.0,226428.0,0.0,0
2019-12-19,2019,0,10,0.0,226428.0,0.0,0
2019-12-20,2019,0,10,0.0,226428.0,0.0,0
2019-12-22,2019,0,10,0.0,226428.0,0.0,0
2019-12-23,2019,0,10,0.0,226428.0,0.0,0
2019-12-24,2019,0,10,0.0,226428.0,0.0,0
2019-12-25,2019,0,10,0.0,226428.0,0.0,0
2019-12-26,2019,0,10,0.0,226428.0,0.0,0
2019-12-27,2019,0,10,0.0,226428.0,0.0,0
2019-12-29,2019,0,10,0.0,226428.0,0.0,0
2019-12-30,2019,0,10,0.0,226428.0,0.0,0
2019-12-31,2019,0,10,0.0,226428.0,0.0,0
2020-01-01,2020,0,10,0.0,226428.0,0.0,0
2020-01-02,2020,0,10,0.0,226428.0,0.0,0
2020-01-03,2020,0,10,0.0,226428.0,0.0,0
2020-01-05,2020,0,10,0.0,226428.0,0.0,0
2020-01-06,2020,0,10,0.0,226428.0,0.0,0
2020-01-07,2020,0,10,0.0,226428.0,0.0,0
2020-01-08,2020,0,10,0.0,226428.0,0.0,0
2020-01-09,2020,0,10,0.0,226428.0,0.0,0
2020-01-10,2020,0,10,0.0,226428.0,0.0,0
2020-01-12,2020,0,10,0.0,226428.0,0.0,0
2020-01-13,2020,0,10,0.0,226428.0,0.0,0
2020-01-14,2020,0,10,0.0,226428.0,0.0,0
2020-01-15,2020,0,10,0.0,226428.0,0.0,0
2020-01-16,2020,0,10,0.0,226428.0,0.0,0
2020-01-17,2020,0,10,0.0,226428.0,0.0,0
2020-01-19,2020,0,10,0.0,226428.0,0.0,0
2020-01-20,2020,0,10,0.0,226428.0,0.0,0
2020-01-21,2020,0,10,0.0,226428.0,0.0,0
2020-01-22,2020,0,10,0.0,226428.0,0.0,0
2020-01-23,2020,0,10,0.0,226428.0,0.0,0
2020-01-24,2020,0,10,0.0,226428.0,0.0,0
2020-01-26,2020,0,10,0.0,226428.0,0.0,0
2020-01-27,2020,0,10,0.0,226428.0,0.0,0
2020-01-28,2020,0,10,0.0,226428.0,0.0,0
2020-01-29,2020,0,10,0.0,226428.0,0.0,0
2020-01-30,2020,0,10,0.0,226428.0,0.0,0
2020-01-31,2020,0,10,0.0,226428.0,0.0,0
2020-02-02,2020,0,10,0.0,226428.0,0.0,0
2020-02-03,2020,0,10,0.0,226428.0,0.0,0
2020-02-04,2020,0,10,0.0,226428.0,0.0,0
2020-02-05,2020,0,10,0.0,226428.0,0.0,0
2020-02-06,2020,0,10,0.0,226428.0,0.0,0
2020-02-07,2020,0,10,0.0,226428.0,0.0,0
2020-02-09,2020,0,10,0.0,226428.0,0.0,0
2020-02-10,2020,0,10,0.0,226428.0,0.0,0
2020-02-11,2020,0,10,0.0,226428.0,0.0,0
2020-02-12,2020,0,10,0.0,226428.0,0.0,0
2020-02-13,2020,0,10,0.0,226428.0,0.0,0
2020-02-14,2020,0,10,0.0,226428.0,0.0,0
2020-02-16,2020,0,10,0.0,226428.0,0.0,0
2020-02-17,2020,0,10,0.0,226428.0,0.0,0
2020-02-18,2020,0,10,0.0,226428.0,0.0,0
2020-02-19,2020,0,10,0.0,226428.0,0.0,0
2020-02-20,2020,0,10,0.0,226428.0,0.0,0
2020-02-21,2020,0,10,0.0,226428.0,0.0,0
2020-02-23,2020,0,10,0.0,226428.0,0.0,0
2020-02-24,2020,0,10,0.0,226428.0,0.0,0
2020-02-25,2020,0,10,0.0,226428.0,0.0,0
2020-02-26,2020,0,10,0.0,226428.0,0.0,0
2020-02-27,2020,0,10,0.0,226428.0,0.0,0
2020-02-28,2020,0,10,0.0,226428.0,0.0,0
2020-03-01,2020,0,10,0.0,226428.0,0.0,0
2020-03-02,2020,0,10,0.0,226428.0,0.0,0
2020-03-03,2020,0,10,0.0,226428.0,0.0,0
2020-03-04,2020,0,10,0.0,226428.0,0.0,0
2020-03-05,2020,0,10,0.0,226428.0,0.0,0
2020-03-06,2020,0,10,0.0,226428.0,0.0,0
2020-03-08,2020,0,10,0.0,226428.0,0.0,0
2020-03-09,2020,0,10,0.0,226428.0,0.0,0
2020-03-10,2020,0,10,0.0,226428.0,0.0,0
2020-03-11,2020,0,10,0.0,226428.0,0.0,0
2020-03-12,2020,0,10,0.0,226428.0,0.0,0
2020-03-13,2020,0,10,0.0,226428.0,0.0,0
2020-03-15,2020,0,10,0.0,226428.0,0.0,0
2020-03-16,2020,0,10,0.0,226428.0,0.0,0
2020-03-17,2020,0,10,0.0,226428.0,0.0,0
2020-03-18,2020,0,10,0.0,226428.0,0.0,0
2020-03-19,2020,0,10,0.0,226428.0,0.0,0
2020-03-20,2020,0,10,0.0,226428.0,0.0,0
2020-03-22,2020,0,10,0.0,226428.0,0.0,0
2020-03-23,2020,0,10,0.0,226428.0,0.0,0
2020-03-24,2020,0,10,0.0,226428.0,0.0,0
2020-03-25,2020,0,10,0.0,226428.0,0.0,0
2020-03-26,2020,0,10,0.0,226428.0,0.0,0
2020-03-27,2020,0,10,0.0,226428.0,0.0,0
2020-03-29,2020,0,10,0.0,226428.0,0.0,0
2020-03-30,2020,0,10,0.0,226428.0,0.0,0
2020-03-31,2020,0,10,0.0,226428.0,0.0,0
2020-04-01,2020,0,10,0.0,226428.0,0.0,0
2020-04-02,2020,0,10,0.0,226428.0,0.0,0
2020-04-03,2020,0,10,0.0,226428.0,0.0,0
2020-04-05,2020,0,10,0.0,226428.0,0.0,0
2020-04-06,2020,0,10,0.0,226428.0,0.0,0
2020-04-07,2020,0,10,0.0,226428.0,0.0,0
2020-04-08,2020,0,10,0.0,226428.0,0.0,0
2020-04-09,2020,0,10,0.0,226428.0,0.0,0
2020-04-12,2020,0,10,0.0,226428.0,0.0,0
2020-04-13,2020,0,10,0.0,226428.0,0.0,0
2020-04-14,2020,0,10,0.0,226428.0,0.0,0
2020-04-15,2020,0,10,0.0,226428.0,0.0,0
2020-04-16,2020,0,10,0.0,226428.0,0.0,0
2020-04-17,2020,0,10,0.0,226428.0,0.0,0
2020-04-19,2020,0,10,0.0,226428.0,0.0,0
2020-04-20,2020,0,10,0.0,226428.0,0.0,0
2020-04-21,2020,0,10,0.0,226428.0,0.0,0
2020-04-22,2020,0,10,0.0,226428.0,0.0,0
2020-04-23,2020,0,10,0.0,226428.0,0.0,0
2020-04-24,2020,0,10,0.0,226428.0,0.0,0
2020-04-26,2020,0,10,0.0,226428.0,0.0,0
2020-04-27,2020,0,10,0.0,226428.0,0.0,0
2020-04-28,2020,0,10,0.0,226428.0,0.0,0
2020-04-29,2020,0,10,0.0,226428.0,0.0,0
2020-04-30,2020,0,10,0.0,226428.0,0.0,0
2020-05-01,2020,0,10,0.0,226428.0,0.0,0
2020-05-03,2020,0,10,0.0,226428.0,0.0,0
2020-05-04,2020,0,10,0.0,226428.0,0.0,0
2020-05-05,2020,0,10,0.0,226428.0,0.0,0
2020-05-06,2020,0,10,0.0,226428.0,0.0,0
2020-05-07,2020,0,10,0.0,226428.0,0.0,0
2020-05-08,2020,0,10,0.0,226428.0,0.0,0
2020-05-10,2020,0,10,109.0,226537.0,0.0,1
2020-05-11,2020,0,10,47.5,226584.5,0.0,1
2020-05-12,2020,0,10,-526.0,226058.5,-526.0,1
2020-05-13,2020,0,10,0.5,226059.0,-525.5,0
2020-05-14,2020,0,10,0.0,226059.0,-525.5,0
2020-05-15,2020,0,10,0.0,226059.0,-525.5,0
2020-05-17,2020,0,10,0.0,226059.0,-525.5,0
2020-05-18,2020,0,10,0.0,226059.0,-525.5,0
2020-05-19,2020,0,10,-50.5,226008.5,-576.0,1
2020-05-20,2020,0,10,335.0,226343.5,-241.0,1
2020-05-21,2020,0,10,-166.0,226177.5,-407.0,1
2020-05-22,2020,0,10,40.0,226217.5,-367.0,1
2020-05-24,2020,0,10,66.5,226284.0,-300.5,1
2020-05-25,2020,0,10,108.5,226392.5,-192.0,1
2020-05-26,2020,0,10,-231.5,226161.0,-423.5,1
2020-05-27,2020,0,10,95.5,226256.5,-328.0,1
2020-05-28,2020,0,10,-48.0,226208.5,-376.0,1
2020-05-29,2020,0,10,475.5,226684.0,0.0,2
2020-05-31,2020,0,10,-327.0,226357.0,-327.0,2
2020-06-01,2020,0,10,234.0,226591.0,-93.0,2
2020-06-02,2020,0,10,437.0,227028.0,0.0,2
2020-06-03,2020,0,10,87.0,227115.0,0.0,2
2020-06-04,2020,0,10,-312.0,226803.0,-312.0,2
2020-06-05,2020,0,10,755.0,227558.0,0.0,2
2020-06-07,2020,0,10,253.0,227811.0,0.0,2
2020-06-08,2020,0,10,37.0,227848.0,0.0,2
2020-06-09,2020,0,10,437.0,228285.0,0.0,2
2020-06-10,2020,0,10,217.0,228502.0,0.0,2
2020-06-11,2020,0,10,-1459.0,227043.0,-1459.0,2
2020-06-12,2020,0,10,-233.0,226810.0,-1692.0,4
2020-06-14,2020,0,10,-832.0,225978.0,-2524.0,4
2020-06-15,2020,0,10,2616.0,228594.0,0.0,4
2020-06-16,2020,0,10,950.0,229544.0,0.0,4
2020-06-17,2020,0,10,-276.0,229268.0,-276.0,4
2020-06-18,2020,0,10,570.0,229838.0,0.0,4
2020-06-19,2020,0,10,-770.0,229068.0,-770.0,4
2020-06-21,2020,0,10,-156.0,228912.0,-926.0,4
2020-06-22,2020,0,10,1958.0,230870.0,0.0,4
2020-06-23,2020,0,10,248.0,231118.0,0.0,4
2020-06-24,2020,0,10,-1658.0,229460.0,-1658.0,4
2020-06-25,2020,0,10,1062.0,230522.0,-596.0,4
2020-06-26,2020,0,10,-2236.0,228286.0,-2832.0,6
2020-06-28,2020,0,10,-204.0,228082.0,-3036.0,6
2020-06-29,2020,0,10,1989.0,230071.0,-1047.0,6
2020-06-30,2020,0,10,504.0,230575.0,-543.0,6
2020-07-01,2020,0,10,2817.0,233392.0,0.0,6
2020-07-02,2020,0,10,966.0,234358.0,0.0,6
2020-07-03,2020,0,10,-297.0,234061.0,-297.0,6
2020-07-05,2020,0,10,813.0,234874.0,0.0,6
2020-07-06,2020,0,10,2964.0,237838.0,0.0,6
2020-07-07,2020,0,10,-1077.0,236761.0,-1077.0,6
2020-07-08,2020,0,10,1587.0,238348.0,0.0,6
2020-07-09,2020,0,10,861.0,239209.0,0.0,6
2020-07-10,2020,0,10,1158.0,240367.0,0.0,8
2020-07-12,2020,0,10,544.0,240911.0,0.0,8
2020-07-13,2020,0,10,-3700.0,237211.0,-3700.0,8
2020-07-14,2020,0,10,1152.0,238363.0,-2548.0,8
2020-07-15,2020,0,10,-1124.0,237239.0,-3672.0,8
2020-07-16,2020,0,10,-1288.0,235951.0,-4960.0,8
2020-07-17,2020,0,10,908.0,236859.0,-4052.0,8
2020-07-19,2020,0,10,384.0,237243.0,-3668.0,8
2020-07-20,2020,0,10,4836.0,242079.0,0.0,8
2020-07-21,2020,0,10,-1224.0,240855.0,-1224.0,8
2020-07-22,2020,0,10,-804.0,240051.0,-2028.0,8
2020-07-23,2020,0,10,-3844.0,236207.0,-5872.0,8
2020-07-24,2020,0,10,-1910.0,234297.0,-7782.0,9
2020-07-26,2020,0,10,-432.0,233865.0,-8214.0,9
2020-07-27,2020,0,10,4671.0,238536.0,-3543.0,9
2020-07-28,2020,0,10,-2421.0,236115.0,-5964.0,9
2020-07-29,2020,0,10,2079.0,238194.0,-3885.0,9
2020-07-30,2020,0,10,4068.0,242262.0,0.0,9
2020-07-31,2020,0,10,180.0,242442.0,0.0,9
2020-08-02,2020,0,10,-67.5,242374.5,-67.5,9
2020-08-03,2020,0,10,2245.5,244620.0,0.0,9
2020-08-04,2020,0,10,670.5,245290.5,0.0,9
2020-08-05,2020,0,10,279.0,245569.5,0.0,9
2020-08-06,2020,0,10,2938.5,248508.0,0.0,9
2020-08-07,2020,0,10,-2194.5,246313.5,-2194.5,10
2020-08-09,2020,0,10,-475.0,245838.5,-2669.5,10
2020-08-10,2020,0,10,-665.0,245173.5,-3334.5,10
2020-08-11,2020,0,10,-3025.0,242148.5,-6359.5,10
2020-08-12,2020,0,10,4180.0,246328.5,-2179.5,10
2020-08-13,2020,0,10,1470.0,247798.5,-709.5,10
2020-08-14,2020,0,10,-1190.0,246608.5,-1899.5,10
2020-08-16,2020,0,10,315.0,246923.5,-1584.5,10
2020-08-17,2020,0,10,2870.0,249793.5,0.0,10
2020-08-18,2020,0,10,2230.0,252023.5,0.0,10
2020-08-19,2020,0,10,-2520.0,249503.5,-2520.0,10
2020-08-20,2020,0,10,4180.0,253683.5,0.0,10
2020-08-21,2020,0,10,1270.0,254953.5,0.0,10
2020-08-23,2020,0,10,410.0,255363.5,0.0,10
2020-08-24,2020,0,10,1265.0,256628.5,0.0,10
2020-08-25,2020,0,10,2000.0,258628.5,0.0,10
2020-08-26,2020,0,10,4420.0,263048.5,0.0,10
2020-08-27,2020,0,10,30.0,263078.5,0.0,10
2020-08-28,2020,0,10,690.0,263768.5,0.0,10
2020-08-30,2020,0,10,880.0,264648.5,0.0,10
2020-08-31,2020,0,10,1550.0,266198.5,0.0,10
2020-09-01,2020,0,10,4705.0,270903.5,0.0,10
2020-09-02,2020,0,10,1225.0,272128.5,0.0,10
2020-09-03,2020,0,10,-16415.0,255713.5,-16415.0,10
2020-09-04,2020,0,10,-1210.0,254503.5,-17625.0,10
2020-09-06,2020,0,10,-2465.0,252038.5,-20090.0,10
2020-09-07,2020,0,10,2845.0,254883.5,-17245.0,10
2020-09-08,2020,0,10,-10365.0,244518.5,-27610.0,10
2020-09-09,2020,0,10,8045.0,252563.5,-19565.0,10
2020-09-10,2020,0,10,-4815.0,247748.5,-24380.0,10
2020-09-11,2020,0,10,-2595.0,245153.5,-26975.0,10
2020-09-13,2020,0,10,2000.0,247153.5,-24975.0,10
2020-09-14,2020,0,10,2235.0,249388.5,-22740.0,10
2020-09-15,2020,0,10,2735.0,252123.5,-20005.0,10
2020-09-16,2020,0,10,-3055.0,249068.5,-23060.0,10
2020-09-17,2020,0,10,-3990.0,245078.5,-27050.0,10
2020-09-18,2020,0,10,-2625.0,242453.5,-29675.0,10
2020-09-20,2020,0,10,-135.0,242318.5,-29810.0,10
2020-09-21,2020,0,10,1615.0,243933.5,-28195.0,10
2020-09-22,2020,0,10,2170.0,246103.5,-26025.0,10
2020-09-23,2020,0,10,-7430.0,238673.5,-33455.0,10
2020-09-24,2020,0,10,4035.0,242708.5,-29420.0,10
2020-09-25,2020,0,10,3700.0,246408.5,-25720.0,10
2020-09-27,2020,0,10,470.0,246878.5,-25250.0,10
2020-09-28,2020,0,10,5180.0,252058.5,-20070.0,10
2020-09-29,2020,0,10,-1560.0,250498.5,-21630.0,10
2020-09-30,2020,0,10,2075.0,252573.5,-19555.0,10
2020-10-01,2020,0,10,2550.0,255123.5,-17005.0,10
2020-10-02,2020,0,10,-6345.0,248778.5,-23350.0,10
2020-10-04,2020,0,10,1550.0,250328.5,-21800.0,10
2020-10-05,2020,0,10,2065.0,252393.5,-19735.0,10
2020-10-06,2020,0,10,-3580.0,248813.5,-23315.0,10
2020-10-07,2020,0,10,4895.0,253708.5,-18420.0,10
2020-10-08,2020,0,10,1575.0,255283.5,-16845.0,10
2020-10-09,2020,0,10,2895.0,258178.5,-13950.0,10
2020-10-11,2020,0,10,385.0,258563.5,-13565.0,10
2020-10-12,2020,0,10,7315.0,265878.5,-6250.0,10
2020-10-13,2020,0,10,110.0,265988.5,-6140.0,10
2020-10-14,2020,0,10,-3075.0,262913.5,-9215.0,10
2020-10-15,2020,0,10,-910.0,262003.5,-10125.0,10
2020-10-16,2020,0,10,-2445.0,259558.5,-12570.0,10
2020-10-18,2020,0,10,1595.0,261153.5,-10975.0,10
2020-10-19,2020,0,10,-3160.0,257993.5,-14135.0,10
2020-10-20,2020,0,10,-225.0,257768.5,-14360.0,10
2020-10-21,2020,0,10,-1570.0,256198.5,-15930.0,10
2020-10-22,2020,0,10,790.0,256988.5,-15140.0,10
2020-10-23,2020,0,10,95.0,257083.5,-15045.0,10
2020-10-25,2020,0,10,-845.0,256238.5,-15890.0,10
2020-10-26,2020,0,10,-2760.0,253478.5,-18650.0,10
2020-10-27,2020,0,10,970.0,254448.5,-17680.0,10
2020-10-28,2020,0,10,-6970.0,247478.5,-24650.0,10
2020-10-29,2020,0,10,500.0,247978.5,-24150.0,10
2020-10-30,2020,0,10,-2540.0,245438.5,-26690.0,10
2020-11-01,2020,0,10,-1765.0,243673.5,-28455.0,10
2020-11-02,2020,0,10,1775.0,245448.5,-26680.0,10
2020-11-03,2020,0,10,4605.0,250053.5,-22075.0,10
2020-11-04,2020,0,10,9555.0,259608.5,-12520.0,10
2020-11-05,2020,0,10,5435.0,265043.5,-7085.0,10
2020-11-06,2020,0,10,560.0,265603.5,-6525.0,10
2020-11-08,2020,0,10,2755.0,268358.5,-3770.0,10
2020-11-09,2020,0,10,-7565.0,260793.5,-11335.0,10
2020-11-10,2020,0,10,-5135.0,255658.5,-16470.0,10
2020-11-11,2020,0,10,5980.0,261638.5,-10490.0,10
2020-11-12,2020,0,10,-900.0,260738.5,-11390.0,10
2020-11-13,2020,0,10,1895.0,262633.5,-9495.0,10
2020-11-15,2020,0,10,1985.0,264618.5,-7510.0,10
2020-11-16,2020,0,10,65.0,264683.5,-7445.0,10
2020-11-17,2020,0,10,-1390.0,263293.5,-8835.0,10
2020-11-18,2020,0,10,-1975.0,261318.5,-10810.0,10
2020-11-19,2020,0,10,1140.0,262458.5,-9670.0,10
2020-11-20,2020,0,10,-525.0,261933.5,-10195.0,10
2020-11-22,2020,0,10,405.0,262338.5,-9790.0,10
2020-11-23,2020,0,10,410.0,262748.5,-9380.0,10
2020-11-24,2020,0,10,3485.0,266233.5,-5895.0,10
2020-11-25,2020,0,10,1070.0,267303.5,-4825.0,10
2020-11-26,2020,0,10,-500.0,266803.5,-5325.0,10
2020-11-27,2020,0,10,2380.0,269183.5,-2945.0,10
2020-11-29,2020,0,10,865.0,270048.5,-2080.0,10
2020-11-30,2020,0,10,640.0,270688.5,-1440.0,10
2020-12-01,2020,0,10,2040.0,272728.5,0.0,10
2020-12-02,2020,0,10,305.0,273033.5,0.0,10
2020-12-03,2020,0,10,380.0,273413.5,0.0,10
2020-12-04,2020,0,10,500.0,273913.5,0.0,10
2020-12-06,2020,0,10,690.0,274603.5,0.0,10
2020-12-07,2020,0,10,610.0,275213.5,0.0,10
2020-12-08,2020,0,10,1440.0,276653.5,0.0,10
2020-12-09,2020,0,10,-5680.0,270973.5,-5680.0,10
2020-12-10,2020,0,10,800.0,271773.5,-4880.0,10
2020-12-11,2020,0,10,-735.0,271038.5,-5615.0,10
2020-12-13,2020,0,10,1000.0,272038.5,-4615.0,10
2020-12-14,2020,0,10,1260.0,273298.5,-3355.0,10
2020-12-15,2020,0,10,2310.0,275608.5,-1045.0,10
2020-12-16,2020,0,10,1755.0,277363.5,0.0,10
2020-12-17,2020,0,10,1345.0,278708.5,0.0,10
2020-12-18,2020,0,10,-35.0,278673.5,-35.0,10
2020-12-20,2020,0,10,15.0,278688.5,-20.0,10
2020-12-21,2020,0,10,-955.0,277733.5,-975.0,10
2020-12-22,2020,0,10,380.0,278113.5,-595.0,10
2020-12-23,2020,0,10,-1310.0,276803.5,-1905.0,10
2020-12-24,2020,0,10,985.0,277788.5,-920.0,10
2020-12-27,2020,0,10,605.0,278393.5,-315.0,10
2020-12-28,2020,0,10,2350.0,280743.5,0.0,10
2020-12-29,2020,0,10,-145.0,280598.5,-145.0,10
2020-12-30,2020,0,10,80.0,280678.5,-65.0,10
2020-12-31,2020,0,10,715.0,281393.5,0.0,10
2021-01-03,2021,3,13,-533.0,280860.5,-533.0,13
2021-01-04,2021,3,13,-4914.0,275946.5,-5447.0,13
2021-01-05,2021,3,13,3120.0,279066.5,-2327.0,13
2021-01-06,2021,3,13,-3172.0,275894.5,-5499.0,13
2021-01-07,2021,3,13,6903.0,282797.5,0.0,13
2021-01-08,2021,3,13,4842.5,287640.0,0.0,13
2021-01-10,2021,3,13,-1092.0,286548.0,-1092.0,13
2021-01-11,2021,3,13,-4173.0,282375.0,-5265.0,13
2021-01-12,2021,3,13,-656.5,281718.5,-5921.5,13
2021-01-13,2021,3,13,1904.5,283623.0,-4017.0,13
2021-01-14,2021,3,13,-1378.0,282245.0,-5395.0,13
2021-01-15,2021,3,13,-3984.5,278260.5,-9379.5,13
2021-01-17,2021,3,13,-461.5,277799.0,-9841.0,13
2021-01-18,2021,3,13,2223.0,280022.0,-7618.0,13
2021-01-19,2021,3,13,5674.5,285696.5,-1943.5,13
2021-01-20,2021,3,13,6883.5,292580.0,0.0,13
2021-01-21,2021,3,13,1800.5,294380.5,0.0,13
2021-01-22,2021,3,13,-832.0,293548.5,-832.0,13
2021-01-24,2021,3,13,1202.5,294751.0,0.0,13
2021-01-25,2021,3,13,1664.0,296415.0,0.0,13
2021-01-26,2021,3,13,2528.5,298943.5,0.0,13
2021-01-27,2021,3,13,-15112.5,283831.0,-15112.5,13
2021-01-28,2021,3,13,4127.5,287958.5,-10985.0,13
2021-01-29,2021,3,13,-6916.0,281042.5,-17901.0,13
2021-01-31,2021,3,13,-2015.0,279027.5,-19916.0,13
2021-02-01,2021,3,13,12168.0,291195.5,-7748.0,13
2021-02-02,2021,3,13,5882.5,297078.0,-1865.5,13
2021-02-03,2021,3,13,-1150.5,295927.5,-3016.0,13
2021-02-04,2021,3,13,2853.5,298781.0,-162.5,13
2021-02-05,2021,3,13,1300.0,300081.0,0.0,13
2021-02-07,2021,3,13,910.0,300991.0,0.0,13
2021-02-08,2021,3,13,1111.5,302102.5,0.0,13
2021-02-09,2021,3,13,156.0,302258.5,0.0,13
2021-02-10,2021,3,13,-877.5,301381.0,-877.5,13
2021-02-11,2021,3,13,2008.5,303389.5,0.0,13
2021-02-12,2021,3,13,2359.5,305749.0,0.0,13
2021-02-14,2021,3,13,104.0,305853.0,0.0,13
2021-02-15,2021,3,13,838.5,306691.5,0.0,13
2021-02-16,2021,3,13,-3289.0,303402.5,-3289.0,13
2021-02-17,2021,3,13,-741.0,302661.5,-4030.0,13
2021-02-18,2021,3,13,-2275.0,300386.5,-6305.0,13
2021-02-19,2021,3,13,-1131.0,299255.5,-7436.0,13
2021-02-21,2021,3,13,520.0,299775.5,-6916.0,13
2021-02-22,2021,3,13,-9451.0,290324.5,-16367.0,13
2021-02-23,2021,3,13,-1547.0,288777.5,-17914.0,13
2021-02-24,2021,3,13,4134.0,292911.5,-13780.0,13
2021-02-25,2021,3,13,-14293.5,278618.0,-28073.5,13
2021-02-26,2021,3,13,3477.5,282095.5,-24596.0,13
2021-02-28,2021,3,13,2398.5,284494.0,-22197.5,13
2021-03-01,2021,3,13,8164.0,292658.0,-14033.5,13
2021-03-02,2021,3,13,-5817.5,286840.5,-19851.0,13
2021-03-03,2021,3,13,-13013.0,273827.5,-32864.0,13
2021-03-04,2021,3,13,-4862.0,268965.5,-37726.0,13
2021-03-05,2021,3,13,6558.5,275524.0,-31167.5,13
2021-03-07,2021,3,13,286.0,275810.0,-30881.5,13
2021-03-08,2021,3,13,-7774.0,268036.0,-38655.5,13
2021-03-09,2021,3,13,11394.5,279430.5,-27261.0,13
2021-03-10,2021,3,13,-1014.0,278416.5,-28275.0,13
2021-03-11,2021,3,13,7774.0,286190.5,-20501.0,13
2021-03-12,2021,3,13,-3516.5,282674.0,-24017.5,13
2021-03-14,2021,3,13,429.0,283103.0,-23588.5,13
2021-03-15,2021,3,13,2710.5,285813.5,-20878.0,13
2021-03-16,2021,3,13,2411.5,288225.0,-18466.5,13
2021-03-17,2021,3,13,1943.5,290168.5,-16523.0,13
2021-03-18,2021,3,13,-11407.5,278761.0,-27930.5,13
2021-03-19,2021,3,13,1092.0,279853.0,-26838.5,13
2021-03-21,2021,3,13,936.0,280789.0,-25902.5,13
2021-03-22,2021,3,13,5824.0,286613.0,-20078.5,13
2021-03-23,2021,3,13,-1475.5,285137.5,-21554.0,13
2021-03-24,2021,3,13,-5830.5,279307.0,-27384.5,13
2021-03-25,2021,3,13,-117.0,279190.0,-27501.5,13
2021-03-26,2021,3,13,4186.0,283376.0,-23315.5,13
2021-03-28,2021,3,13,-1072.5,282303.5,-24388.0,13
2021-03-29,2021,3,13,1527.5,283831.0,-22860.5,13
2021-03-30,2021,3,13,-2177.5,281653.5,-25038.0,13
2021-03-31,2021,3,13,5882.5,287536.0,-19155.5,13
2021-04-01,2021,3,13,5837.0,293373.0,-13318.5,13
2021-04-02,2021,3,13,91.0,293464.0,-13227.5,13
2021-04-04,2021,3,13,65.0,293529.0,-13162.5,13
2021-04-05,2021,3,13,6883.5,300412.5,-6279.0,13
2021-04-06,2021,3,13,-572.0,299840.5,-6851.0,13
2021-04-07,2021,3,13,1137.5,300978.0,-5713.5,13
2021-04-08,2021,3,13,4264.0,305242.0,-1449.5,13
2021-04-09,2021,3,13,175.5,305417.5,-1274.0,13
2021-04-11,2021,3,13,-780.0,304637.5,-2054.0,13
2021-04-12,2021,3,13,1001.0,305638.5,-1053.0,13
2021-04-13,2021,3,13,3887.0,309525.5,0.0,13
2021-04-14,2021,3,13,-4036.5,305489.0,-4036.5,13
2021-04-15,2021,3,13,5167.5,310656.5,0.0,13
2021-04-16,2021,3,13,305.5,310962.0,0.0,13
2021-04-18,2021,3,13,-812.5,310149.5,-812.5,13
2021-04-19,2021,3,13,-1917.5,308232.0,-2730.0,13
2021-04-20,2021,3,13,-4452.5,303779.5,-7182.5,13
2021-04-21,2021,3,13,3568.5,307348.0,-3614.0,13
2021-04-22,2021,3,13,-3217.5,304130.5,-6831.5,13
2021-04-23,2021,3,13,3796.0,307926.5,-3035.5,13
2021-04-25,2021,3,13,123.5,308050.0,-2912.0,13
2021-04-26,2021,3,13,3048.5,311098.5,0.0,13
2021-04-27,2021,3,13,-1677.0,309421.5,-1677.0,13
2021-04-28,2021,3,13,234.0,309655.5,-1443.0,13
2021-04-29,2021,3,13,-1462.5,308193.0,-2905.5,13
2021-04-30,2021,3,13,-1300.0,306893.0,-4205.5,13
2021-05-02,2021,3,13,370.5,307263.5,-3835.0,13
2021-05-03,2021,3,13,-2879.5,304384.0,-6714.5,13
2021-05-04,2021,3,13,-6357.0,298027.0,-13071.5,13
2021-05-05,2021,3,13,-630.5,297396.5,-13702.0,13
2021-05-06,2021,3,13,2899.0,300295.5,-10803.0,13
2021-05-07,2021,3,13,2743.0,303038.5,-8060.0,13
2021-05-09,2021,3,13,552.5,303591.0,-7507.5,13
2021-05-10,2021,3,13,-10510.5,293080.5,-18018.0,13
2021-05-11,2021,3,13,78.0,293158.5,-17940.0,13
2021-05-12,2021,3,13,-8365.5,284793.0,-26305.5,13
2021-05-13,2021,3,13,2502.5,287295.5,-23803.0,13
2021-05-14,2021,3,13,7488.0,294783.5,-16315.0,13
2021-05-16,2021,3,13,-162.5,294621.0,-16477.5,13
2021-05-17,2021,3,13,-1670.5,292950.5,-18148.0,13
2021-05-18,2021,3,13,-4127.5,288823.0,-22275.5,13
2021-05-19,2021,3,13,390.0,289213.0,-21885.5,13
2021-05-20,2021,3,13,8677.5,297890.5,-13208.0,13
2021-05-21,2021,3,13,-2801.5,295089.0,-16009.5,13
2021-05-23,2021,3,13,-1176.5,293912.5,-17186.0,13
2021-05-24,2021,3,13,7546.5,301459.0,-9639.5,13
2021-05-25,2021,3,13,1001.0,302460.0,-8638.5,13
2021-05-26,2021,3,13,331.5,302791.5,-8307.0,13
2021-05-27,2021,3,13,-123.5,302668.0,-8430.5,13
2021-05-28,2021,3,13,-487.5,302180.5,-8918.0,13
2021-05-30,2021,3,13,728.0,302908.5,-8190.0,13
2021-05-31,2021,3,13,-682.5,302226.0,-8872.5,13
2021-06-01,2021,3,13,-1345.5,300880.5,-10218.0,13
2021-06-02,2021,3,13,1358.5,302239.0,-8859.5,13
2021-06-03,2021,3,13,-4745.0,297494.0,-13604.5,13
2021-06-04,2021,3,13,6760.0,304254.0,-6844.5,13
2021-06-06,2021,3,13,91.0,304345.0,-6753.5,13
2021-06-07,2021,3,13,1436.5,305781.5,-5317.0,13
2021-06-08,2021,3,13,-149.5,305632.0,-5466.5,13
2021-06-09,2021,3,13,-52.0,305580.0,-5518.5,13
2021-06-10,2021,3,13,3971.5,309551.5,-1547.0,13
2021-06-11,2021,3,13,442.0,309993.5,-1105.0,13
2021-06-13,2021,3,13,643.5,310637.0,-461.5,13
2021-06-14,2021,3,13,2515.5,313152.5,0.0,13
2021-06-15,2021,3,13,-1950.0,311202.5,-1950.0,13
2021-06-16,2021,3,13,-3763.5,307439.0,-5713.5,13
2021-06-17,2021,3,13,7514.0,314953.0,0.0,13
2021-06-18,2021,3,13,-4101.5,310851.5,-4101.5,13
2021-06-20,2021,3,13,526.5,311378.0,-3575.0,13
2021-06-21,2021,3,13,2515.5,313893.5,-1059.5,13
2021-06-22,2021,3,13,3575.0,317468.5,0.0,13
2021-06-23,2021,3,13,357.5,317826.0,0.0,13
2021-06-24,2021,3,13,1566.5,319392.5,0.0,13
2021-06-25,2021,3,13,-396.5,318996.0,-396.5,13
2021-06-27,2021,3,13,611.0,319607.0,0.0,13
2021-06-28,2021,3,13,3562.0,323169.0,0.0,13
2021-06-29,2021,3,13,2496.0,325665.0,0.0,13
2021-06-30,2021,3,13,-708.5,324956.5,-708.5,13
2021-07-01,2021,3,13,-715.0,324241.5,-1423.5,13
2021-07-02,2021,3,13,4355.0,328596.5,0.0,13
2021-07-04,2021,3,13,364.0,328960.5,0.0,13
2021-07-05,2021,3,13,-6.5,328954.0,-6.5,13
2021-07-06,2021,3,13,1313.0,330267.0,0.0,13
2021-07-07,2021,3,13,1183.0,331450.0,0.0,13
2021-07-08,2021,3,13,-3074.5,328375.5,-3074.5,13
2021-07-09,2021,3,13,3185.0,331560.5,0.0,13
2021-07-11,2021,3,13,390.0,331950.5,0.0,13
2021-07-12,2021,3,13,1306.5,333257.0,0.0,13
2021-07-13,2021,3,13,-903.5,332353.5,-903.5,13
2021-07-14,2021,3,13,1540.5,333894.0,0.0,13
2021-07-15,2021,3,13,-3828.5,330065.5,-3828.5,13
2021-07-16,2021,3,13,-2242.5,327823.0,-6071.0,13
2021-07-18,2021,3,13,-715.0,327108.0,-6786.0,13
2021-07-19,2021,3,13,-1384.5,325723.5,-8170.5,13
2021-07-20,2021,3,13,3991.0,329714.5,-4179.5,13
2021-07-21,2021,3,13,2405.0,332119.5,-1774.5,13
2021-07-22,2021,3,13,3516.5,335636.0,0.0,13
2021-07-23,2021,3,13,3165.5,338801.5,0.0,13
2021-07-25,2021,3,13,741.0,339542.5,0.0,13
2021-07-26,2021,3,13,-247.0,339295.5,-247.0,13
2021-07-27,2021,3,13,-4972.5,334323.0,-5219.5,13
2021-07-28,2021,3,13,1768.0,336091.0,-3451.5,13
2021-07-29,2021,3,13,-3074.5,333016.5,-6526.0,13
2021-07-30,2021,3,13,2515.5,335532.0,-4010.5,13
2021-08-01,2021,3,13,897.0,336429.0,-3113.5,13
2021-08-02,2021,3,13,-1053.0,335376.0,-4166.5,13
2021-08-03,2021,3,13,1813.5,337189.5,-2353.0,13
2021-08-04,2021,3,13,1371.5,338561.0,-981.5,13
2021-08-05,2021,3,13,1995.5,340556.5,0.0,13
2021-08-06,2021,3,13,-1761.5,338795.0,-1761.5,13
2021-08-08,2021,3,13,-1839.5,336955.5,-3601.0,13
2021-08-09,2021,3,13,2515.5,339471.0,-1085.5,13
2021-08-10,2021,3,13,-2164.5,337306.5,-3250.0,13
2021-08-11,2021,3,13,-1033.5,336273.0,-4283.5,13
2021-08-12,2021,3,13,1872.0,338145.0,-2411.5,13
2021-08-13,2021,3,13,1456.0,339601.0,-955.5,13
2021-08-15,2021,3,13,-253.5,339347.5,-1209.0,13
2021-08-16,2021,3,13,429.0,339776.5,-780.0,13
2021-08-17,2021,3,13,-4511.0,335265.5,-5291.0,13
2021-08-18,2021,3,13,-2899.0,332366.5,-8190.0,13
2021-08-19,2021,3,13,1852.5,334219.0,-6337.5,13
2021-08-20,2021,3,13,4634.5,338853.5,-1703.0,13
2021-08-22,2021,3,13,318.5,339172.0,-1384.5,13
2021-08-23,2021,3,13,5778.5,344950.5,0.0,13
2021-08-24,2021,3,13,734.5,345685.0,0.0,13
2021-08-25,2021,3,13,104.0,345789.0,0.0,13
2021-08-26,2021,3,13,-2171.0,343618.0,-2171.0,13
2021-08-27,2021,3,13,3893.5,347511.5,0.0,13
2021-08-29,2021,3,13,637.0,348148.5,0.0,13
2021-08-30,2021,3,13,3789.5,351938.0,0.0,13
2021-08-31,2021,3,13,-32.5,351905.5,-32.5,13
2021-09-01,2021,3,13,559.0,352464.5,0.0,13
2021-09-02,2021,3,13,-559.0,351905.5,-559.0,13
2021-09-03,2021,3,13,1469.0,353374.5,0.0,13
2021-09-05,2021,3,13,-84.5,353290.0,-84.5,13
2021-09-06,2021,3,13,1014.0,354304.0,0.0,13
2021-09-07,2021,3,13,-708.5,353595.5,-708.5,13
2021-09-08,2021,3,13,-1612.0,351983.5,-2320.5,13
2021-09-09,2021,3,13,-936.0,351047.5,-3256.5,13
2021-09-10,2021,3,13,-3282.5,347765.0,-6539.0,13
2021-09-12,2021,3,13,1215.5,348980.5,-5323.5,13
2021-09-13,2021,3,13,-1020.5,347960.0,-6344.0,13
2021-09-14,2021,3,13,-994.5,346965.5,-7338.5,13
2021-09-15,2021,3,13,2463.5,349429.0,-4875.0,13
2021-09-16,2021,3,13,-526.5,348902.5,-5401.5,13
2021-09-17,2021,3,13,-5109.0,343793.5,-10510.5,13
2021-09-19,2021,3,13,1066.0,344859.5,-9444.5,13
2021-09-20,2021,3,13,-7728.5,337131.0,-17173.0,13
2021-09-21,2021,3,13,-1449.5,335681.5,-18622.5,13
2021-09-22,2021,3,13,5687.5,341369.0,-12935.0,13
2021-09-23,2021,3,13,2931.5,344300.5,-10003.5,13
2021-09-24,2021,3,13,331.5,344632.0,-9672.0,13
2021-09-26,2021,3,13,19.5,344651.5,-9652.5,13
2021-09-27,2021,3,13,-3887.0,340764.5,-13539.5,13
2021-09-28,2021,3,13,-9535.5,331229.0,-23075.0,13
2021-09-29,2021,3,13,-325.0,330904.0,-23400.0,13
2021-09-30,2021,3,13,-1943.5,328960.5,-25343.5,13
2021-10-01,2021,3,13,1690.0,330650.5,-23653.5,13
2021-10-03,2021,3,13,916.5,331567.0,-22737.0,13
2021-10-04,2021,3,13,-8554.0,323013.0,-31291.0,13
2021-10-05,2021,3,13,3952.0,326965.0,-27339.0,13
2021-10-06,2021,3,13,4452.5,331417.5,-22886.5,13
2021-10-07,2021,3,13,3003.0,334420.5,-19883.5,13
2021-10-08,2021,3,13,-3120.0,331300.5,-23003.5,13
2021-10-10,2021,3,13,-2268.5,329032.0,-25272.0,13
2021-10-11,2021,3,13,-845.0,328187.0,-26117.0,13
2021-10-12,2021,3,13,-2080.0,326107.0,-28197.0,13
2021-10-13,2021,3,13,5187.0,331294.0,-23010.0,13
2021-10-14,2021,3,13,6942.0,338236.0,-16068.0,13
2021-10-15,2021,3,13,1917.5,340153.5,-14150.5,13
2021-10-17,2021,3,13,-1638.0,338515.5,-15788.5,13
2021-10-18,2021,3,13,5460.0,343975.5,-10328.5,13
2021-10-19,2021,3,13,3048.5,347024.0,-7280.0,13
2021-10-20,2021,3,13,-1924.0,345100.0,-9204.0,13
2021-10-21,2021,3,13,1469.0,346569.0,-7735.0,13
2021-10-22,2021,3,13,-1761.5,344807.5,-9496.5,13
2021-10-24,2021,3,13,-461.5,344346.0,-9958.0,13
2021-10-25,2021,3,13,6051.5,350397.5,-3906.5,13
2021-10-26,2021,3,13,546.0,350943.5,-3360.5,13
2021-10-27,2021,3,13,1722.5,352666.0,-1638.0,13
2021-10-28,2021,3,13,1196.0,353862.0,-442.0,13
2021-10-29,2021,3,13,5115.5,358977.5,0.0,13
2021-10-31,2021,3,13,299.0,359276.5,0.0,13
2021-11-01,2021,3,13,-110.5,359166.0,-110.5,13
2021-11-02,2021,3,13,1729.0,360895.0,0.0,13
2021-11-03,2021,3,13,6324.5,367219.5,0.0,13
2021-11-04,2021,3,13,4010.5,371230.0,0.0,13
2021-11-05,2021,3,13,78.0,371308.0,0.0,13
2021-11-07,2021,3,13,-806.0,370502.0,-806.0,13
2021-11-08,2021,3,13,-39.0,370463.0,-845.0,13
2021-11-09,2021,3,13,-3250.0,367213.0,-4095.0,13
2021-11-10,2021,3,13,-5076.5,362136.5,-9171.5,13
2021-11-11,2021,3,13,1924.0,364060.5,-7247.5,13
2021-11-12,2021,3,13,3568.5,367629.0,-3679.0,13
2021-11-14,2021,3,13,637.0,368266.0,-3042.0,13
2021-11-15,2021,3,13,-949.0,367317.0,-3991.0,13
2021-11-16,2021,3,13,3003.0,370320.0,-988.0,13
2021-11-17,2021,3,13,630.5,370950.5,-357.5,13
2021-11-18,2021,3,13,4329.0,375279.5,0.0,13
2021-11-19,2021,3,13,2398.5,377678.0,0.0,13
2021-11-21,2021,3,13,13.0,377691.0,0.0,13
2021-11-22,2021,3,13,-4992.0,372699.0,-4992.0,13
2021-11-23,2021,3,13,-2866.5,369832.5,-7858.5,13
2021-11-24,2021,3,13,1852.5,371685.0,-6006.0,13
2021-11-25,2021,3,13,344.5,372029.5,-5661.5,13
2021-11-26,2021,3,13,-8482.5,363547.0,-14144.0,13
2021-11-28,2021,3,13,3224.0,366771.0,-10920.0,13
2021-11-29,2021,3,13,6818.5,373589.5,-4101.5,13
2021-11-30,2021,3,13,-5362.5,368227.0,-9464.0,13
2021-12-01,2021,3,13,-7182.5,361044.5,-16646.5,13
2021-12-02,2021,3,13,-286.0,360758.5,-16932.5,13
2021-12-03,2021,3,13,-6539.0,354219.5,-23471.5,13
2021-12-05,2021,3,13,1371.5,355591.0,-22100.0,13
2021-12-06,2021,3,13,2697.5,358288.5,-19402.5,13
2021-12-07,2021,3,13,13013.0,371301.5,-6389.5,13
2021-12-08,2021,3,13,903.5,372205.0,-5486.0,13
2021-12-09,2021,3,13,-5271.5,366933.5,-10757.5,13
2021-12-10,2021,3,13,3880.5,370814.0,-6877.0,13
2021-12-12,2021,3,13,975.0,371789.0,-5902.0,13
2021-12-13,2021,3,13,-7046.0,364743.0,-12948.0,13
2021-12-14,2021,3,13,-4589.0,360154.0,-17537.0,13
2021-12-15,2021,3,13,10640.5,370794.5,-6896.5,13
2021-12-16,2021,3,13,-12603.5,358191.0,-19500.0,13
2021-12-17,2021,3,13,-227.5,357963.5,-19727.5,13
2021-12-19,2021,3,13,-3204.5,354759.0,-22932.0,13
2021-12-20,2021,3,13,351.0,355110.0,-22581.0,13
2021-12-21,2021,3,13,6233.5,361343.5,-16347.5,13
2021-12-22,2021,3,13,5850.0,367193.5,-10497.5,13
2021-12-23,2021,3,13,3055.0,370248.5,-7442.5,13
2021-12-26,2021,3,13,1033.5,371282.0,-6409.0,13
2021-12-27,2021,3,13,5525.0,376807.0,-884.0,13
2021-12-28,2021,3,13,-403.0,376404.0,-1287.0,13
2021-12-29,2021,3,13,-1976.0,374428.0,-3263.0,13
2021-12-30,2021,3,13,-650.0,373778.0,-3913.0,13
2021-12-31,2021,3,13,-2723.5,371054.5,-6636.5,13
2022-01-02,2022,6,16,1624.0,372678.5,-5012.5,16
2022-01-03,2022,6,16,3192.0,375870.5,-1820.5,16
2022-01-04,2022,6,16,-8032.0,367838.5,-9852.5,16
2022-01-05,2022,6,16,-14352.0,353486.5,-24204.5,16
2022-01-06,2022,6,16,1056.0,354542.5,-23148.5,16
2022-01-07,2022,6,16,-7832.0,346710.5,-30980.5,16
2022-01-09,2022,6,16,-440.0,346270.5,-31420.5,16
2022-01-10,2022,6,16,2200.0,348470.5,-29220.5,16
2022-01-11,2022,6,16,6176.0,354646.5,-23044.5,16
2022-01-12,2022,6,16,2312.0,356958.5,-20732.5,16
2022-01-13,2022,6,16,-12640.0,344318.5,-33372.5,16
2022-01-14,2022,6,16,3896.0,348214.5,-29476.5,16
2022-01-16,2022,6,16,-1216.0,346998.5,-30692.5,16
2022-01-17,2022,6,16,208.0,347206.5,-30484.5,16
2022-01-18,2022,6,16,-12624.0,334582.5,-43108.5,16
2022-01-19,2022,6,16,-6024.0,328558.5,-49132.5,16
2022-01-20,2022,6,16,-8344.0,320214.5,-57476.5,16
2022-01-21,2022,6,16,-10632.0,309582.5,-68108.5,16
2022-01-23,2022,6,16,-88.0,309494.5,-68196.5,0
2022-01-24,2022,6,16,0.0,309494.5,-68196.5,0
2022-01-25,2022,6,16,0.0,309494.5,-68196.5,0
2022-01-26,2022,6,16,0.0,309494.5,-68196.5,0
2022-01-27,2022,6,16,0.0,309494.5,-68196.5,0
2022-01-28,2022,6,16,0.0,309494.5,-68196.5,0
2022-01-30,2022,6,16,0.0,309494.5,-68196.5,0
2022-01-31,2022,6,16,0.0,309494.5,-68196.5,0
2022-02-01,2022,6,16,0.0,309494.5,-68196.5,0
2022-02-02,2022,6,16,0.0,309494.5,-68196.5,0
2022-02-03,2022,6,16,0.0,309494.5,-68196.5,0
2022-02-04,2022,6,16,0.0,309494.5,-68196.5,0
2022-02-06,2022,6,16,0.0,309494.5,-68196.5,0
2022-02-07,2022,6,16,0.0,309494.5,-68196.5,0
2022-02-08,2022,6,16,0.0,309494.5,-68196.5,0
2022-02-09,2022,6,16,0.0,309494.5,-68196.5,0
2022-02-10,2022,6,16,0.0,309494.5,-68196.5,0
2022-02-11,2022,6,16,0.0,309494.5,-68196.5,0
2022-02-13,2022,6,16,0.0,309494.5,-68196.5,0
2022-02-14,2022,6,16,0.0,309494.5,-68196.5,0
2022-02-15,2022,6,16,0.0,309494.5,-68196.5,0
2022-02-16,2022,6,16,0.0,309494.5,-68196.5,0
2022-02-17,2022,6,16,0.0,309494.5,-68196.5,0
2022-02-18,2022,6,16,0.0,309494.5,-68196.5,0
2022-02-20,2022,6,16,0.0,309494.5,-68196.5,0
2022-02-21,2022,6,16,0.0,309494.5,-68196.5,0
2022-02-22,2022,6,16,0.0,309494.5,-68196.5,0
2022-02-23,2022,6,16,0.0,309494.5,-68196.5,0
2022-02-24,2022,6,16,0.0,309494.5,-68196.5,0
2022-02-25,2022,6,16,0.0,309494.5,-68196.5,0
2022-02-27,2022,6,16,0.0,309494.5,-68196.5,0
2022-02-28,2022,6,16,0.0,309494.5,-68196.5,0
2022-03-01,2022,6,16,0.0,309494.5,-68196.5,0
2022-03-02,2022,6,16,0.0,309494.5,-68196.5,0
2022-03-03,2022,6,16,0.0,309494.5,-68196.5,0
2022-03-04,2022,6,16,0.0,309494.5,-68196.5,0
2022-03-06,2022,6,16,0.0,309494.5,-68196.5,0
2022-03-07,2022,6,16,0.0,309494.5,-68196.5,0
2022-03-08,2022,6,16,0.0,309494.5,-68196.5,0
2022-03-09,2022,6,16,0.0,309494.5,-68196.5,0
2022-03-10,2022,6,16,0.0,309494.5,-68196.5,0
2022-03-11,2022,6,16,0.0,309494.5,-68196.5,0
2022-03-13,2022,6,16,0.0,309494.5,-68196.5,0
2022-03-14,2022,6,16,0.0,309494.5,-68196.5,0
2022-03-15,2022,6,16,0.0,309494.5,-68196.5,0
2022-03-16,2022,6,16,0.0,309494.5,-68196.5,0
2022-03-17,2022,6,16,0.0,309494.5,-68196.5,0
2022-03-18,2022,6,16,0.0,309494.5,-68196.5,0
2022-03-20,2022,6,16,0.0,309494.5,-68196.5,0
2022-03-21,2022,6,16,0.0,309494.5,-68196.5,0
2022-03-22,2022,6,16,0.0,309494.5,-68196.5,0
2022-03-23,2022,6,16,0.0,309494.5,-68196.5,0
2022-03-24,2022,6,16,0.0,309494.5,-68196.5,0
2022-03-25,2022,6,16,0.0,309494.5,-68196.5,0
2022-03-27,2022,6,16,0.0,309494.5,-68196.5,0
2022-03-28,2022,6,16,0.0,309494.5,-68196.5,0
2022-03-29,2022,6,16,0.0,309494.5,-68196.5,0
2022-03-30,2022,6,16,0.0,309494.5,-68196.5,0
2022-03-31,2022,6,16,0.0,309494.5,-68196.5,0
2022-04-01,2022,6,16,0.0,309494.5,-68196.5,0
2022-04-03,2022,6,16,0.0,309494.5,-68196.5,0
2022-04-04,2022,6,16,0.0,309494.5,-68196.5,0
2022-04-05,2022,6,16,0.0,309494.5,-68196.5,0
2022-04-06,2022,6,16,0.0,309494.5,-68196.5,0
2022-04-07,2022,6,16,0.0,309494.5,-68196.5,0
2022-04-08,2022,6,16,0.0,309494.5,-68196.5,0
2022-04-10,2022,6,16,0.0,309494.5,-68196.5,0
2022-04-11,2022,6,16,0.0,309494.5,-68196.5,0
2022-04-12,2022,6,16,0.0,309494.5,-68196.5,0
2022-04-13,2022,6,16,0.0,309494.5,-68196.5,0
2022-04-14,2022,6,16,0.0,309494.5,-68196.5,0
2022-04-17,2022,6,16,0.0,309494.5,-68196.5,0
2022-04-18,2022,6,16,0.0,309494.5,-68196.5,0
2022-04-19,2022,6,16,0.0,309494.5,-68196.5,0
2022-04-20,2022,6,16,0.0,309494.5,-68196.5,0
2022-04-21,2022,6,16,0.0,309494.5,-68196.5,0
2022-04-22,2022,6,16,0.0,309494.5,-68196.5,0
2022-04-24,2022,6,16,0.0,309494.5,-68196.5,0
2022-04-25,2022,6,16,0.0,309494.5,-68196.5,0
2022-04-26,2022,6,16,0.0,309494.5,-68196.5,0
2022-04-27,2022,6,16,0.0,309494.5,-68196.5,0
2022-04-28,2022,6,16,0.0,309494.5,-68196.5,0
2022-04-29,2022,6,16,0.0,309494.5,-68196.5,0
2022-05-01,2022,6,16,0.0,309494.5,-68196.5,0
2022-05-02,2022,6,16,0.0,309494.5,-68196.5,0
2022-05-03,2022,6,16,0.0,309494.5,-68196.5,0
2022-05-04,2022,6,16,0.0,309494.5,-68196.5,0
2022-05-05,2022,6,16,0.0,309494.5,-68196.5,0
2022-05-06,2022,6,16,0.0,309494.5,-68196.5,0
2022-05-08,2022,6,16,0.0,309494.5,-68196.5,0
2022-05-09,2022,6,16,0.0,309494.5,-68196.5,0
2022-05-10,2022,6,16,0.0,309494.5,-68196.5,0
2022-05-11,2022,6,16,0.0,309494.5,-68196.5,0
2022-05-12,2022,6,16,0.0,309494.5,-68196.5,0
2022-05-13,2022,6,16,0.0,309494.5,-68196.5,0
2022-05-15,2022,6,16,0.0,309494.5,-68196.5,0
2022-05-16,2022,6,16,0.0,309494.5,-68196.5,0
2022-05-17,2022,6,16,0.0,309494.5,-68196.5,0
2022-05-18,2022,6,16,0.0,309494.5,-68196.5,0
2022-05-19,2022,6,16,0.0,309494.5,-68196.5,0
2022-05-20,2022,6,16,0.0,309494.5,-68196.5,0
2022-05-22,2022,6,16,0.0,309494.5,-68196.5,0
2022-05-23,2022,6,16,0.0,309494.5,-68196.5,0
2022-05-24,2022,6,16,0.0,309494.5,-68196.5,0
2022-05-25,2022,6,16,0.0,309494.5,-68196.5,0
2022-05-26,2022,6,16,0.0,309494.5,-68196.5,0
2022-05-27,2022,6,16,0.0,309494.5,-68196.5,0
2022-05-29,2022,6,16,0.0,309494.5,-68196.5,0
2022-05-30,2022,6,16,0.0,309494.5,-68196.5,0
2022-05-31,2022,6,16,0.0,309494.5,-68196.5,0
2022-06-01,2022,6,16,0.0,309494.5,-68196.5,0
2022-06-02,2022,6,16,0.0,309494.5,-68196.5,0
2022-06-03,2022,6,16,0.0,309494.5,-68196.5,0
2022-06-05,2022,6,16,0.0,309494.5,-68196.5,0
2022-06-06,2022,6,16,0.0,309494.5,-68196.5,0
2022-06-07,2022,6,16,0.0,309494.5,-68196.5,0
2022-06-08,2022,6,16,0.0,309494.5,-68196.5,0
2022-06-09,2022,6,16,0.0,309494.5,-68196.5,0
2022-06-10,2022,6,16,0.0,309494.5,-68196.5,0
2022-06-12,2022,6,16,0.0,309494.5,-68196.5,0
2022-06-13,2022,6,16,0.0,309494.5,-68196.5,0
2022-06-14,2022,6,16,0.0,309494.5,-68196.5,0
2022-06-15,2022,6,16,0.0,309494.5,-68196.5,0
2022-06-16,2022,6,16,0.0,309494.5,-68196.5,0
2022-06-17,2022,6,16,0.0,309494.5,-68196.5,0
2022-06-19,2022,6,16,0.0,309494.5,-68196.5,0
2022-06-20,2022,6,16,0.0,309494.5,-68196.5,0
2022-06-21,2022,6,16,0.0,309494.5,-68196.5,0
2022-06-22,2022,6,16,0.0,309494.5,-68196.5,0
2022-06-23,2022,6,16,0.0,309494.5,-68196.5,0
2022-06-24,2022,6,16,0.0,309494.5,-68196.5,0
2022-06-26,2022,6,16,0.0,309494.5,-68196.5,0
2022-06-27,2022,6,16,0.0,309494.5,-68196.5,0
2022-06-28,2022,6,16,0.0,309494.5,-68196.5,0
2022-06-29,2022,6,16,0.0,309494.5,-68196.5,0
2022-06-30,2022,6,16,0.0,309494.5,-68196.5,0
2022-07-01,2022,6,16,0.0,309494.5,-68196.5,0
2022-07-03,2022,6,16,0.0,309494.5,-68196.5,0
2022-07-04,2022,6,16,0.0,309494.5,-68196.5,0
2022-07-05,2022,6,16,0.0,309494.5,-68196.5,0
2022-07-06,2022,6,16,0.0,309494.5,-68196.5,0
2022-07-07,2022,6,16,0.0,309494.5,-68196.5,0
2022-07-08,2022,6,16,0.0,309494.5,-68196.5,0
2022-07-10,2022,6,16,0.0,309494.5,-68196.5,0
2022-07-11,2022,6,16,0.0,309494.5,-68196.5,0
2022-07-12,2022,6,16,0.0,309494.5,-68196.5,0
2022-07-13,2022,6,16,0.0,309494.5,-68196.5,0
2022-07-14,2022,6,16,0.0,309494.5,-68196.5,0
2022-07-15,2022,6,16,0.0,309494.5,-68196.5,0
2022-07-17,2022,6,16,0.0,309494.5,-68196.5,0
2022-07-18,2022,6,16,0.0,309494.5,-68196.5,0
2022-07-19,2022,6,16,0.0,309494.5,-68196.5,0
2022-07-20,2022,6,16,0.0,309494.5,-68196.5,0
2022-07-21,2022,6,16,0.0,309494.5,-68196.5,0
2022-07-22,2022,6,16,0.0,309494.5,-68196.5,0
2022-07-24,2022,6,16,0.0,309494.5,-68196.5,0
2022-07-25,2022,6,16,0.0,309494.5,-68196.5,0
2022-07-26,2022,6,16,0.0,309494.5,-68196.5,0
2022-07-27,2022,6,16,0.0,309494.5,-68196.5,0
2022-07-28,2022,6,16,0.0,309494.5,-68196.5,0
2022-07-29,2022,6,16,0.0,309494.5,-68196.5,0
2022-07-31,2022,6,16,0.0,309494.5,-68196.5,0
2022-08-01,2022,6,16,0.0,309494.5,-68196.5,0
2022-08-02,2022,6,16,0.0,309494.5,-68196.5,0
2022-08-03,2022,6,16,0.0,309494.5,-68196.5,0
2022-08-04,2022,6,16,0.0,309494.5,-68196.5,0
2022-08-05,2022,6,16,0.0,309494.5,-68196.5,0
2022-08-07,2022,6,16,0.0,309494.5,-68196.5,0
2022-08-08,2022,6,16,0.0,309494.5,-68196.5,0
2022-08-09,2022,6,16,0.0,309494.5,-68196.5,0
2022-08-10,2022,6,16,0.0,309494.5,-68196.5,0
2022-08-11,2022,6,16,0.0,309494.5,-68196.5,0
2022-08-12,2022,6,16,0.0,309494.5,-68196.5,0
2022-08-14,2022,6,16,0.0,309494.5,-68196.5,0
2022-08-15,2022,6,16,0.0,309494.5,-68196.5,0
2022-08-16,2022,6,16,0.0,309494.5,-68196.5,0
2022-08-17,2022,6,16,0.0,309494.5,-68196.5,0
2022-08-18,2022,6,16,0.0,309494.5,-68196.5,0
2022-08-19,2022,6,16,0.0,309494.5,-68196.5,0
2022-08-21,2022,6,16,0.0,309494.5,-68196.5,0
2022-08-22,2022,6,16,0.0,309494.5,-68196.5,0
2022-08-23,2022,6,16,0.0,309494.5,-68196.5,0
2022-08-24,2022,6,16,0.0,309494.5,-68196.5,0
2022-08-25,2022,6,16,0.0,309494.5,-68196.5,0
2022-08-26,2022,6,16,0.0,309494.5,-68196.5,0
2022-08-28,2022,6,16,0.0,309494.5,-68196.5,0
2022-08-29,2022,6,16,0.0,309494.5,-68196.5,0
2022-08-30,2022,6,16,0.0,309494.5,-68196.5,0
2022-08-31,2022,6,16,0.0,309494.5,-68196.5,0
2022-09-01,2022,6,16,0.0,309494.5,-68196.5,0
2022-09-02,2022,6,16,0.0,309494.5,-68196.5,0
2022-09-04,2022,6,16,0.0,309494.5,-68196.5,0
2022-09-05,2022,6,16,0.0,309494.5,-68196.5,0
2022-09-06,2022,6,16,0.0,309494.5,-68196.5,0
2022-09-07,2022,6,16,0.0,309494.5,-68196.5,0
2022-09-08,2022,6,16,0.0,309494.5,-68196.5,0
2022-09-09,2022,6,16,0.0,309494.5,-68196.5,0
2022-09-11,2022,6,16,0.0,309494.5,-68196.5,0
2022-09-12,2022,6,16,0.0,309494.5,-68196.5,0
2022-09-13,2022,6,16,0.0,309494.5,-68196.5,0
2022-09-14,2022,6,16,0.0,309494.5,-68196.5,0
2022-09-15,2022,6,16,0.0,309494.5,-68196.5,0
2022-09-16,2022,6,16,0.0,309494.5,-68196.5,0
2022-09-18,2022,6,16,0.0,309494.5,-68196.5,0
2022-09-19,2022,6,16,0.0,309494.5,-68196.5,0
2022-09-20,2022,6,16,0.0,309494.5,-68196.5,0
2022-09-21,2022,6,16,0.0,309494.5,-68196.5,0
2022-09-22,2022,6,16,0.0,309494.5,-68196.5,0
2022-09-23,2022,6,16,0.0,309494.5,-68196.5,0
2022-09-25,2022,6,16,0.0,309494.5,-68196.5,0
2022-09-26,2022,6,16,0.0,309494.5,-68196.5,0
2022-09-27,2022,6,16,0.0,309494.5,-68196.5,0
2022-09-28,2022,6,16,0.0,309494.5,-68196.5,0
2022-09-29,2022,6,16,0.0,309494.5,-68196.5,0
2022-09-30,2022,6,16,0.0,309494.5,-68196.5,0
2022-10-02,2022,6,16,0.0,309494.5,-68196.5,0
2022-10-03,2022,6,16,0.0,309494.5,-68196.5,0
2022-10-04,2022,6,16,0.0,309494.5,-68196.5,0
2022-10-05,2022,6,16,0.0,309494.5,-68196.5,0
2022-10-06,2022,6,16,0.0,309494.5,-68196.5,0
2022-10-07,2022,6,16,0.0,309494.5,-68196.5,0
2022-10-09,2022,6,16,0.0,309494.5,-68196.5,0
2022-10-10,2022,6,16,0.0,309494.5,-68196.5,0
2022-10-11,2022,6,16,0.0,309494.5,-68196.5,0
2022-10-12,2022,6,16,0.0,309494.5,-68196.5,0
2022-10-13,2022,6,16,0.0,309494.5,-68196.5,0
2022-10-14,2022,6,16,0.0,309494.5,-68196.5,0
2022-10-16,2022,6,16,0.0,309494.5,-68196.5,0
2022-10-17,2022,6,16,0.0,309494.5,-68196.5,0
2022-10-18,2022,6,16,0.0,309494.5,-68196.5,0
2022-10-19,2022,6,16,0.0,309494.5,-68196.5,0
2022-10-20,2022,6,16,0.0,309494.5,-68196.5,0
2022-10-21,2022,6,16,0.0,309494.5,-68196.5,0
2022-10-23,2022,6,16,0.0,309494.5,-68196.5,0
2022-10-24,2022,6,16,0.0,309494.5,-68196.5,0
2022-10-25,2022,6,16,0.0,309494.5,-68196.5,0
2022-10-26,2022,6,16,0.0,309494.5,-68196.5,0
2022-10-27,2022,6,16,0.0,309494.5,-68196.5,0
2022-10-28,2022,6,16,0.0,309494.5,-68196.5,0
2022-10-30,2022,6,16,0.0,309494.5,-68196.5,0
2022-10-31,2022,6,16,0.0,309494.5,-68196.5,0
2022-11-01,2022,6,16,0.0,309494.5,-68196.5,0
2022-11-02,2022,6,16,0.0,309494.5,-68196.5,0
2022-11-03,2022,6,16,0.0,309494.5,-68196.5,0
2022-11-04,2022,6,16,0.0,309494.5,-68196.5,0
2022-11-06,2022,6,16,0.0,309494.5,-68196.5,0
2022-11-07,2022,6,16,0.0,309494.5,-68196.5,0
2022-11-08,2022,6,16,0.0,309494.5,-68196.5,0
2022-11-09,2022,6,16,0.0,309494.5,-68196.5,0
2022-11-10,2022,6,16,0.0,309494.5,-68196.5,0
2022-11-11,2022,6,16,0.0,309494.5,-68196.5,0
2022-11-13,2022,6,16,0.0,309494.5,-68196.5,0
2022-11-14,2022,6,16,0.0,309494.5,-68196.5,0
2022-11-15,2022,6,16,0.0,309494.5,-68196.5,0
2022-11-16,2022,6,16,0.0,309494.5,-68196.5,0
2022-11-17,2022,6,16,0.0,309494.5,-68196.5,0
2022-11-18,2022,6,16,0.0,309494.5,-68196.5,0
2022-11-20,2022,6,16,0.0,309494.5,-68196.5,0
2022-11-21,2022,6,16,0.0,309494.5,-68196.5,0
2022-11-22,2022,6,16,0.0,309494.5,-68196.5,0
2022-11-23,2022,6,16,0.0,309494.5,-68196.5,0
2022-11-24,2022,6,16,0.0,309494.5,-68196.5,0
2022-11-25,2022,6,16,0.0,309494.5,-68196.5,0
2022-11-27,2022,6,16,0.0,309494.5,-68196.5,0
2022-11-28,2022,6,16,0.0,309494.5,-68196.5,0
2022-11-29,2022,6,16,0.0,309494.5,-68196.5,0
2022-11-30,2022,6,16,0.0,309494.5,-68196.5,0
2022-12-01,2022,6,16,0.0,309494.5,-68196.5,0
2022-12-02,2022,6,16,0.0,309494.5,-68196.5,0
2022-12-04,2022,6,16,0.0,309494.5,-68196.5,0
2022-12-05,2022,6,16,0.0,309494.5,-68196.5,0
2022-12-06,2022,6,16,0.0,309494.5,-68196.5,0
2022-12-07,2022,6,16,0.0,309494.5,-68196.5,0
2022-12-08,2022,6,16,0.0,309494.5,-68196.5,0
2022-12-09,2022,6,16,0.0,309494.5,-68196.5,0
2022-12-11,2022,6,16,0.0,309494.5,-68196.5,0
2022-12-12,2022,6,16,0.0,309494.5,-68196.5,0
2022-12-13,2022,6,16,0.0,309494.5,-68196.5,0
2022-12-14,2022,6,16,0.0,309494.5,-68196.5,0
2022-12-15,2022,6,16,0.0,309494.5,-68196.5,0
2022-12-16,2022,6,16,0.0,309494.5,-68196.5,0
2022-12-18,2022,6,16,0.0,309494.5,-68196.5,0
2022-12-19,2022,6,16,0.0,309494.5,-68196.5,0
2022-12-20,2022,6,16,0.0,309494.5,-68196.5,0
2022-12-21,2022,6,16,0.0,309494.5,-68196.5,0
2022-12-22,2022,6,16,0.0,309494.5,-68196.5,0
2022-12-23,2022,6,16,0.0,309494.5,-68196.5,0
2022-12-26,2022,6,16,0.0,309494.5,-68196.5,0
2022-12-27,2022,6,16,0.0,309494.5,-68196.5,0
2022-12-28,2022,6,16,0.0,309494.5,-68196.5,0
2022-12-29,2022,6,16,0.0,309494.5,-68196.5,0
2022-12-30,2022,6,16,0.0,309494.5,-68196.5,0
2023-01-02,2023,4,14,0.0,309494.5,-68196.5,0
2023-01-03,2023,4,14,0.0,309494.5,-68196.5,0
2023-01-04,2023,4,14,0.0,309494.5,-68196.5,0
2023-01-05,2023,4,14,0.0,309494.5,-68196.5,0
2023-01-06,2023,4,14,0.0,309494.5,-68196.5,0
2023-01-08,2023,4,14,0.0,309494.5,-68196.5,0
2023-01-09,2023,4,14,0.0,309494.5,-68196.5,0
2023-01-10,2023,4,14,0.0,309494.5,-68196.5,0
2023-01-11,2023,4,14,0.0,309494.5,-68196.5,0
2023-01-12,2023,4,14,0.0,309494.5,-68196.5,0
2023-01-13,2023,4,14,0.0,309494.5,-68196.5,0
2023-01-15,2023,4,14,0.0,309494.5,-68196.5,0
2023-01-16,2023,4,14,0.0,309494.5,-68196.5,0
2023-01-17,2023,4,14,0.0,309494.5,-68196.5,0
2023-01-18,2023,4,14,0.0,309494.5,-68196.5,0
2023-01-19,2023,4,14,0.0,309494.5,-68196.5,0
2023-01-20,2023,4,14,0.0,309494.5,-68196.5,0
2023-01-22,2023,4,14,0.0,309494.5,-68196.5,0
2023-01-23,2023,4,14,0.0,309494.5,-68196.5,0
2023-01-24,2023,4,14,0.0,309494.5,-68196.5,0
2023-01-25,2023,4,14,0.0,309494.5,-68196.5,0
2023-01-26,2023,4,14,0.0,309494.5,-68196.5,0
2023-01-27,2023,4,14,0.0,309494.5,-68196.5,0
2023-01-29,2023,4,14,0.0,309494.5,-68196.5,0
2023-01-30,2023,4,14,0.0,309494.5,-68196.5,0
2023-01-31,2023,4,14,0.0,309494.5,-68196.5,0
2023-02-01,2023,4,14,0.0,309494.5,-68196.5,0
2023-02-02,2023,4,14,0.0,309494.5,-68196.5,0
2023-02-03,2023,4,14,0.0,309494.5,-68196.5,0
2023-02-05,2023,4,14,0.0,309494.5,-68196.5,0
2023-02-06,2023,4,14,0.0,309494.5,-68196.5,0
2023-02-07,2023,4,14,0.0,309494.5,-68196.5,0
2023-02-08,2023,4,14,0.0,309494.5,-68196.5,0
2023-02-09,2023,4,14,0.0,309494.5,-68196.5,0
2023-02-10,2023,4,14,0.0,309494.5,-68196.5,0
2023-02-12,2023,4,14,0.0,309494.5,-68196.5,0
2023-02-13,2023,4,14,0.0,309494.5,-68196.5,0
2023-02-14,2023,4,14,0.0,309494.5,-68196.5,0
2023-02-15,2023,4,14,0.0,309494.5,-68196.5,0
2023-02-16,2023,4,14,0.0,309494.5,-68196.5,0
2023-02-17,2023,4,14,0.0,309494.5,-68196.5,0
2023-02-19,2023,4,14,0.0,309494.5,-68196.5,0
2023-02-20,2023,4,14,0.0,309494.5,-68196.5,0
2023-02-21,2023,4,14,0.0,309494.5,-68196.5,0
2023-02-22,2023,4,14,0.0,309494.5,-68196.5,0
2023-02-23,2023,4,14,0.0,309494.5,-68196.5,0
2023-02-24,2023,4,14,0.0,309494.5,-68196.5,0
2023-02-26,2023,4,14,0.0,309494.5,-68196.5,0
2023-02-27,2023,4,14,0.0,309494.5,-68196.5,0
2023-02-28,2023,4,14,0.0,309494.5,-68196.5,0
2023-03-01,2023,4,14,0.0,309494.5,-68196.5,0
2023-03-02,2023,4,14,0.0,309494.5,-68196.5,0
2023-03-03,2023,4,14,0.0,309494.5,-68196.5,0
2023-03-05,2023,4,14,0.0,309494.5,-68196.5,0
2023-03-06,2023,4,14,0.0,309494.5,-68196.5,0
2023-03-07,2023,4,14,0.0,309494.5,-68196.5,0
2023-03-08,2023,4,14,0.0,309494.5,-68196.5,0
2023-03-09,2023,4,14,0.0,309494.5,-68196.5,0
2023-03-10,2023,4,14,0.0,309494.5,-68196.5,0
2023-03-12,2023,4,14,0.0,309494.5,-68196.5,0
2023-03-13,2023,4,14,0.0,309494.5,-68196.5,0
2023-03-14,2023,4,14,0.0,309494.5,-68196.5,0
2023-03-15,2023,4,14,0.0,309494.5,-68196.5,0
2023-03-16,2023,4,14,0.0,309494.5,-68196.5,0
2023-03-17,2023,4,14,0.0,309494.5,-68196.5,0
2023-03-19,2023,4,14,0.0,309494.5,-68196.5,0
2023-03-20,2023,4,14,0.0,309494.5,-68196.5,0
2023-03-21,2023,4,14,0.0,309494.5,-68196.5,0
2023-03-22,2023,4,14,0.0,309494.5,-68196.5,0
2023-03-23,2023,4,14,0.0,309494.5,-68196.5,0
2023-03-24,2023,4,14,0.0,309494.5,-68196.5,0
2023-03-26,2023,4,14,0.0,309494.5,-68196.5,0
2023-03-27,2023,4,14,0.0,309494.5,-68196.5,0
2023-03-28,2023,4,14,0.0,309494.5,-68196.5,0
2023-03-29,2023,4,14,0.0,309494.5,-68196.5,0
2023-03-30,2023,4,14,0.0,309494.5,-68196.5,0
2023-03-31,2023,4,14,0.0,309494.5,-68196.5,0
2023-04-02,2023,4,14,-225.0,309269.5,-68421.5,5
2023-04-03,2023,4,14,0.0,309269.5,-68421.5,0
2023-04-04,2023,4,14,0.0,309269.5,-68421.5,0
2023-04-05,2023,4,14,0.0,309269.5,-68421.5,0
2023-04-06,2023,4,14,0.0,309269.5,-68421.5,0
2023-04-07,2023,4,14,0.0,309269.5,-68421.5,0
2023-04-09,2023,4,14,0.0,309269.5,-68421.5,0
2023-04-10,2023,4,14,0.0,309269.5,-68421.5,0
2023-04-11,2023,4,14,0.0,309269.5,-68421.5,0
2023-04-12,2023,4,14,0.0,309269.5,-68421.5,0
2023-04-13,2023,4,14,0.0,309269.5,-68421.5,0
2023-04-14,2023,4,14,0.0,309269.5,-68421.5,0
2023-04-16,2023,4,14,0.0,309269.5,-68421.5,0
2023-04-17,2023,4,14,0.0,309269.5,-68421.5,0
2023-04-18,2023,4,14,0.0,309269.5,-68421.5,0
2023-04-19,2023,4,14,0.0,309269.5,-68421.5,0
2023-04-20,2023,4,14,0.0,309269.5,-68421.5,0
2023-04-21,2023,4,14,0.0,309269.5,-68421.5,0
2023-04-23,2023,4,14,0.0,309269.5,-68421.5,0
2023-04-24,2023,4,14,0.0,309269.5,-68421.5,0
2023-04-25,2023,4,14,0.0,309269.5,-68421.5,0
2023-04-26,2023,4,14,0.0,309269.5,-68421.5,0
2023-04-27,2023,4,14,0.0,309269.5,-68421.5,0
2023-04-28,2023,4,14,0.0,309269.5,-68421.5,0
2023-04-30,2023,4,14,-90.0,309179.5,-68511.5,5
2023-05-01,2023,4,14,-215.0,308964.5,-68726.5,5
2023-05-02,2023,4,14,-1035.0,307929.5,-69761.5,5
2023-05-03,2023,4,14,0.0,307929.5,-69761.5,0
2023-05-04,2023,4,14,0.0,307929.5,-69761.5,0
2023-05-05,2023,4,14,0.0,307929.5,-69761.5,0
2023-05-07,2023,4,14,-112.5,307817.0,-69874.0,5
2023-05-08,2023,4,14,327.5,308144.5,-69546.5,5
2023-05-09,2023,4,14,-615.0,307529.5,-70161.5,5
2023-05-10,2023,4,14,1462.5,308992.0,-68699.0,5
2023-05-11,2023,4,14,330.0,309322.0,-68369.0,5
2023-05-12,2023,4,14,-852.5,308469.5,-69221.5,5
2023-05-14,2023,4,14,-32.5,308437.0,-69254.0,5
2023-05-15,2023,4,14,920.0,309357.0,-68334.0,5
2023-05-16,2023,4,14,412.5,309769.5,-67921.5,5
2023-05-17,2023,4,14,1437.5,311207.0,-66484.0,5
2023-05-18,2023,4,14,2862.5,314069.5,-63621.5,5
2023-05-19,2023,4,14,-1012.5,313057.0,-64634.0,10
2023-05-21,2023,4,14,245.0,313302.0,-64389.0,10
2023-05-22,2023,4,14,1790.0,315092.0,-62599.0,10
2023-05-23,2023,4,14,-3895.0,311197.0,-66494.0,10
2023-05-24,2023,4,14,1975.0,313172.0,-64519.0,10
2023-05-25,2023,4,14,2360.0,315532.0,-62159.0,10
2023-05-26,2023,4,14,8120.0,323652.0,-54039.0,10
2023-05-28,2023,4,14,910.0,324562.0,-53129.0,10
2023-05-29,2023,4,14,-610.0,323952.0,-53739.0,10
2023-05-30,2023,4,14,715.0,324667.0,-53024.0,10
2023-05-31,2023,4,14,-2235.0,322432.0,-55259.0,10
2023-06-01,2023,4,14,3465.0,325897.0,-51794.0,10
2023-06-02,2023,4,14,2073.0,327970.0,-49721.0,14
2023-06-04,2023,4,14,-1400.0,326570.0,-51121.0,14
2023-06-05,2023,4,14,819.0,327389.0,-50302.0,14
2023-06-06,2023,4,14,819.0,328208.0,-49483.0,14
2023-06-07,2023,4,14,-7413.0,320795.0,-56896.0,14
2023-06-08,2023,4,14,4753.0,325548.0,-52143.0,14
2023-06-09,2023,4,14,1764.0,327312.0,-50379.0,14
2023-06-11,2023,4,14,791.0,328103.0,-49588.0,14
2023-06-12,2023,4,14,11522.0,339625.0,-38066.0,14
2023-06-13,2023,4,14,2870.0,342495.0,-35196.0,14
2023-06-14,2023,4,14,3052.0,345547.0,-32144.0,14
2023-06-15,2023,4,14,4060.0,349607.0,-28084.0,14
2023-06-16,2023,4,14,-1624.0,347983.0,-29708.0,14
2023-06-18,2023,4,14,49.0,348032.0,-29659.0,14
2023-06-19,2023,4,14,-1526.0,346506.0,-31185.0,14
2023-06-20,2023,4,14,371.0,346877.0,-30814.0,14
2023-06-21,2023,4,14,-6188.0,340689.0,-37002.0,14
2023-06-22,2023,4,14,5061.0,345750.0,-31941.0,14
2023-06-23,2023,4,14,-4655.0,341095.0,-36596.0,14
2023-06-25,2023,4,14,1267.0,342362.0,-35329.0,14
2023-06-26,2023,4,14,-5817.0,336545.0,-41146.0,14
2023-06-27,2023,4,14,4655.0,341200.0,-36491.0,14
2023-06-28,2023,4,14,3164.0,344364.0,-33327.0,14
2023-06-29,2023,4,14,-1554.0,342810.0,-34881.0,14
2023-06-30,2023,4,14,5621.0,348431.0,-29260.0,14
2023-07-02,2023,4,14,938.0,349369.0,-28322.0,14
2023-07-03,2023,4,14,-371.0,348998.0,-28693.0,14
2023-07-04,2023,4,14,77.0,349075.0,-28616.0,14
2023-07-05,2023,4,14,490.0,349565.0,-28126.0,14
2023-07-06,2023,4,14,-3682.0,345883.0,-31808.0,14
2023-07-07,2023,4,14,-973.0,344910.0,-32781.0,14
2023-07-09,2023,4,14,-301.0,344609.0,-33082.0,14
2023-07-10,2023,4,14,322.0,344931.0,-32760.0,14
2023-07-11,2023,4,14,2023.0,346954.0,-30737.0,14
2023-07-12,2023,4,14,5803.0,352757.0,-24934.0,14
2023-07-13,2023,4,14,6734.0,359491.0,-18200.0,14
2023-07-14,2023,4,14,-560.0,358931.0,-18760.0,14
2023-07-16,2023,4,14,-714.0,358217.0,-19474.0,14
2023-07-17,2023,4,14,4235.0,362452.0,-15239.0,14
2023-07-18,2023,4,14,4004.0,366456.0,-11235.0,14
2023-07-19,2023,4,14,-2919.0,363537.0,-14154.0,14
2023-07-20,2023,4,14,-7756.0,355781.0,-21910.0,14
2023-07-21,2023,4,14,-700.0,355081.0,-22610.0,14
2023-07-23,2023,4,14,-161.0,354920.0,-22771.0,14
2023-07-24,2023,4,14,511.0,355431.0,-22260.0,14
2023-07-25,2023,4,14,1967.0,357398.0,-20293.0,14
2023-07-26,2023,4,14,434.0,357832.0,-19859.0,14
2023-07-27,2023,4,14,-1869.0,355963.0,-21728.0,14
2023-07-28,2023,4,14,7252.0,363215.0,-14476.0,14
2023-07-30,2023,4,14,1169.0,364384.0,-13307.0,14
2023-07-31,2023,4,14,-756.0,363628.0,-14063.0,14
2023-08-01,2023,4,14,-3003.0,360625.0,-17066.0,14
2023-08-02,2023,4,14,-7308.0,353317.0,-24374.0,14
2023-08-03,2023,4,14,-301.0,353016.0,-24675.0,14
2023-08-04,2023,4,14,-3255.0,349761.0,-27930.0,14
2023-08-06,2023,4,14,1022.0,350783.0,-26908.0,14
2023-08-07,2023,4,14,2422.0,353205.0,-24486.0,14
2023-08-08,2023,4,14,-3780.0,349425.0,-28266.0,14
2023-08-09,2023,4,14,-3752.0,345673.0,-32018.0,14
2023-08-10,2023,4,14,574.0,346247.0,-31444.0,14
2023-08-11,2023,4,14,-3808.0,342439.0,-35252.0,14
2023-08-13,2023,4,14,945.0,343384.0,-34307.0,14
2023-08-14,2023,4,14,4592.0,347976.0,-29715.0,14
2023-08-15,2023,4,14,-5026.0,342950.0,-34741.0,14
2023-08-16,2023,4,14,-5362.0,337588.0,-40103.0,14
2023-08-17,2023,4,14,-4914.0,332674.0,-45017.0,14
2023-08-18,2023,4,14,-301.0,332373.0,-45318.0,14
2023-08-20,2023,4,14,980.0,333353.0,-44338.0,14
2023-08-21,2023,4,14,4914.0,338267.0,-39424.0,14
2023-08-22,2023,4,14,273.0,338540.0,-39151.0,14
2023-08-23,2023,4,14,10374.0,348914.0,-28777.0,14
2023-08-24,2023,4,14,-13503.0,335411.0,-42280.0,14
2023-08-25,2023,4,14,3325.0,338736.0,-38955.0,14
2023-08-27,2023,4,14,1099.0,339835.0,-37856.0,14
2023-08-28,2023,4,14,2408.0,342243.0,-35448.0,14
2023-08-29,2023,4,14,9471.0,351714.0,-25977.0,14
2023-08-30,2023,4,14,1904.0,353618.0,-24073.0,14
2023-08-31,2023,4,14,938.0,354556.0,-23135.0,14
2023-09-01,2023,4,14,-672.0,353884.0,-23807.0,14
2023-09-03,2023,4,14,119.0,354003.0,-23688.0,14
2023-09-04,2023,4,14,266.0,354269.0,-23422.0,14
2023-09-05,2023,4,14,-119.0,354150.0,-23541.0,14
2023-09-06,2023,4,14,-3661.0,350489.0,-27202.0,14
2023-09-07,2023,4,14,-3094.0,347395.0,-30296.0,14
2023-09-08,2023,4,14,959.0,348354.0,-29337.0,14
2023-09-10,2023,4,14,231.0,348585.0,-29106.0,14
2023-09-11,2023,4,14,9401.0,357986.0,-19705.0,14
2023-09-12,2023,4,14,-4284.0,353702.0,-23989.0,14
2023-09-13,2023,4,14,2072.0,355774.0,-21917.0,14
2023-09-14,2023,4,14,2730.0,358504.0,-19187.0,14
2023-09-15,2023,4,14,-8232.0,350272.0,-27419.0,14
2023-09-17,2023,4,14,840.0,351112.0,-26579.0,14
2023-09-18,2023,4,14,315.0,351427.0,-26264.0,14
2023-09-19,2023,4,14,-1148.0,350279.0,-27412.0,14
2023-09-20,2023,4,14,-7553.0,342726.0,-34965.0,14
2023-09-21,2023,4,14,-7343.0,335383.0,-42308.0,14
2023-09-22,2023,4,14,714.0,336097.0,-41594.0,14
2023-09-24,2023,4,14,581.0,336678.0,-41013.0,14
2023-09-25,2023,4,14,959.0,337637.0,-40054.0,14
2023-09-26,2023,4,14,-5397.0,332240.0,-45451.0,14
2023-09-27,2023,4,14,987.0,333227.0,-44464.0,14
2023-09-28,2023,4,14,2604.0,335831.0,-41860.0,14
2023-09-29,2023,4,14,686.0,336517.0,-41174.0,14
2023-10-01,2023,4,14,1708.0,338225.0,-39466.0,14
2023-10-02,2023,4,14,1141.0,339366.0,-38325.0,14
2023-10-03,2023,4,14,-7770.0,331596.0,-46095.0,14
2023-10-04,2023,4,14,5565.0,337161.0,-40530.0,14
2023-10-05,2023,4,14,-1771.0,335390.0,-42301.0,14
2023-10-06,2023,4,14,8113.0,343503.0,-34188.0,14
2023-10-08,2023,4,14,-3178.0,340325.0,-37366.0,14
2023-10-09,2023,4,14,4795.0,345120.0,-32571.0,14
2023-10-10,2023,4,14,2471.0,347591.0,-30100.0,14
2023-10-11,2023,4,14,3577.0,351168.0,-26523.0,14
2023-10-12,2023,4,14,-2387.0,348781.0,-28910.0,14
2023-10-13,2023,4,14,-6251.0,342530.0,-35161.0,14
2023-10-15,2023,4,14,1666.0,344196.0,-33495.0,14
2023-10-16,2023,4,14,3486.0,347682.0,-30009.0,14
2023-10-17,2023,4,14,-2233.0,345449.0,-32242.0,14
2023-10-18,2023,4,14,-4851.0,340598.0,-37093.0,14
2023-10-19,2023,4,14,-5446.0,335152.0,-42539.0,14
2023-10-20,2023,4,14,-5460.0,329692.0,-47999.0,14
2023-10-22,2023,4,14,1729.0,331421.0,-46270.0,14
2023-10-23,2023,4,14,1477.0,332898.0,-44793.0,14
2023-10-24,2023,4,14,1470.0,334368.0,-43323.0,14
2023-10-25,2023,4,14,-13020.0,321348.0,-56343.0,14
2023-10-26,2023,4,14,-994.0,320354.0,-57337.0,14
2023-10-27,2023,4,14,-1225.0,319129.0,-58562.0,14
2023-10-29,2023,4,14,1701.0,320830.0,-56861.0,14
2023-10-30,2023,4,14,1855.0,322685.0,-55006.0,14
2023-10-31,2023,4,14,1547.0,324232.0,-53459.0,14
2023-11-01,2023,4,14,9506.0,333738.0,-43953.0,14
2023-11-02,2023,4,14,4207.0,337945.0,-39746.0,14
2023-11-03,2023,4,14,6762.0,344707.0,-32984.0,14
2023-11-05,2023,4,14,-245.0,344462.0,-33229.0,14
2023-11-06,2023,4,14,924.0,345386.0,-32305.0,14
2023-11-07,2023,4,14,4466.0,349852.0,-27839.0,14
2023-11-08,2023,4,14,-287.0,349565.0,-28126.0,14
2023-11-09,2023,4,14,-3507.0,346058.0,-31633.0,14
2023-11-10,2023,4,14,9758.0,355816.0,-21875.0,14
2023-11-12,2023,4,14,-588.0,355228.0,-22463.0,14
2023-11-13,2023,4,14,-49.0,355179.0,-22512.0,14
2023-11-14,2023,4,14,9695.0,364874.0,-12817.0,14
2023-11-15,2023,4,14,-1113.0,363761.0,-13930.0,14
2023-11-16,2023,4,14,581.0,364342.0,-13349.0,14
2023-11-17,2023,4,14,-329.0,364013.0,-13678.0,14
2023-11-19,2023,4,14,-287.0,363726.0,-13965.0,14
2023-11-20,2023,4,14,6636.0,370362.0,-7329.0,14
2023-11-21,2023,4,14,-4102.0,366260.0,-11431.0,14
2023-11-22,2023,4,14,2562.0,368822.0,-8869.0,14
2023-11-23,2023,4,14,525.0,369347.0,-8344.0,14
2023-11-24,2023,4,14,-1505.0,367842.0,-9849.0,14
2023-11-26,2023,4,14,-686.0,367156.0,-10535.0,14
2023-11-27,2023,4,14,658.0,367814.0,-9877.0,14
2023-11-28,2023,4,14,1218.0,369032.0,-8659.0,14
2023-11-29,2023,4,14,-175.0,368857.0,-8834.0,14
2023-11-30,2023,4,14,-2310.0,366547.0,-11144.0,14
2023-12-01,2023,4,14,1862.0,368409.0,-9282.0,14
2023-12-03,2023,4,14,-1092.0,367317.0,-10374.0,14
2023-12-04,2023,4,14,-3990.0,363327.0,-14364.0,14
2023-12-05,2023,4,14,2198.0,365525.0,-12166.0,14
2023-12-06,2023,4,14,-3122.0,362403.0,-15288.0,14
2023-12-07,2023,4,14,5698.0,368101.0,-9590.0,14
2023-12-08,2023,4,14,2030.0,370131.0,-7560.0,14
2023-12-10,2023,4,14,336.0,370467.0,-7224.0,14
2023-12-11,2023,4,14,9807.0,380274.0,0.0,14
2023-12-12,2023,4,14,4333.0,384607.0,0.0,14
2023-12-13,2023,4,14,5782.0,390389.0,0.0,14
2023-12-14,2023,4,14,-1554.0,388835.0,-1554.0,14
2023-12-15,2023,4,14,1554.0,390389.0,0.0,14
2023-12-17,2023,4,14,217.0,390606.0,0.0,14
2023-12-18,2023,4,14,2814.0,393420.0,0.0,14
2023-12-19,2023,4,14,2898.0,396318.0,0.0,14
2023-12-20,2023,4,14,-6048.0,390270.0,-6048.0,14
2023-12-21,2023,4,14,3647.0,393917.0,-2401.0,14
2023-12-22,2023,4,14,574.0,394491.0,-1827.0,14
2023-12-25,2023,4,14,1162.0,395653.0,-665.0,14
2023-12-26,2023,4,14,2394.0,398047.0,0.0,14
2023-12-27,2023,4,14,903.0,398950.0,0.0,14
2023-12-28,2023,4,14,-588.0,398362.0,-588.0,14
2023-12-29,2023,4,14,-2709.0,395653.0,-3297.0,14
2024-01-01,2024,7,17,875.5,396528.5,-2421.5,17
2024-01-02,2024,7,17,-10378.5,386150.0,-12800.0,17
2024-01-03,2024,7,17,-5950.0,380200.0,-18750.0,17
2024-01-04,2024,7,17,-3162.0,377038.0,-21912.0,17
2024-01-05,2024,7,17,323.0,377361.0,-21589.0,17
2024-01-07,2024,7,17,569.5,377930.5,-21019.5,17
2024-01-08,2024,7,17,10285.0,388215.5,-10734.5,17
2024-01-09,2024,7,17,1793.5,390009.0,-8941.0,17
2024-01-10,2024,7,17,4173.5,394182.5,-4767.5,17
2024-01-11,2024,7,17,-306.0,393876.5,-5073.5,17
2024-01-12,2024,7,17,110.5,393987.0,-4963.0,17
2024-01-14,2024,7,17,-331.5,393655.5,-5294.5,17
2024-01-15,2024,7,17,-340.0,393315.5,-5634.5,17
2024-01-16,2024,7,17,1496.0,394811.5,-4138.5,17
2024-01-17,2024,7,17,-4267.0,390544.5,-8405.5,17
2024-01-18,2024,7,17,10030.0,400574.5,0.0,17
2024-01-19,2024,7,17,10693.0,411267.5,0.0,17
2024-01-21,2024,7,17,697.0,411964.5,0.0,17
2024-01-22,2024,7,17,-654.5,411310.0,-654.5,17
2024-01-23,2024,7,17,3791.0,415101.0,0.0,17
2024-01-24,2024,7,17,1394.0,416495.0,0.0,17
2024-01-25,2024,7,17,-2533.0,413962.0,-2533.0,17
2024-01-26,2024,7,17,-1283.5,412678.5,-3816.5,17
2024-01-28,2024,7,17,-850.0,411828.5,-4666.5,17
2024-01-29,2024,7,17,8236.5,420065.0,0.0,17
2024-01-30,2024,7,17,-9307.5,410757.5,-9307.5,17
2024-01-31,2024,7,17,-5635.5,405122.0,-14943.0,17
2024-02-01,2024,7,17,10574.0,415696.0,-4369.0,17
2024-02-02,2024,7,17,3145.0,418841.0,-1224.0,17
2024-02-04,2024,7,17,731.0,419572.0,-493.0,17
2024-02-05,2024,7,17,-382.5,419189.5,-875.5,17
2024-02-06,2024,7,17,-1504.5,417685.0,-2380.0,17
2024-02-07,2024,7,17,6477.0,424162.0,0.0,17
2024-02-08,2024,7,17,841.5,425003.5,0.0,17
2024-02-09,2024,7,17,5797.0,430800.5,0.0,17
2024-02-11,2024,7,17,-93.5,430707.0,-93.5,17
2024-02-12,2024,7,17,-3323.5,427383.5,-3417.0,17
2024-02-13,2024,7,17,-8398.0,418985.5,-11815.0,17
2024-02-14,2024,7,17,6409.0,425394.5,-5406.0,17
2024-02-15,2024,7,17,2507.5,427902.0,-2898.5,17
2024-02-16,2024,7,17,-7862.5,420039.5,-10761.0,17
2024-02-18,2024,7,17,1912.5,421952.0,-8848.5,17
2024-02-19,2024,7,17,-994.5,420957.5,-9843.0,17
2024-02-20,2024,7,17,-6120.0,414837.5,-15963.0,17
2024-02-21,2024,7,17,4615.5,419453.0,-11347.5,17
2024-02-22,2024,7,17,11475.0,430928.0,0.0,17
2024-02-23,2024,7,17,-2737.0,428191.0,-2737.0,17
2024-02-25,2024,7,17,731.0,428922.0,-2006.0,17
2024-02-26,2024,7,17,-663.0,428259.0,-2669.0,17
2024-02-27,2024,7,17,1428.0,429687.0,-1241.0,17
2024-02-28,2024,7,17,-4598.5,425088.5,-5839.5,17
2024-02-29,2024,7,17,6451.5,431540.0,0.0,17
2024-03-01,2024,7,17,8908.0,440448.0,0.0,17
2024-03-03,2024,7,17,748.0,441196.0,0.0,17
2024-03-04,2024,7,17,-4088.5,437107.5,-4088.5,17
2024-03-05,2024,7,17,-8865.5,428242.0,-12954.0,17
2024-03-06,2024,7,17,1904.0,430146.0,-11050.0,17
2024-03-07,2024,7,17,8423.5,438569.5,-2626.5,17
2024-03-08,2024,7,17,-7174.0,431395.5,-9800.5,17
2024-03-10,2024,7,17,-425.0,430970.5,-10225.5,17
2024-03-11,2024,7,17,8542.5,439513.0,-1683.0,17
2024-03-12,2024,7,17,6273.0,445786.0,0.0,17
2024-03-13,2024,7,17,-3587.0,442199.0,-3587.0,17
2024-03-14,2024,7,17,-4573.0,437626.0,-8160.0,17
2024-03-15,2024,7,17,-5950.0,431676.0,-14110.0,17
2024-03-17,2024,7,17,527.0,432203.0,-13583.0,17
2024-03-18,2024,7,17,3825.0,436028.0,-9758.0,17
2024-03-19,2024,7,17,2618.0,438646.0,-7140.0,17
2024-03-20,2024,7,17,10548.5,449194.5,0.0,17
2024-03-21,2024,7,17,348.5,449543.0,0.0,17
2024-03-22,2024,7,17,-850.0,448693.0,-850.0,17
2024-03-24,2024,7,17,748.0,449441.0,-102.0,17
2024-03-25,2024,7,17,-1547.0,447894.0,-1649.0,17
2024-03-26,2024,7,17,-1742.5,446151.5,-3391.5,17
2024-03-27,2024,7,17,-306.0,445845.5,-3697.5,17
2024-03-28,2024,7,17,-510.0,445335.5,-4207.5,17
2024-03-31,2024,7,17,4870.5,450206.0,0.0,17
2024-04-01,2024,7,17,-4700.5,445505.5,-4700.5,17
2024-04-02,2024,7,17,-4819.5,440686.0,-9520.0,17
2024-04-03,2024,7,17,3986.5,444672.5,-5533.5,17
2024-04-04,2024,7,17,-12044.5,432628.0,-17578.0,17
2024-04-05,2024,7,17,7446.0,440074.0,-10132.0,17
2024-04-07,2024,7,17,289.0,440363.0,-9843.0,17
2024-04-08,2024,7,17,-586.5,439776.5,-10429.5,17
2024-04-09,2024,7,17,2252.5,442029.0,-8177.0,17
2024-04-10,2024,7,17,-7123.0,434906.0,-15300.0,17
2024-04-11,2024,7,17,11279.5,446185.5,-4020.5,17
2024-04-12,2024,7,17,-10837.5,435348.0,-14858.0,17
2024-04-14,2024,7,17,2252.5,437600.5,-12605.5,17
2024-04-15,2024,7,17,-12486.5,425114.0,-25092.0,17
2024-04-16,2024,7,17,2218.5,427332.5,-22873.5,17
2024-04-17,2024,7,17,-8483.0,418849.5,-31356.5,17
2024-04-18,2024,7,17,-6689.5,412160.0,-38046.0,17
2024-04-19,2024,7,17,-10523.0,401637.0,-48569.0,17
2024-04-21,2024,7,17,3060.0,404697.0,-45509.0,17
2024-04-22,2024,7,17,1785.0,406482.0,-43724.0,17
2024-04-23,2024,7,17,12835.0,419317.0,-30889.0,17
2024-04-24,2024,7,17,-8083.5,411233.5,-38972.5,17
2024-04-25,2024,7,17,10089.5,421323.0,-28883.0,17
2024-04-26,2024,7,17,2652.0,423975.0,-26231.0,17
2024-04-28,2024,7,17,1683.0,425658.0,-24548.0,17
2024-04-29,2024,7,17,782.0,426440.0,-23766.0,17
2024-04-30,2024,7,17,-13668.0,412772.0,-37434.0,17
2024-05-01,2024,7,17,773.5,413545.5,-36660.5,17
2024-05-02,2024,7,17,7607.5,421153.0,-29053.0,17
2024-05-03,2024,7,17,9307.5,430460.5,-19745.5,17
2024-05-05,2024,7,17,-790.5,429670.0,-20536.0,17
2024-05-06,2024,7,17,6103.0,435773.0,-14433.0,17
2024-05-07,2024,7,17,697.0,436470.0,-13736.0,17
2024-05-08,2024,7,17,-1445.0,435025.0,-15181.0,17
2024-05-09,2024,7,17,2363.0,437388.0,-12818.0,17
2024-05-10,2024,7,17,280.5,437668.5,-12537.5,17
2024-05-12,2024,7,17,204.0,437872.5,-12333.5,17
2024-05-13,2024,7,17,1300.5,439173.0,-11033.0,17
2024-05-14,2024,7,17,4530.5,443703.5,-6502.5,17
2024-05-15,2024,7,17,10336.0,454039.5,0.0,17
2024-05-16,2024,7,17,-2371.5,451668.0,-2371.5,17
2024-05-17,2024,7,17,-595.0,451073.0,-2966.5,17
2024-05-19,2024,7,17,1130.5,452203.5,-1836.0,17
2024-05-20,2024,7,17,2881.5,455085.0,0.0,17
2024-05-21,2024,7,17,2099.5,457184.5,0.0,17
2024-05-22,2024,7,17,2082.5,459267.0,0.0,17
2024-05-23,2024,7,17,-5907.5,453359.5,-5907.5,17
2024-05-24,2024,7,17,5797.0,459156.5,-110.5,17
2024-05-26,2024,7,17,-1198.5,457958.0,-1309.0,17
2024-05-27,2024,7,17,2439.5,460397.5,0.0,17
2024-05-28,2024,7,17,739.5,461137.0,0.0,17
2024-05-29,2024,7,17,-7021.0,454116.0,-7021.0,17
2024-05-30,2024,7,17,-5593.0,448523.0,-12614.0,17
2024-05-31,2024,7,17,433.5,448956.5,-12180.5,17
2024-06-02,2024,7,17,688.5,449645.0,-11492.0,17
2024-06-03,2024,7,17,1989.0,451634.0,-9503.0,17
2024-06-04,2024,7,17,2966.5,454600.5,-6536.5,17
2024-06-05,2024,7,17,12019.0,466619.5,0.0,17
2024-06-06,2024,7,17,-552.5,466067.0,-552.5,17
2024-06-07,2024,7,17,-1496.0,464571.0,-2048.5,17
2024-06-09,2024,7,17,-136.0,464435.0,-2184.5,17
2024-06-10,2024,7,17,1963.5,466398.5,-221.0,17
2024-06-11,2024,7,17,5848.0,472246.5,0.0,17
2024-06-12,2024,7,17,11679.0,483925.5,0.0,17
2024-06-13,2024,7,17,620.5,484546.0,0.0,17
2024-06-14,2024,7,17,2643.5,487189.5,0.0,17
2024-06-16,2024,7,17,518.5,487708.0,0.0,17
2024-06-17,2024,7,17,16779.0,504487.0,0.0,17
2024-06-18,2024,7,17,620.5,505107.5,0.0,17
2024-06-19,2024,7,17,433.5,505541.0,0.0,17
2024-06-20,2024,7,17,-5661.0,499880.0,-5661.0,17
2024-06-21,2024,7,17,-2057.0,497823.0,-7718.0,17
2024-06-23,2024,7,17,-25.5,497797.5,-7743.5,17
2024-06-24,2024,7,17,-8041.0,489756.5,-15784.5,17
2024-06-25,2024,7,17,6596.0,496352.5,-9188.5,17
2024-06-26,2024,7,17,-1598.0,494754.5,-10786.5,17
2024-06-27,2024,7,17,6009.5,500764.0,-4777.0,17
2024-06-28,2024,7,17,-4369.0,496395.0,-9146.0,17
2024-06-30,2024,7,17,-714.0,495681.0,-9860.0,17
2024-07-01,2024,7,17,2482.0,498163.0,-7378.0,17
2024-07-02,2024,7,17,7437.5,505600.5,0.0,17
2024-07-03,2024,7,17,5593.0,511193.5,0.0,17
2024-07-04,2024,7,17,-399.5,510794.0,-399.5,17
2024-07-05,2024,7,17,6791.5,517585.5,0.0,17
2024-07-07,2024,7,17,8.5,517594.0,0.0,17
2024-07-08,2024,7,17,5023.5,522617.5,0.0,17
2024-07-09,2024,7,17,-1385.5,521232.0,-1385.5,17
2024-07-10,2024,7,17,6247.5,527479.5,0.0,17
2024-07-11,2024,7,17,-15869.5,511610.0,-15869.5,17
2024-07-12,2024,7,17,4258.5,515868.5,-11611.0,17
2024-07-14,2024,7,17,688.5,516557.0,-10922.5,17
2024-07-15,2024,7,17,2439.5,518996.5,-8483.0,17
2024-07-16,2024,7,17,-2261.0,516735.5,-10744.0,17
2024-07-17,2024,7,17,-17229.5,499506.0,-27973.5,17
2024-07-18,2024,7,17,-3833.5,495672.5,-31807.0,17
2024-07-19,2024,7,17,-8304.5,487368.0,-40111.5,17
2024-07-21,2024,7,17,3918.5,491286.5,-36193.0,17
2024-07-22,2024,7,17,4683.5,495970.0,-31509.5,17
2024-07-23,2024,7,17,-5508.0,490462.0,-37017.5,17
2024-07-24,2024,7,17,-17722.5,472739.5,-54740.0,17
2024-07-25,2024,7,17,-8423.5,464316.0,-63163.5,17
2024-07-26,2024,7,17,5176.5,469492.5,-57987.0,17
2024-07-28,2024,7,17,2235.5,471728.0,-55751.5,17
2024-07-29,2024,7,17,-3689.0,468039.0,-59440.5,17
2024-07-30,2024,7,17,-2456.5,465582.5,-61897.0,17
2024-07-31,2024,7,17,20859.0,486441.5,-41038.0,17
2024-08-01,2024,7,17,-25865.5,460576.0,-66903.5,17
2024-08-02,2024,7,17,-13727.5,446848.5,-80631.0,17
2024-08-04,2024,7,17,-4012.0,442836.5,-84643.0,0
2024-08-05,2024,7,17,0.0,442836.5,-84643.0,0
2024-08-06,2024,7,17,0.0,442836.5,-84643.0,0
2024-08-07,2024,7,17,0.0,442836.5,-84643.0,0
2024-08-08,2024,7,17,0.0,442836.5,-84643.0,0
2024-08-09,2024,7,17,0.0,442836.5,-84643.0,0
2024-08-11,2024,7,17,0.0,442836.5,-84643.0,0
2024-08-12,2024,7,17,0.0,442836.5,-84643.0,0
2024-08-13,2024,7,17,0.0,442836.5,-84643.0,0
2024-08-14,2024,7,17,0.0,442836.5,-84643.0,0
2024-08-15,2024,7,17,0.0,442836.5,-84643.0,0
2024-08-16,2024,7,17,0.0,442836.5,-84643.0,0
2024-08-18,2024,7,17,0.0,442836.5,-84643.0,0
2024-08-19,2024,7,17,0.0,442836.5,-84643.0,0
2024-08-20,2024,7,17,0.0,442836.5,-84643.0,0
2024-08-21,2024,7,17,0.0,442836.5,-84643.0,0
2024-08-22,2024,7,17,0.0,442836.5,-84643.0,0
2024-08-23,2024,7,17,0.0,442836.5,-84643.0,0
2024-08-25,2024,7,17,0.0,442836.5,-84643.0,0
2024-08-26,2024,7,17,0.0,442836.5,-84643.0,0
2024-08-27,2024,7,17,0.0,442836.5,-84643.0,0
2024-08-28,2024,7,17,0.0,442836.5,-84643.0,0
2024-08-29,2024,7,17,0.0,442836.5,-84643.0,0
2024-08-30,2024,7,17,0.0,442836.5,-84643.0,0
2024-09-01,2024,7,17,0.0,442836.5,-84643.0,0
2024-09-02,2024,7,17,0.0,442836.5,-84643.0,0
2024-09-03,2024,7,17,0.0,442836.5,-84643.0,0
2024-09-04,2024,7,17,0.0,442836.5,-84643.0,0
2024-09-05,2024,7,17,0.0,442836.5,-84643.0,0
2024-09-06,2024,7,17,0.0,442836.5,-84643.0,0
2024-09-08,2024,7,17,0.0,442836.5,-84643.0,0
2024-09-09,2024,7,17,0.0,442836.5,-84643.0,0
2024-09-10,2024,7,17,0.0,442836.5,-84643.0,0
2024-09-11,2024,7,17,0.0,442836.5,-84643.0,0
2024-09-12,2024,7,17,0.0,442836.5,-84643.0,0
2024-09-13,2024,7,17,0.0,442836.5,-84643.0,0
2024-09-15,2024,7,17,0.0,442836.5,-84643.0,0
2024-09-16,2024,7,17,0.0,442836.5,-84643.0,0
2024-09-17,2024,7,17,0.0,442836.5,-84643.0,0
2024-09-18,2024,7,17,0.0,442836.5,-84643.0,0
2024-09-19,2024,7,17,0.0,442836.5,-84643.0,0
2024-09-20,2024,7,17,0.0,442836.5,-84643.0,0
2024-09-22,2024,7,17,0.0,442836.5,-84643.0,0
2024-09-23,2024,7,17,0.0,442836.5,-84643.0,0
2024-09-24,2024,7,17,0.0,442836.5,-84643.0,0
2024-09-25,2024,7,17,0.0,442836.5,-84643.0,0
2024-09-26,2024,7,17,0.0,442836.5,-84643.0,0
2024-09-27,2024,7,17,0.0,442836.5,-84643.0,0
2024-09-29,2024,7,17,0.0,442836.5,-84643.0,0
2024-09-30,2024,7,17,0.0,442836.5,-84643.0,0
2024-10-01,2024,7,17,0.0,442836.5,-84643.0,0
2024-10-02,2024,7,17,0.0,442836.5,-84643.0,0
2024-10-03,2024,7,17,0.0,442836.5,-84643.0,0
2024-10-04,2024,7,17,0.0,442836.5,-84643.0,0
2024-10-06,2024,7,17,0.0,442836.5,-84643.0,0
2024-10-07,2024,7,17,0.0,442836.5,-84643.0,0
2024-10-08,2024,7,17,0.0,442836.5,-84643.0,0
2024-10-09,2024,7,17,0.0,442836.5,-84643.0,0
2024-10-10,2024,7,17,0.0,442836.5,-84643.0,0
2024-10-11,2024,7,17,0.0,442836.5,-84643.0,0
2024-10-13,2024,7,17,-108.0,442728.5,-84751.0,8
2024-10-14,2024,7,17,-4.0,442724.5,-84755.0,0
2024-10-15,2024,7,17,-4476.0,438248.5,-89231.0,8
2024-10-16,2024,7,17,4.0,438252.5,-89227.0,0
2024-10-17,2024,7,17,0.0,438252.5,-89227.0,0
2024-10-18,2024,7,17,0.0,438252.5,-89227.0,0
2024-10-20,2024,7,17,284.0,438536.5,-88943.0,8
2024-10-21,2024,7,17,36.0,438572.5,-88907.0,8
2024-10-22,2024,7,17,220.0,438792.5,-88687.0,8
2024-10-23,2024,7,17,-3832.0,434960.5,-92519.0,8
2024-10-24,2024,7,17,0.0,434960.5,-92519.0,0
2024-10-25,2024,7,17,0.0,434960.5,-92519.0,0
2024-10-27,2024,7,17,1192.0,436152.5,-91327.0,8
2024-10-28,2024,7,17,-1448.0,434704.5,-92775.0,8
2024-10-29,2024,7,17,3840.0,438544.5,-88935.0,8
2024-10-30,2024,7,17,-5144.0,433400.5,-94079.0,8
2024-10-31,2024,7,17,-12.0,433388.5,-94091.0,0
2024-11-01,2024,7,17,0.0,433388.5,-94091.0,0
2024-11-03,2024,7,17,0.0,433388.5,-94091.0,0
2024-11-04,2024,7,17,0.0,433388.5,-94091.0,0
2024-11-05,2024,7,17,0.0,433388.5,-94091.0,0
2024-11-06,2024,7,17,0.0,433388.5,-94091.0,0
2024-11-07,2024,7,17,5372.0,438760.5,-88719.0,8
2024-11-08,2024,7,17,8.0,438768.5,-88711.0,8
2024-11-10,2024,7,17,1232.0,440000.5,-87479.0,8
2024-11-11,2024,7,17,-1408.0,438592.5,-88887.0,8
2024-11-12,2024,7,17,-896.0,437696.5,-89783.0,8
2024-11-13,2024,7,17,96.0,437792.5,-89687.0,8
2024-11-14,2024,7,17,-3464.0,434328.5,-93151.0,8
2024-11-15,2024,7,17,-6556.0,427772.5,-99707.0,16
2024-11-17,2024,7,17,2072.0,429844.5,-97635.0,16
2024-11-18,2024,7,17,1728.0,431572.5,-95907.0,16
2024-11-19,2024,7,17,5144.0,436716.5,-90763.0,16
2024-11-20,2024,7,17,-976.0,435740.5,-91739.0,16
2024-11-21,2024,7,17,672.0,436412.5,-91067.0,16
2024-11-22,2024,7,17,3352.0,439764.5,-87715.0,16
2024-11-24,2024,7,17,1832.0,441596.5,-85883.0,16
2024-11-25,2024,7,17,-3248.0,438348.5,-89131.0,16
2024-11-26,2024,7,17,4848.0,443196.5,-84283.0,16
2024-11-27,2024,7,17,-5200.0,437996.5,-89483.0,16
2024-11-28,2024,7,17,2064.0,440060.5,-87419.0,16
2024-11-29,2024,7,17,3320.0,443380.5,-84099.0,17
2024-12-01,2024,7,17,-918.0,442462.5,-85017.0,17
2024-12-02,2024,7,17,8474.5,450937.0,-76542.5,17
2024-12-03,2024,7,17,4046.0,454983.0,-72496.5,17
2024-12-04,2024,7,17,6035.0,461018.0,-66461.5,17
2024-12-05,2024,7,17,-1853.0,459165.0,-68314.5,17
2024-12-06,2024,7,17,6060.5,465225.5,-62254.0,17
2024-12-08,2024,7,17,807.5,466033.0,-61446.5,17
2024-12-09,2024,7,17,-6536.5,459496.5,-67983.0,17
2024-12-10,2024,7,17,-1258.0,458238.5,-69241.0,17
2024-12-11,2024,7,17,11211.5,469450.0,-58029.5,17
2024-12-12,2024,7,17,-467.5,468982.5,-58497.0,17
2024-12-13,2024,7,17,544.0,469526.5,-57953.0,17
2024-12-15,2024,7,17,977.5,470504.0,-56975.5,17
2024-12-16,2024,7,17,10531.5,481035.5,-46444.0,17
2024-12-17,2024,7,17,5958.5,486994.0,-40485.5,17
2024-12-18,2024,7,17,-27310.5,459683.5,-67796.0,17
2024-12-19,2024,7,17,-3289.5,456394.0,-71085.5,17
2024-12-20,2024,7,17,6077.5,462471.5,-65008.0,17
2024-12-22,2024,7,17,3510.5,465982.0,-61497.5,17
2024-12-23,2024,7,17,2754.0,468736.0,-58743.5,17
2024-12-24,2024,7,17,10506.0,479242.0,-48237.5,17
2024-12-25,2024,7,17,467.5,479709.5,-47770.0,17
2024-12-26,2024,7,17,-1844.5,477865.0,-49614.5,17
2024-12-27,2024,7,17,-9707.0,468158.0,-59321.5,17
2024-12-29,2024,7,17,-603.5,467554.5,-59925.0,17
2024-12-30,2024,7,17,-10582.5,456972.0,-70507.5,17
2024-12-31,2024,7,17,-5312.5,451659.5,-75820.0,17
2025-01-01,2025,9,19,1235.0,452894.5,-74585.0,19
2025-01-02,2025,9,19,-3961.5,448933.0,-78546.5,19
2025-01-03,2025,9,19,12426.0,461359.0,-66120.5,19
2025-01-05,2025,9,19,1330.0,462689.0,-64790.5,19
2025-01-06,2025,9,19,9348.0,472037.0,-55442.5,19
2025-01-07,2025,9,19,-14373.5,457663.5,-69816.0,19
2025-01-08,2025,9,19,-2954.5,454709.0,-72770.5,19
2025-01-09,2025,9,19,-2935.5,451773.5,-75706.0,19
2025-01-10,2025,9,19,-9186.5,442587.0,-84892.5,19
2025-01-12,2025,9,19,152.0,442739.0,-84740.5,19
2025-01-13,2025,9,19,1719.5,444458.5,-83021.0,19
2025-01-14,2025,9,19,-3705.0,440753.5,-86726.0,19
2025-01-15,2025,9,19,17765.0,458518.5,-68961.0,19
2025-01-16,2025,9,19,-6878.0,451640.5,-75839.0,19
2025-01-17,2025,9,19,13518.5,465159.0,-62320.5,19
2025-01-19,2025,9,19,-1710.0,463449.0,-64030.5,19
2025-01-20,2025,9,19,7096.5,470545.5,-56934.0,19
2025-01-21,2025,9,19,2945.0,473490.5,-53989.0,19
2025-01-22,2025,9,19,5928.0,479418.5,-48061.0,19
2025-01-23,2025,9,19,1719.5,481138.0,-46341.5,19
2025-01-24,2025,9,19,-3885.5,477252.5,-50227.0,19
2025-01-26,2025,9,19,-9215.0,468037.5,-59442.0,19
2025-01-27,2025,9,19,-12863.0,455174.5,-72305.0,19
2025-01-28,2025,9,19,8284.0,463458.5,-64021.0,19
2025-01-29,2025,9,19,-266.0,463192.5,-64287.0,19
2025-01-30,2025,9,19,6080.0,469272.5,-58207.0,19
2025-01-31,2025,9,19,-4835.5,464437.0,-63042.5,19
2025-02-02,2025,9,19,-17404.0,447033.0,-80446.5,19
2025-02-03,2025,9,19,17413.5,464446.5,-63033.0,19
2025-02-04,2025,9,19,-161.5,464285.0,-63194.5,19
2025-02-05,2025,9,19,7847.0,472132.0,-55347.5,19
2025-02-06,2025,9,19,3049.5,475181.5,-52298.0,19
2025-02-07,2025,9,19,-10583.0,464598.5,-62881.0,19
2025-02-09,2025,9,19,2698.0,467296.5,-60183.0,19
2025-02-10,2025,9,19,5652.5,472949.0,-54530.5,19
2025-02-11,2025,9,19,598.5,473547.5,-53932.0,19
2025-02-12,2025,9,19,2935.5,476483.0,-50996.5,19
2025-02-13,2025,9,19,7457.5,483940.5,-43539.0,19
2025-02-14,2025,9,19,4503.0,488443.5,-39036.0,19
2025-02-16,2025,9,19,323.0,488766.5,-38713.0,19
2025-02-17,2025,9,19,342.0,489108.5,-38371.0,19
2025-02-18,2025,9,19,1140.0,490248.5,-37231.0,19
2025-02-19,2025,9,19,-1254.0,488994.5,-38485.0,19
2025-02-20,2025,9,19,-2128.0,486866.5,-40613.0,19
2025-02-21,2025,9,19,-19076.0,467790.5,-59689.0,19
2025-02-23,2025,9,19,3743.0,471533.5,-55946.0,19
2025-02-24,2025,9,19,-14164.5,457369.0,-70110.5,19
2025-02-25,2025,9,19,-6070.5,451298.5,-76181.0,19
2025-02-26,2025,9,19,-475.0,450823.5,-76656.0,19
2025-02-27,2025,9,19,-20482.0,430341.5,-97138.0,19
2025-02-28,2025,9,19,8968.0,439309.5,-88170.0,19
2025-03-02,2025,9,19,2232.5,441542.0,-85937.5,19
2025-03-03,2025,9,19,-17261.5,424280.5,-103199.0,19
2025-03-04,2025,9,19,2451.0,426731.5,-100748.0,19
2025-03-05,2025,9,19,1007.0,427738.5,-99741.0,19
2025-03-06,2025,9,19,-15903.0,411835.5,-115644.0,19
2025-03-07,2025,9,19,0.0,411835.5,-115644.0,0
2025-03-09,2025,9,19,0.0,411835.5,-115644.0,0
2025-03-10,2025,9,19,0.0,411835.5,-115644.0,0
2025-03-11,2025,9,19,0.0,411835.5,-115644.0,0
2025-03-12,2025,9,19,0.0,411835.5,-115644.0,0
2025-03-13,2025,9,19,0.0,411835.5,-115644.0,0
2025-03-14,2025,9,19,0.0,411835.5,-115644.0,0
2025-03-16,2025,9,19,0.0,411835.5,-115644.0,0
2025-03-17,2025,9,19,0.0,411835.5,-115644.0,0
2025-03-18,2025,9,19,0.0,411835.5,-115644.0,0
2025-03-19,2025,9,19,0.0,411835.5,-115644.0,0
2025-03-20,2025,9,19,0.0,411835.5,-115644.0,0
2025-03-21,2025,9,19,0.0,411835.5,-115644.0,0
2025-03-23,2025,9,19,0.0,411835.5,-115644.0,0
2025-03-24,2025,9,19,0.0,411835.5,-115644.0,0
2025-03-25,2025,9,19,0.0,411835.5,-115644.0,0
2025-03-26,2025,9,19,-9295.0,402540.5,-124939.0,10
2025-03-27,2025,9,19,10.0,402550.5,-124929.0,0
2025-03-28,2025,9,19,0.0,402550.5,-124929.0,0
2025-03-30,2025,9,19,0.0,402550.5,-124929.0,0
2025-03-31,2025,9,19,0.0,402550.5,-124929.0,0
2025-04-01,2025,9,19,0.0,402550.5,-124929.0,0
2025-04-02,2025,9,19,0.0,402550.5,-124929.0,0
2025-04-03,2025,9,19,0.0,402550.5,-124929.0,0
2025-04-04,2025,9,19,0.0,402550.5,-124929.0,0
2025-04-06,2025,9,19,0.0,402550.5,-124929.0,0
2025-04-07,2025,9,19,0.0,402550.5,-124929.0,0
2025-04-08,2025,9,19,0.0,402550.5,-124929.0,0
2025-04-09,2025,9,19,0.0,402550.5,-124929.0,0
2025-04-10,2025,9,19,0.0,402550.5,-124929.0,0
2025-04-11,2025,9,19,0.0,402550.5,-124929.0,0
2025-04-13,2025,9,19,0.0,402550.5,-124929.0,0
2025-04-14,2025,9,19,0.0,402550.5,-124929.0,0
2025-04-15,2025,9,19,0.0,402550.5,-124929.0,0
2025-04-16,2025,9,19,0.0,402550.5,-124929.0,0
2025-04-17,2025,9,19,0.0,402550.5,-124929.0,0
2025-04-20,2025,9,19,0.0,402550.5,-124929.0,0
2025-04-21,2025,9,19,0.0,402550.5,-124929.0,0
2025-04-22,2025,9,19,0.0,402550.5,-124929.0,0
2025-04-23,2025,9,19,0.0,402550.5,-124929.0,0
2025-04-24,2025,9,19,0.0,402550.5,-124929.0,0
2025-04-25,2025,9,19,0.0,402550.5,-124929.0,0
2025-04-27,2025,9,19,0.0,402550.5,-124929.0,0
2025-04-28,2025,9,19,0.0,402550.5,-124929.0,0
2025-04-29,2025,9,19,0.0,402550.5,-124929.0,0
2025-04-30,2025,9,19,0.0,402550.5,-124929.0,0
2025-05-01,2025,9,19,0.0,402550.5,-124929.0,0
2025-05-02,2025,9,19,0.0,402550.5,-124929.0,0
2025-05-04,2025,9,19,0.0,402550.5,-124929.0,0
2025-05-05,2025,9,19,0.0,402550.5,-124929.0,0
2025-05-06,2025,9,19,0.0,402550.5,-124929.0,0
2025-05-07,2025,9,19,0.0,402550.5,-124929.0,0
2025-05-08,2025,9,19,0.0,402550.5,-124929.0,0
2025-05-09,2025,9,19,0.0,402550.5,-124929.0,0
2025-05-11,2025,9,19,0.0,402550.5,-124929.0,0
2025-05-12,2025,9,19,0.0,402550.5,-124929.0,0
2025-05-13,2025,9,19,0.0,402550.5,-124929.0,0
2025-05-14,2025,9,19,0.0,402550.5,-124929.0,0
2025-05-15,2025,9,19,0.0,402550.5,-124929.0,0
2025-05-16,2025,9,19,0.0,402550.5,-124929.0,0
2025-05-18,2025,9,19,0.0,402550.5,-124929.0,0
2025-05-19,2025,9,19,0.0,402550.5,-124929.0,0
2025-05-20,2025,9,19,0.0,402550.5,-124929.0,0
2025-05-21,2025,9,19,0.0,402550.5,-124929.0,0
2025-05-22,2025,9,19,0.0,402550.5,-124929.0,0
2025-05-23,2025,9,19,0.0,402550.5,-124929.0,0
2025-05-25,2025,9,19,0.0,402550.5,-124929.0,0
2025-05-26,2025,9,19,0.0,402550.5,-124929.0,0
2025-05-27,2025,9,19,0.0,402550.5,-124929.0,0
2025-05-28,2025,9,19,0.0,402550.5,-124929.0,0
2025-05-29,2025,9,19,0.0,402550.5,-124929.0,0
2025-05-30,2025,9,19,0.0,402550.5,-124929.0,0
2025-06-01,2025,9,19,0.0,402550.5,-124929.0,0
2025-06-02,2025,9,19,0.0,402550.5,-124929.0,0
2025-06-03,2025,9,19,0.0,402550.5,-124929.0,0
2025-06-04,2025,9,19,0.0,402550.5,-124929.0,0
2025-06-05,2025,9,19,0.0,402550.5,-124929.0,0
2025-06-06,2025,9,19,0.0,402550.5,-124929.0,0
2025-06-08,2025,9,19,-750.0,401800.5,-125679.0,10
2025-06-09,2025,9,19,15.0,401815.5,-125664.0,0
2025-06-10,2025,9,19,2435.0,404250.5,-123229.0,10
2025-06-11,2025,9,19,-2325.0,401925.5,-125554.0,10
2025-06-12,2025,9,19,-1090.0,400835.5,-126644.0,10
2025-06-13,2025,9,19,20.0,400855.5,-126624.0,0
2025-06-15,2025,9,19,0.0,400855.5,-126624.0,0
2025-06-16,2025,9,19,0.0,400855.5,-126624.0,0
2025-06-17,2025,9,19,-2220.0,398635.5,-128844.0,10
2025-06-18,2025,9,19,865.0,399500.5,-127979.0,10
2025-06-19,2025,9,19,-1235.0,398265.5,-129214.0,10
2025-06-20,2025,9,19,-260.0,398005.5,-129474.0,10
2025-06-22,2025,9,19,-2265.0,395740.5,-131739.0,10
2025-06-23,2025,9,19,0.0,395740.5,-131739.0,0
2025-06-24,2025,9,19,3745.0,399485.5,-127994.0,10
2025-06-25,2025,9,19,815.0,400300.5,-127179.0,10
2025-06-26,2025,9,19,4255.0,404555.5,-122924.0,10
2025-06-27,2025,9,19,1250.0,405805.5,-121674.0,10
2025-06-29,2025,9,19,1540.0,407345.5,-120134.0,10
2025-06-30,2025,9,19,1285.0,408630.5,-118849.0,10
2025-07-01,2025,9,19,-3465.0,405165.5,-122314.0,10
2025-07-02,2025,9,19,2805.0,407970.5,-119509.0,10
2025-07-03,2025,9,19,3725.0,411695.5,-115784.0,10
2025-07-04,2025,9,19,-2605.0,409090.5,-118389.0,19
2025-07-06,2025,9,19,3011.5,412102.0,-115377.5,19
2025-07-07,2025,9,19,-4170.5,407931.5,-119548.0,19
2025-07-08,2025,9,19,1035.5,408967.0,-118512.5,19
2025-07-09,2025,9,19,5082.5,414049.5,-113430.0,19
2025-07-10,2025,9,19,361.0,414410.5,-113069.0,19
2025-07-11,2025,9,19,-4075.5,410335.0,-117144.5,19
2025-07-13,2025,9,19,-2688.5,407646.5,-119833.0,19
2025-07-14,2025,9,19,5510.0,413156.5,-114323.0,19
2025-07-15,2025,9,19,104.5,413261.0,-114218.5,19
2025-07-16,2025,9,19,997.5,414258.5,-113221.0,19
2025-07-17,2025,9,19,9110.5,423369.0,-104110.5,19
2025-07-18,2025,9,19,-1957.0,421412.0,-106067.5,19
2025-07-20,2025,9,19,1187.5,422599.5,-104880.0,19
2025-07-21,2025,9,19,3287.0,425886.5,-101593.0,19
2025-07-22,2025,9,19,-3220.5,422666.0,-104813.5,19
2025-07-23,2025,9,19,5291.5,427957.5,-99522.0,19
2025-07-24,2025,9,19,199.5,428157.0,-99322.5,19
2025-07-25,2025,9,19,1558.0,429715.0,-97764.5,19
2025-07-27,2025,9,19,3306.0,433021.0,-94458.5,19
2025-07-28,2025,9,19,-218.5,432802.5,-94677.0,19
2025-07-29,2025,9,19,-2042.5,430760.0,-96719.5,19
2025-07-30,2025,9,19,9509.5,440269.5,-87210.0,19
2025-07-31,2025,9,19,-16245.0,424024.5,-103455.0,19
2025-08-01,2025,9,19,-16283.0,407741.5,-119738.0,19
2025-08-03,2025,9,19,2204.0,409945.5,-117534.0,19
2025-08-04,2025,9,19,15466.0,425411.5,-102068.0,19
2025-08-05,2025,9,19,-10687.5,414724.0,-112755.5,19
2025-08-06,2025,9,19,15152.5,429876.5,-97603.0,19
2025-08-07,2025,9,19,3363.0,433239.5,-94240.0,19
2025-08-08,2025,9,19,8635.5,441875.0,-85604.5,19
2025-08-10,2025,9,19,-2261.0,439614.0,-87865.5,19
2025-08-11,2025,9,19,-2698.0,436916.0,-90563.5,19
2025-08-12,2025,9,19,12302.5,449218.5,-78261.0,19
2025-08-13,2025,9,19,-427.5,448791.0,-78688.5,19
2025-08-14,2025,9,19,-2299.0,446492.0,-80987.5,19
2025-08-15,2025,9,19,-3505.5,442986.5,-84493.0,19
2025-08-17,2025,9,19,2071.0,445057.5,-82422.0,19
2025-08-18,2025,9,19,-1757.5,443300.0,-84179.5,19
2025-08-19,2025,9,19,-14544.5,428755.5,-98724.0,19
2025-08-20,2025,9,19,-3895.0,424860.5,-102619.0,19
2025-08-21,2025,9,19,-2717.0,422143.5,-105336.0,19
2025-08-22,2025,9,19,12720.5,434864.0,-92615.5,19
2025-08-24,2025,9,19,-313.5,434550.5,-92929.0,19
2025-08-25,2025,9,19,-2964.0,431586.5,-95893.0,19
2025-08-26,2025,9,19,4465.0,436051.5,-91428.0,19
2025-08-27,2025,9,19,-4018.5,432033.0,-95446.5,19
2025-08-28,2025,9,19,9120.0,441153.0,-86326.5,19
2025-08-29,2025,9,19,-11162.5,429990.5,-97489.0,19
2025-08-31,2025,9,19,3173.0,433163.5,-94316.0,19
2025-09-01,2025,9,19,-3515.0,429648.5,-97831.0,19
2025-09-02,2025,9,19,-4218.0,425430.5,-102049.0,19
2025-09-03,2025,9,19,3933.0,429363.5,-98116.0,19
2025-09-04,2025,9,19,10193.5,439557.0,-87922.5,19
2025-09-05,2025,9,19,-1263.5,438293.5,-89186.0,19
2025-09-07,2025,9,19,3980.5,442274.0,-85205.5,19
2025-09-08,2025,9,19,1121.0,443395.0,-84084.5,19
2025-09-09,2025,9,19,2983.0,446378.0,-81101.5,19
2025-09-10,2025,9,19,570.0,446948.0,-80531.5,19
2025-09-11,2025,9,19,4503.0,451451.0,-76028.5,19
2025-09-12,2025,9,19,3619.5,455070.5,-72409.0,19
2025-09-14,2025,9,19,-133.0,454937.5,-72542.0,19
2025-09-15,2025,9,19,7372.0,462309.5,-65170.0,19
2025-09-16,2025,9,19,9044.0,471353.5,-56126.0,19
2025-09-17,2025,9,19,1558.0,472911.5,-54568.0,19
2025-09-18,2025,9,19,5928.0,478839.5,-48640.0,19
2025-09-19,2025,9,19,4607.5,483447.0,-44032.5,19
2025-09-21,2025,9,19,-380.0,483067.0,-44412.5,19
2025-09-22,2025,9,19,5557.5,488624.5,-38855.0,19
2025-09-23,2025,9,19,-5956.5,482668.0,-44811.5,19
2025-09-24,2025,9,19,-3230.0,479438.0,-48041.5,19
2025-09-25,2025,9,19,-5282.0,474156.0,-53323.5,19
2025-09-26,2025,9,19,4208.5,478364.5,-49115.0,19
2025-09-28,2025,9,19,1700.5,480065.0,-47414.5,19
2025-09-29,2025,9,19,1966.5,482031.5,-45448.0,19
2025-09-30,2025,9,19,237.5,482269.0,-45210.5,19
2025-10-01,2025,9,19,7305.5,489574.5,-37905.0,19
2025-10-02,2025,9,19,3866.5,493441.0,-34038.5,19
2025-10-03,2025,9,19,-5424.5,488016.5,-39463.0,19
2025-10-05,2025,9,19,3239.5,491256.0,-36223.5,19
2025-10-06,2025,9,19,2859.5,494115.5,-33364.0,19
2025-10-07,2025,9,19,-4123.0,489992.5,-37487.0,19
2025-10-08,2025,9,19,13129.0,503121.5,-24358.0,19
2025-10-09,2025,9,19,-1672.0,501449.5,-26030.0,19
2025-10-10,2025,9,19,-43576.5,457873.0,-69606.5,19
2025-10-12,2025,9,19,22714.5,480587.5,-46892.0,19
2025-10-13,2025,9,19,4788.0,485375.5,-42104.0,19
2025-10-14,2025,9,19,-5282.0,480093.5,-47386.0,19
2025-10-15,2025,9,19,6469.5,486563.0,-40916.5,19
2025-10-16,2025,9,19,-6963.5,479599.5,-47880.0,19
2025-10-17,2025,9,19,10374.0,489973.5,-37506.0,19
2025-10-19,2025,9,19,-788.5,489185.0,-38294.5,19
2025-10-20,2025,9,19,11837.0,501022.0,-26457.5,19
2025-10-21,2025,9,19,-2992.5,498029.5,-29450.0,19
2025-10-22,2025,9,19,-9443.0,488586.5,-38893.0,19
2025-10-23,2025,9,19,11438.0,500024.5,-27455.0,19
2025-10-24,2025,9,19,8084.5,508109.0,-19370.5,19
2025-10-26,2025,9,19,7866.0,515975.0,-11504.5,19
2025-10-27,2025,9,19,10545.0,526520.0,-959.5,19
2025-10-28,2025,9,19,7191.5,533711.5,0.0,19
2025-10-29,2025,9,19,1966.5,535678.0,0.0,19
2025-10-30,2025,9,19,-2479.5,533198.5,-2479.5,19
2025-10-31,2025,9,19,-7096.5,526102.0,-9576.0,19
2025-11-02,2025,9,19,3686.0,529788.0,-5890.0,19
2025-11-03,2025,9,19,-446.5,529341.5,-6336.5,19
2025-11-04,2025,9,19,-21479.5,507862.0,-27816.0,19
2025-11-05,2025,9,19,10231.5,518093.5,-17584.5,19
2025-11-06,2025,9,19,-17337.5,500756.0,-34922.0,19
2025-11-07,2025,9,19,-3401.0,497355.0,-38323.0,19
2025-11-09,2025,9,19,4132.5,501487.5,-34190.5,19
2025-11-10,2025,9,19,15456.5,516944.0,-18734.0,19
2025-11-11,2025,9,19,-3515.0,513429.0,-22249.0,19
2025-11-12,2025,9,19,-4170.5,509258.5,-26419.5,19
2025-11-13,2025,9,19,-16435.0,492823.5,-42854.5,19
2025-11-14,2025,9,19,1501.0,494324.5,-41353.5,19
2025-11-16,2025,9,19,855.0,495179.5,-40498.5,19
2025-11-17,2025,9,19,-9500.0,485679.5,-49998.5,19
2025-11-18,2025,9,19,-12502.0,473177.5,-62500.5,19
2025-11-19,2025,9,19,19693.5,492871.0,-42807.0,19
2025-11-20,2025,9,19,-36945.5,455925.5,-79752.5,19
2025-11-21,2025,9,19,8065.5,463991.0,-71687.0,19
2025-11-23,2025,9,19,4655.0,468646.0,-67032.0,19
2025-11-24,2025,9,19,18544.0,487190.0,-48488.0,19
2025-11-25,2025,9,19,4807.0,491997.0,-43681.0,19
2025-11-26,2025,9,19,9015.5,501012.5,-34665.5,19
2025-11-27,2025,9,19,171.0,501183.5,-34494.5,19
2025-11-28,2025,9,19,5956.5,507140.0,-28538.0,19
2025-11-30,2025,9,19,-693.5,506446.5,-29231.5,19
2025-12-01,2025,9,19,-2565.0,503881.5,-31796.5,19
2025-12-02,2025,9,19,8521.5,512403.0,-23275.0,19
2025-12-03,2025,9,19,921.5,513324.5,-22353.5,19
2025-12-04,2025,9,19,-997.5,512327.0,-23351.0,19
2025-12-05,2025,9,19,4322.5,516649.5,-19028.5,19
2025-12-07,2025,9,19,399.0,517048.5,-18629.5,19
2025-12-08,2025,9,19,-722.0,516326.5,-19351.5,19
2025-12-09,2025,9,19,-2071.0,514255.5,-21422.5,19
2025-12-10,2025,9,19,2175.5,516431.0,-19247.0,19
2025-12-11,2025,9,19,-2194.5,514236.5,-21441.5,19
2025-12-12,2025,9,19,-17803.0,496433.5,-39244.5,19
2025-12-14,2025,9,19,-342.0,496091.5,-39586.5,19
2025-12-15,2025,9,19,-5149.0,490942.5,-44735.5,19
2025-12-16,2025,9,19,9766.0,500708.5,-34969.5,19
2025-12-17,2025,9,19,-14554.0,486154.5,-49523.5,19
2025-12-18,2025,9,19,12321.5,498476.0,-37202.0,19
2025-12-19,2025,9,19,12977.0,511453.0,-24225.0,19
2025-12-21,2025,9,19,2698.0,514151.0,-21527.0,19
2025-12-22,2025,9,19,1672.0,515823.0,-19855.0,19
2025-12-23,2025,9,19,3676.5,519499.5,-16178.5,19
2025-12-24,2025,9,19,1966.5,521466.0,-14212.0,19
2025-12-25,2025,9,19,969.0,522435.0,-13243.0,19
2025-12-26,2025,9,19,-1149.5,521285.5,-14392.5,19
2025-12-28,2025,9,19,494.0,521779.5,-13898.5,19
2025-12-29,2025,9,19,-6194.0,515585.5,-20092.5,19
2025-12-30,2025,9,19,-1909.5,513676.0,-22002.0,19
2025-12-31,2025,9,19,-8445.5,505230.5,-30447.5,19
2026-01-01,2026,11,21,2625.0,507855.5,-27822.5,21
2026-01-02,2026,11,21,-4336.5,503519.0,-32159.0,21
2026-01-04,2026,11,21,2688.0,506207.0,-29471.0,21
2026-01-05,2026,11,21,4546.5,510753.5,-24924.5,21
2026-01-06,2026,11,21,10878.0,521631.5,-14046.5,21
2026-01-07,2026,11,21,-63.0,521568.5,-14109.5,21
2026-01-08,2026,11,21,-6205.5,515363.0,-20315.0,21
2026-01-09,2026,11,21,10741.5,526104.5,-9573.5,21
2026-01-11,2026,11,21,-1575.0,524529.5,-11148.5,21
2026-01-12,2026,11,21,73.5,524603.0,-11075.0,21
2026-01-13,2026,11,21,-199.5,524403.5,-11274.5,21
2026-01-14,2026,11,21,-11991.0,512412.5,-23265.5,21
2026-01-15,2026,11,21,5712.0,518124.5,-17553.5,21
2026-01-16,2026,11,21,-2509.5,515615.0,-20063.0,21
2026-01-18,2026,11,21,-9019.5,506595.5,-29082.5,21
2026-01-19,2026,11,21,-3717.0,502878.5,-32799.5,21
2026-01-20,2026,11,21,-11014.5,491864.0,-43814.0,21
2026-01-21,2026,11,21,18312.0,510176.0,-25502.0,21
2026-01-22,2026,11,21,2730.0,512906.0,-22772.0,21
2026-01-23,2026,11,21,2593.5,515499.5,-20178.5,21
2026-01-25,2026,11,21,-5019.0,510480.5,-25197.5,21
2026-01-26,2026,11,21,13870.5,524351.0,-11327.0,21
2026-01-27,2026,11,21,10437.0,534788.0,-890.0,21
2026-01-28,2026,11,21,1333.5,536121.5,0.0,21
2026-01-29,2026,11,21,-8316.0,527805.5,-8316.0,21
2026-01-30,2026,11,21,-13996.5,513809.0,-22312.5,21
2026-02-01,2026,11,21,-4420.5,509388.5,-26733.0,21
2026-02-02,2026,11,21,17409.0,526797.5,-9324.0,21
2026-02-03,2026,11,21,-21850.5,504947.0,-31174.5,21
2026-02-04,2026,11,21,-15120.0,489827.0,-46294.5,21
2026-02-05,2026,11,21,-30775.5,459051.5,-77070.0,21
2026-02-06,2026,11,21,32455.5,491507.0,-44614.5,21
2026-02-08,2026,11,21,7056.0,498563.0,-37558.5,21
2026-02-09,2026,11,21,2908.5,501471.5,-34650.0,21
2026-02-10,2026,11,21,-3013.5,498458.0,-37663.5,21
2026-02-11,2026,11,21,-1606.5,496851.5,-39270.0,21
2026-02-12,2026,11,21,-17293.5,479558.0,-56563.5,21
2026-02-13,2026,11,21,-2121.0,477437.0,-58684.5,21
2026-02-15,2026,11,21,2667.0,480104.0,-56017.5,21
2026-02-16,2026,11,21,-787.5,479316.5,-56805.0,21
2026-02-17,2026,11,21,-4483.5,474833.0,-61288.5,21
2026-02-18,2026,11,21,10647.0,485480.0,-50641.5,21
2026-02-19,2026,11,21,-3612.0,481868.0,-54253.5,21
2026-02-20,2026,11,21,8410.5,490278.5,-45843.0,21
2026-02-22,2026,11,21,-4431.0,485847.5,-50274.0,21
2026-02-23,2026,11,21,-7759.5,478088.0,-58033.5,21
2026-02-24,2026,11,21,10752.0,488840.0,-47281.5,21
2026-02-25,2026,11,21,11434.5,500274.5,-35847.0,21
2026-02-26,2026,11,21,-13450.5,486824.0,-49297.5,21
2026-02-27,2026,11,21,-1837.5,484986.5,-51135.0,21
2026-03-01,2026,11,21,-8967.0,476019.5,-60102.0,21
2026-03-02,2026,11,21,9775.5,485795.0,-50326.5,21
2026-03-03,2026,11,21,-11308.5,474486.5,-61635.0,21
2026-03-04,2026,11,21,19708.5,494195.0,-41926.5,21
2026-03-05,2026,11,21,-4672.5,489522.5,-46599.0,21
2026-03-06,2026,11,21,-16789.5,472733.0,-63388.5,21
2026-03-08,2026,11,21,-18742.5,453990.5,-82131.0,21
