date,realized_points,open_unrealized_points,total_equity_points,open_units,direction
2019-05-05,0.0,0.0,0.0,0,
2019-05-06,0.0,0.0,0.0,0,
2019-05-07,0.0,0.0,0.0,0,
2019-05-08,0.0,0.0,0.0,0,
2019-05-09,0.0,0.0,0.0,0,
2019-05-10,0.0,0.0,0.0,0,
2019-05-12,0.0,0.0,0.0,0,
2019-05-13,0.0,0.0,0.0,0,
2019-05-14,0.0,0.0,0.0,0,
2019-05-15,0.0,0.0,0.0,0,
2019-05-16,0.0,0.0,0.0,0,
2019-05-17,0.0,0.0,0.0,0,
2019-05-19,0.0,0.0,0.0,0,
2019-05-20,0.0,0.0,0.0,0,
2019-05-21,0.0,0.0,0.0,0,
2019-05-22,0.0,0.0,0.0,0,
2019-05-23,0.0,0.0,0.0,0,
2019-05-24,0.0,0.0,0.0,0,
2019-05-26,0.0,0.0,0.0,0,
2019-05-27,0.0,0.0,0.0,0,
2019-05-28,0.0,0.0,0.0,0,
2019-05-29,0.0,0.0,0.0,0,
2019-05-30,0.0,0.0,0.0,0,
2019-05-31,0.0,0.0,0.0,0,
2019-06-02,0.0,0.0,0.0,0,
2019-06-03,0.0,0.0,0.0,0,
2019-06-04,0.0,0.0,0.0,0,
2019-06-05,0.0,0.0,0.0,0,
2019-06-06,0.0,0.0,0.0,0,
2019-06-07,0.0,0.0,0.0,0,
2019-06-09,0.0,-15.75,-15.75,3,Long
2019-06-10,-15.75,0.0,-15.75,0,
2019-06-11,-15.75,18.75,3.0,3,Long
2019-06-12,-15.75,-54.0,-69.75,3,Long
2019-06-13,-15.75,-36.75,-52.5,3,Long
2019-06-14,-15.75,-71.25,-87.0,3,Long
2019-06-16,-15.75,54.75,39.0,3,Long
2019-06-17,-15.75,165.0,149.25,3,Long
2019-06-18,-15.75,531.75,516.0,3,Long
2019-06-19,-15.75,658.5,642.75,3,Long
2019-06-20,-15.75,768.0,752.25,3,Long
2019-06-21,-15.75,715.5,699.75,4,Long
2019-06-23,-15.75,810.5,794.75,4,Long
2019-06-24,-15.75,765.5,749.75,4,Long
2019-06-25,-15.75,234.5,218.75,4,Long
2019-06-26,-15.75,344.5,328.75,4,Long
2019-06-27,-15.75,512.5,496.75,4,Long
2019-06-28,-15.75,625.5,609.75,4,Long
2019-06-30,-15.75,939.5,923.75,4,Long
2019-07-01,-15.75,839.5,823.75,4,Long
2019-07-02,-15.75,1071.5,1055.75,4,Long
2019-07-03,-15.75,1289.5,1273.75,4,Long
2019-07-04,-15.75,1346.5,1330.75,4,Long
2019-07-05,-15.75,1148.5,1132.75,5,Long
2019-07-07,-15.75,1088.5,1072.75,5,Long
2019-07-08,-15.75,844.75,829.0,5,Long
2019-07-09,-15.75,1109.75,1094.0,5,Long
2019-07-10,-15.75,1511.0,1495.25,5,Long
2019-07-11,-15.75,1483.5,1467.75,5,Long
2019-07-12,-15.75,1664.75,1649.0,5,Long
2019-07-14,-15.75,1634.75,1619.0,5,Long
2019-07-15,-15.75,1847.25,1831.5,5,Long
2019-07-16,-15.75,1582.25,1566.5,5,Long
2019-07-17,-15.75,1239.75,1224.0,5,Long
2019-07-18,-15.75,1603.5,1587.75,5,Long
2019-07-19,-15.75,969.75,954.0,6,Long
2019-07-21,-15.75,1161.75,1146.0,6,Long
2019-07-22,-15.75,1628.25,1612.5,6,Long
2019-07-23,-15.75,1776.75,1761.0,6,Long
2019-07-24,-15.75,2156.25,2140.5,6,Long
2019-07-25,-15.75,2012.25,1996.5,6,Long
2019-07-26,-15.75,2145.75,2130.0,6,Long
2019-07-28,-15.75,2163.75,2148.0,6,Long
2019-07-29,-15.75,2115.75,2100.0,6,Long
2019-07-30,-15.75,1992.75,1977.0,6,Long
2019-07-31,-15.75,1080.75,1065.0,6,Long
2019-08-01,-15.75,770.25,754.5,6,Long
2019-08-02,760.5,0.0,760.5,0,
2019-08-04,760.5,0.0,760.5,0,
2019-08-05,760.5,0.0,760.5,0,
2019-08-06,760.5,0.0,760.5,0,
2019-08-07,760.5,0.0,760.5,0,
2019-08-08,760.5,0.0,760.5,0,
2019-08-09,760.5,0.0,760.5,0,
2019-08-11,760.5,0.0,760.5,0,
2019-08-12,760.5,0.0,760.5,0,
2019-08-13,760.5,0.0,760.5,0,
2019-08-14,760.5,0.0,760.5,0,
2019-08-15,760.5,0.0,760.5,0,
2019-08-16,760.5,0.0,760.5,0,
2019-08-18,760.5,0.0,760.5,0,
2019-08-19,760.5,0.0,760.5,0,
2019-08-20,760.5,0.0,760.5,0,
2019-08-21,760.5,0.0,760.5,0,
2019-08-22,760.5,0.0,760.5,0,
2019-08-23,760.5,0.0,760.5,0,
2019-08-25,760.5,0.0,760.5,0,
2019-08-26,760.5,0.0,760.5,0,
2019-08-27,760.5,0.0,760.5,0,
2019-08-28,760.5,0.0,760.5,0,
2019-08-29,760.5,0.0,760.5,0,
2019-08-30,760.5,0.0,760.5,0,
2019-09-01,760.5,0.0,760.5,0,
2019-09-02,760.5,0.0,760.5,0,
2019-09-03,760.5,0.0,760.5,0,
2019-09-04,760.5,0.0,760.5,0,
2019-09-05,760.5,0.0,760.5,0,
2019-09-06,760.5,-24.0,736.5,3,Long
2019-09-08,714.0,0.0,714.0,0,
2019-09-09,714.0,0.0,714.0,0,
2019-09-10,714.0,0.0,714.0,0,
2019-09-11,714.0,0.0,714.0,0,
2019-09-12,714.0,-56.25,657.75,3,Long
2019-09-13,714.0,-122.25,591.75,3,Long
2019-09-15,714.0,-338.25,375.75,3,Long
2019-09-16,375.75,0.0,375.75,0,
2019-09-17,375.75,78.0,453.75,3,Long
2019-09-18,375.75,62.25,438.0,3,Long
2019-09-19,375.75,125.25,501.0,3,Long
2019-09-20,375.75,-160.5,215.25,3,Long
2019-09-22,221.25,0.0,221.25,0,
2019-09-23,221.25,27.0,248.25,3,Long
2019-09-24,221.25,-370.5,-149.25,3,Long
2019-09-25,-149.25,0.0,-149.25,0,
2019-09-26,-149.25,0.0,-149.25,0,
2019-09-27,-149.25,0.0,-149.25,0,
2019-09-29,-149.25,0.0,-149.25,0,
2019-09-30,-149.25,0.0,-149.25,0,
2019-10-01,-149.25,0.0,-149.25,0,
2019-10-02,-149.25,0.0,-149.25,0,
2019-10-03,-149.25,0.0,-149.25,0,
2019-10-04,-149.25,0.0,-149.25,0,
2019-10-06,-149.25,0.0,-149.25,0,
2019-10-07,-149.25,0.0,-149.25,0,
2019-10-08,-149.25,0.0,-149.25,0,
2019-10-09,-149.25,0.0,-149.25,0,
2019-10-10,-149.25,0.0,-149.25,0,
2019-10-11,-149.25,0.0,-149.25,0,
2019-10-13,-149.25,0.0,-149.25,0,
2019-10-14,-149.25,0.0,-149.25,0,
2019-10-15,-149.25,0.0,-149.25,0,
2019-10-16,-149.25,0.0,-149.25,0,
2019-10-17,-149.25,0.0,-149.25,0,
2019-10-18,-149.25,0.0,-149.25,0,
2019-10-20,-149.25,0.0,-149.25,0,
2019-10-21,-149.25,0.0,-149.25,0,
2019-10-22,-149.25,0.0,-149.25,0,
2019-10-23,-149.25,0.0,-149.25,0,
2019-10-24,-149.25,0.0,-149.25,0,
2019-10-25,-149.25,0.0,-149.25,0,
2019-10-27,-149.25,27.0,-122.25,3,Long
2019-10-28,-149.25,194.25,45.0,3,Long
2019-10-29,-149.25,33.0,-116.25,3,Long
2019-10-30,-149.25,225.75,76.5,3,Long
2019-10-31,-149.25,124.5,-24.75,3,Long
2019-11-01,-149.25,345.0,195.75,3,Long
2019-11-03,-149.25,386.25,237.0,3,Long
2019-11-04,-149.25,575.25,426.0,3,Long
2019-11-05,-149.25,495.75,346.5,3,Long
2019-11-06,-149.25,465.75,316.5,3,Long
2019-11-07,-149.25,567.75,418.5,3,Long
2019-11-08,-149.25,636.0,486.75,4,Long
2019-11-10,-149.25,605.0,455.75,4,Long
2019-11-11,-149.25,572.0,422.75,4,Long
2019-11-12,-149.25,654.0,504.75,4,Long
2019-11-13,-149.25,653.0,503.75,4,Long
2019-11-14,-149.25,682.0,532.75,4,Long
2019-11-15,-149.25,891.0,741.75,4,Long
2019-11-17,-149.25,837.0,687.75,4,Long
2019-11-18,-149.25,907.0,757.75,4,Long
2019-11-19,-149.25,867.0,717.75,4,Long
2019-11-20,-149.25,677.0,527.75,4,Long
2019-11-21,-149.25,676.0,526.75,4,Long
2019-11-22,-149.25,724.0,574.75,5,Long
2019-11-24,-149.25,847.75,698.5,5,Long
2019-11-25,-149.25,1191.5,1042.25,5,Long
2019-11-26,-149.25,1321.5,1172.25,5,Long
2019-11-27,-149.25,1441.5,1292.25,5,Long
2019-11-28,-149.25,1560.25,1411.0,5,Long
2019-11-29,-149.25,1420.25,1271.0,5,Long
2019-12-01,-149.25,1469.0,1319.75,5,Long
2019-12-02,-149.25,835.25,686.0,5,Long
2019-12-03,-149.25,622.75,473.5,5,Long
2019-12-04,-149.25,767.75,618.5,5,Long
2019-12-05,-149.25,887.75,738.5,5,Long
2019-12-06,-149.25,1330.25,1181.0,6,Long
2019-12-08,-149.25,1337.75,1188.5,6,Long
2019-12-09,-149.25,1060.25,911.0,6,Long
2019-12-10,-149.25,1076.75,927.5,6,Long
2019-12-11,-149.25,1399.25,1250.0,6,Long
2019-12-12,-149.25,1922.75,1773.5,6,Long
2019-12-13,-149.25,2044.25,1895.0,6,Long
2019-12-15,-149.25,2123.75,1974.5,6,Long
2019-12-16,-149.25,2503.25,2354.0,6,Long
2019-12-17,-149.25,2530.25,2381.0,6,Long
2019-12-18,-149.25,2642.75,2493.5,6,Long
2019-12-19,-149.25,2990.75,2841.5,6,Long
2019-12-20,-149.25,3172.25,3023.0,7,Long
2019-12-22,-149.25,3256.25,3107.0,7,Long
2019-12-23,-149.25,3305.25,3156.0,7,Long
2019-12-24,-149.25,3310.5,3161.25,7,Long
2019-12-25,-149.25,3312.25,3163.0,7,Long
2019-12-26,-149.25,3856.5,3707.25,7,Long
2019-12-27,-149.25,3651.75,3502.5,7,Long
2019-12-29,-149.25,3784.75,3635.5,7,Long
2019-12-30,-149.25,3345.5,3196.25,7,Long
2019-12-31,-149.25,3601.0,3451.75,7,Long
2020-01-01,-149.25,3632.5,3483.25,7,Long
2020-01-02,-149.25,4491.75,4342.5,7,Long
2020-01-03,-149.25,3872.25,3723.0,8,Long
2020-01-05,-149.25,3614.25,3465.0,8,Long
2020-01-06,-149.25,4182.25,4033.0,8,Long
2020-01-07,-149.25,3406.25,3257.0,8,Long
2020-01-08,-149.25,5006.25,4857.0,8,Long
2020-01-09,-149.25,5514.25,5365.0,8,Long
2020-01-10,-149.25,5216.25,5067.0,8,Long
2020-01-12,-149.25,5290.25,5141.0,8,Long
2020-01-13,-149.25,6230.25,6081.0,8,Long
2020-01-14,-149.25,5638.25,5489.0,8,Long
2020-01-15,-149.25,5984.25,5835.0,8,Long
2020-01-16,-149.25,6556.25,6407.0,8,Long
2020-01-17,-149.25,6760.25,6611.0,9,Long
2020-01-19,-149.25,6881.75,6732.5,9,Long
2020-01-20,-149.25,6749.0,6599.75,9,Long
2020-01-21,-149.25,6823.25,6674.0,9,Long
2020-01-22,-149.25,6861.5,6712.25,9,Long
2020-01-23,-149.25,7649.0,7499.75,9,Long
2020-01-24,-149.25,6454.25,6305.0,9,Long
2020-01-26,-149.25,5349.5,5200.25,9,Long
2020-01-27,-149.25,5027.75,4878.5,9,Long
2020-01-28,-149.25,6119.0,5969.75,9,Long
2020-01-29,-149.25,6314.75,6165.5,9,Long
2020-01-30,-149.25,7181.0,7031.75,9,Long
2020-01-31,-149.25,5331.5,5182.25,10,Long
2020-02-02,-149.25,5409.0,5259.75,10,Long
2020-02-03,-149.25,6104.0,5954.75,10,Long
2020-02-04,-149.25,8586.5,8437.25,10,Long
2020-02-05,-149.25,9016.5,8867.25,10,Long
2020-02-06,-149.25,9874.0,9724.75,10,Long
2020-02-07,-149.25,9206.5,9057.25,10,Long
2020-02-09,-149.25,8769.0,8619.75,10,Long
2020-02-10,-149.25,10459.0,10309.75,10,Long
2020-02-11,-149.25,10619.0,10469.75,10,Long
2020-02-12,-149.25,10971.5,10822.25,10,Long
2020-02-13,-149.25,11304.0,11154.75,10,Long
2020-02-14,-149.25,11514.0,11364.75,10,Long
2020-02-16,-149.25,11846.5,11697.25,10,Long
2020-02-17,-149.25,11234.0,11084.75,10,Long
2020-02-18,-149.25,11849.0,11699.75,10,Long
2020-02-19,-149.25,12656.5,12507.25,10,Long
2020-02-20,-149.25,10934.0,10784.75,10,Long
2020-02-21,-149.25,9769.0,9619.75,10,Long
2020-02-23,8714.75,0.0,8714.75,0,
2020-02-24,8714.75,0.0,8714.75,0,
2020-02-25,8714.75,0.0,8714.75,0,
2020-02-26,8714.75,0.0,8714.75,0,
2020-02-27,8714.75,0.0,8714.75,0,
2020-02-28,8714.75,0.0,8714.75,0,
2020-03-01,8714.75,0.0,8714.75,0,
2020-03-02,8714.75,0.0,8714.75,0,
2020-03-03,8714.75,0.0,8714.75,0,
2020-03-04,8714.75,0.0,8714.75,0,
2020-03-05,8714.75,0.0,8714.75,0,
2020-03-06,8714.75,0.0,8714.75,0,
2020-03-08,8714.75,0.0,8714.75,0,
2020-03-09,8714.75,0.0,8714.75,0,
2020-03-10,8714.75,0.0,8714.75,0,
2020-03-11,8714.75,0.0,8714.75,0,
2020-03-12,8714.75,0.0,8714.75,0,
2020-03-13,8714.75,0.0,8714.75,0,
2020-03-15,8714.75,0.0,8714.75,0,
2020-03-16,8714.75,0.0,8714.75,0,
2020-03-17,8714.75,0.0,8714.75,0,
2020-03-18,8714.75,0.0,8714.75,0,
2020-03-19,8714.75,0.0,8714.75,0,
2020-03-20,8714.75,0.0,8714.75,0,
2020-03-22,8714.75,0.0,8714.75,0,
2020-03-23,8714.75,0.0,8714.75,0,
2020-03-24,8714.75,0.0,8714.75,0,
2020-03-25,8714.75,0.0,8714.75,0,
2020-03-26,8714.75,0.0,8714.75,0,
2020-03-27,8714.75,0.0,8714.75,0,
2020-03-29,8714.75,0.0,8714.75,0,
2020-03-30,8714.75,0.0,8714.75,0,
2020-03-31,8714.75,0.0,8714.75,0,
2020-04-01,8714.75,0.0,8714.75,0,
2020-04-02,8714.75,0.0,8714.75,0,
2020-04-03,8714.75,0.0,8714.75,0,
2020-04-05,8714.75,0.0,8714.75,0,
2020-04-06,8714.75,0.0,8714.75,0,
2020-04-07,8714.75,0.0,8714.75,0,
2020-04-08,8714.75,0.0,8714.75,0,
2020-04-09,8714.75,39.75,8754.5,3,Long
2020-04-12,8714.75,-324.75,8390.0,3,Long
2020-04-13,8390.0,0.0,8390.0,0,
2020-04-14,8390.0,921.75,9311.75,3,Long
2020-04-15,8390.0,499.5,8889.5,3,Long
2020-04-16,8390.0,1701.0,10091.0,3,Long
2020-04-17,8390.0,1325.25,9715.25,3,Long
2020-04-19,8390.0,1142.25,9532.25,3,Long
2020-04-20,8390.0,1092.0,9482.0,3,Long
2020-04-21,8390.0,275.25,8665.25,3,Long
2020-04-22,8390.0,750.75,9140.75,3,Long
2020-04-23,8390.0,558.0,8948.0,3,Long
2020-04-24,8390.0,1203.0,9593.0,4,Long
2020-04-26,8390.0,1148.0,9538.0,4,Long
2020-04-27,8390.0,1428.0,9818.0,4,Long
2020-04-28,8390.0,1205.0,9595.0,4,Long
2020-04-29,8390.0,2498.0,10888.0,4,Long
2020-04-30,8390.0,1487.0,9877.0,4,Long
2020-05-01,8390.0,942.0,9332.0,4,Long
2020-05-03,8390.0,466.0,8856.0,4,Long
2020-05-04,8390.0,1429.0,9819.0,4,Long
2020-05-05,8390.0,1959.0,10349.0,4,Long
2020-05-06,8390.0,1993.0,10383.0,4,Long
2020-05-07,8390.0,2699.0,11089.0,4,Long
2020-05-08,8390.0,3019.0,11409.0,5,Long
2020-05-10,8390.0,3180.25,11570.25,5,Long
2020-05-11,8390.0,3299.0,11689.0,5,Long
2020-05-12,8390.0,1984.0,10374.0,5,Long
2020-05-13,8390.0,1970.25,10360.25,5,Long
2020-05-14,8390.0,2451.5,10841.5,5,Long
2020-05-15,8390.0,2511.5,10901.5,5,Long
2020-05-17,8390.0,2736.5,11126.5,5,Long
2020-05-18,8390.0,3634.0,12024.0,5,Long
2020-05-19,8390.0,3504.0,11894.0,5,Long
2020-05-20,8390.0,4341.5,12731.5,5,Long
2020-05-21,8390.0,3926.5,12316.5,5,Long
2020-05-22,8390.0,4026.5,12416.5,6,Long
2020-05-24,8390.0,4226.0,12616.0,6,Long
2020-05-25,8390.0,4551.5,12941.5,6,Long
2020-05-26,8390.0,3857.0,12247.0,6,Long
2020-05-27,8390.0,4143.5,12533.5,6,Long
2020-05-28,8390.0,3999.5,12389.5,6,Long
2020-05-29,8390.0,5024.0,13414.0,6,Long
2020-05-31,8390.0,4533.5,12923.5,6,Long
2020-06-01,8390.0,4884.5,13274.5,6,Long
2020-06-02,8390.0,5540.0,13930.0,6,Long
2020-06-03,8390.0,5670.5,14060.5,6,Long
2020-06-04,8390.0,5202.5,13592.5,6,Long
2020-06-05,8390.0,6335.0,14725.0,7,Long
2020-06-07,8390.0,6777.75,15167.75,7,Long
2020-06-08,8390.0,6842.5,15232.5,7,Long
2020-06-09,8390.0,7607.25,15997.25,7,Long
2020-06-10,8390.0,7987.0,16377.0,7,Long
2020-06-11,8390.0,5433.75,13823.75,7,Long
2020-06-12,8390.0,5178.25,13568.25,7,Long
2020-06-14,8390.0,4450.25,12840.25,7,Long
2020-06-15,8390.0,6739.25,15129.25,7,Long
2020-06-16,8390.0,7570.5,15960.5,7,Long
2020-06-17,8390.0,7329.0,15719.0,7,Long
2020-06-18,8390.0,7827.75,16217.75,7,Long
2020-06-19,8390.0,7154.0,15544.0,8,Long
2020-06-21,8390.0,6998.0,15388.0,8,Long
2020-06-22,8390.0,8956.0,17346.0,8,Long
2020-06-23,8390.0,9204.0,17594.0,8,Long
2020-06-24,8390.0,7546.0,15936.0,8,Long
2020-06-25,8390.0,8608.0,16998.0,8,Long
2020-06-26,8390.0,6510.0,14900.0,8,Long
2020-06-28,8390.0,6374.0,14764.0,8,Long
2020-06-29,8390.0,7700.0,16090.0,8,Long
2020-06-30,8390.0,8036.0,16426.0,8,Long
2020-07-01,8390.0,9914.0,18304.0,8,Long
2020-07-02,8390.0,10558.0,18948.0,8,Long
2020-07-03,8390.0,10360.0,18750.0,9,Long
2020-07-05,8390.0,10969.75,19359.75,9,Long
2020-07-06,8390.0,13192.75,21582.75,9,Long
2020-07-07,8390.0,12385.0,20775.0,9,Long
2020-07-08,8390.0,13575.25,21965.25,9,Long
2020-07-09,8390.0,14221.0,22611.0,9,Long
2020-07-10,8390.0,15017.5,23407.5,9,Long
2020-07-12,8390.0,15323.5,23713.5,9,Long
2020-07-13,8390.0,13242.25,21632.25,9,Long
2020-07-14,8390.0,13890.25,22280.25,9,Long
2020-07-15,8390.0,13258.0,21648.0,9,Long
2020-07-16,8390.0,12533.5,20923.5,9,Long
2020-07-17,8390.0,13044.25,21434.25,10,Long
2020-07-19,8390.0,13284.25,21674.25,10,Long
2020-07-20,8390.0,16306.75,24696.75,10,Long
2020-07-21,8390.0,15541.75,23931.75,10,Long
2020-07-22,8390.0,15039.25,23429.25,10,Long
2020-07-23,8390.0,12636.75,21026.75,10,Long
2020-07-24,8390.0,11439.25,19829.25,10,Long
2020-07-26,8390.0,11199.25,19589.25,10,Long
2020-07-27,8390.0,13794.25,22184.25,10,Long
2020-07-28,8390.0,12449.25,20839.25,10,Long
2020-07-29,8390.0,13604.25,21994.25,10,Long
2020-07-30,8390.0,15864.25,24254.25,10,Long
2020-07-31,8390.0,15964.25,24354.25,10,Long
2020-08-02,8390.0,15926.75,24316.75,10,Long
2020-08-03,8390.0,17174.25,25564.25,10,Long
2020-08-04,8390.0,17546.75,25936.75,10,Long
2020-08-05,8390.0,17701.75,26091.75,10,Long
2020-08-06,8390.0,19334.25,27724.25,10,Long
2020-08-07,8390.0,18119.25,26509.25,10,Long
2020-08-09,8390.0,17881.75,26271.75,10,Long
2020-08-10,8390.0,17549.25,25939.25,10,Long
2020-08-11,8390.0,16036.75,24426.75,10,Long
2020-08-12,8390.0,18126.75,26516.75,10,Long
2020-08-13,8390.0,18861.75,27251.75,10,Long
2020-08-14,8390.0,18266.75,26656.75,10,Long
2020-08-16,8390.0,18424.25,26814.25,10,Long
2020-08-17,8390.0,19859.25,28249.25,10,Long
2020-08-18,8390.0,20974.25,29364.25,10,Long
2020-08-19,8390.0,19714.25,28104.25,10,Long
2020-08-20,8390.0,21804.25,30194.25,10,Long
2020-08-21,8390.0,22439.25,30829.25,10,Long
2020-08-23,8390.0,22644.25,31034.25,10,Long
2020-08-24,8390.0,23276.75,31666.75,10,Long
2020-08-25,8390.0,24276.75,32666.75,10,Long
2020-08-26,8390.0,26486.75,34876.75,10,Long
2020-08-27,8390.0,26501.75,34891.75,10,Long
2020-08-28,8390.0,26846.75,35236.75,10,Long
2020-08-30,8390.0,27286.75,35676.75,10,Long
2020-08-31,8390.0,28061.75,36451.75,10,Long
2020-09-01,8390.0,30414.25,38804.25,10,Long
2020-09-02,8390.0,31026.75,39416.75,10,Long
2020-09-03,39414.25,0.0,39414.25,0,
2020-09-04,39414.25,0.0,39414.25,0,
2020-09-06,39414.25,0.0,39414.25,0,
2020-09-07,39414.25,0.0,39414.25,0,
2020-09-08,39414.25,0.0,39414.25,0,
2020-09-09,39414.25,0.0,39414.25,0,
2020-09-10,39414.25,0.0,39414.25,0,
2020-09-11,39414.25,0.0,39414.25,0,
2020-09-13,39414.25,0.0,39414.25,0,
2020-09-14,39414.25,0.0,39414.25,0,
2020-09-15,39414.25,0.0,39414.25,0,
2020-09-16,39414.25,0.0,39414.25,0,
2020-09-17,39414.25,0.0,39414.25,0,
2020-09-18,39414.25,0.0,39414.25,0,
2020-09-20,39414.25,0.0,39414.25,0,
2020-09-21,39414.25,0.0,39414.25,0,
2020-09-22,39414.25,0.0,39414.25,0,
2020-09-23,39414.25,0.0,39414.25,0,
2020-09-24,39414.25,0.0,39414.25,0,
2020-09-25,39414.25,0.0,39414.25,0,
2020-09-27,39414.25,0.0,39414.25,0,
2020-09-28,39414.25,0.0,39414.25,0,
2020-09-29,39414.25,0.0,39414.25,0,
2020-09-30,39414.25,0.0,39414.25,0,
2020-10-01,39414.25,0.0,39414.25,0,
2020-10-02,39414.25,0.0,39414.25,0,
2020-10-04,39414.25,0.0,39414.25,0,
2020-10-05,39414.25,0.0,39414.25,0,
2020-10-06,39414.25,0.0,39414.25,0,
2020-10-07,39414.25,0.0,39414.25,0,
2020-10-08,39414.25,0.0,39414.25,0,
2020-10-09,39414.25,0.0,39414.25,0,
2020-10-11,39414.25,0.0,39414.25,0,
2020-10-12,39414.25,1097.25,40511.5,3,Long
2020-10-13,39414.25,1113.75,40528.0,3,Long
2020-10-14,39414.25,652.5,40066.75,3,Long
2020-10-15,39414.25,516.0,39930.25,3,Long
2020-10-16,39414.25,149.25,39563.5,3,Long
2020-10-18,39414.25,388.5,39802.75,3,Long
2020-10-19,39414.25,-85.5,39328.75,3,Long
2020-10-20,39329.5,0.0,39329.5,0,
2020-10-21,39329.5,0.0,39329.5,0,
2020-10-22,39329.5,0.0,39329.5,0,
2020-10-23,39329.5,0.0,39329.5,0,
2020-10-25,39329.5,0.0,39329.5,0,
2020-10-26,39329.5,0.0,39329.5,0,
2020-10-27,39329.5,0.0,39329.5,0,
2020-10-28,39329.5,0.0,39329.5,0,
2020-10-29,39329.5,0.0,39329.5,0,
2020-10-30,39329.5,0.0,39329.5,0,
2020-11-01,39329.5,0.0,39329.5,0,
2020-11-02,39329.5,0.0,39329.5,0,
2020-11-03,39329.5,0.0,39329.5,0,
2020-11-04,39329.5,0.0,39329.5,0,
2020-11-05,39329.5,816.75,40146.25,3,Long
2020-11-06,39329.5,900.75,40230.25,3,Long
2020-11-08,39329.5,1314.0,40643.5,3,Long
2020-11-09,39329.5,179.25,39508.75,3,Long
2020-11-10,39329.5,-591.0,38738.5,3,Long
2020-11-11,38737.0,0.0,38737.0,0,
2020-11-12,38737.0,-132.75,38604.25,3,Long
2020-11-13,38737.0,151.5,38888.5,3,Long
2020-11-15,38737.0,449.25,39186.25,3,Long
2020-11-16,38737.0,459.0,39196.0,3,Long
2020-11-17,38737.0,250.5,38987.5,3,Long
2020-11-18,38737.0,-45.75,38691.25,3,Long
2020-11-19,38737.0,125.25,38862.25,3,Long
2020-11-20,38737.0,46.5,38783.5,4,Long
2020-11-22,38737.0,127.5,38864.5,4,Long
2020-11-23,38737.0,209.5,38946.5,4,Long
2020-11-24,38737.0,906.5,39643.5,4,Long
2020-11-25,38737.0,1120.5,39857.5,4,Long
2020-11-26,38737.0,1020.5,39757.5,4,Long
2020-11-27,38737.0,1496.5,40233.5,4,Long
2020-11-29,38737.0,1669.5,40406.5,4,Long
2020-11-30,38737.0,1797.5,40534.5,4,Long
2020-12-01,38737.0,2205.5,40942.5,4,Long
2020-12-02,38737.0,2266.5,41003.5,4,Long
2020-12-03,38737.0,2342.5,41079.5,4,Long
2020-12-04,38737.0,2442.5,41179.5,5,Long
2020-12-06,38737.0,2615.0,41352.0,5,Long
2020-12-07,38737.0,2767.5,41504.5,5,Long
2020-12-08,38737.0,3127.5,41864.5,5,Long
2020-12-09,38737.0,1707.5,40444.5,5,Long
2020-12-10,38737.0,1907.5,40644.5,5,Long
2020-12-11,38737.0,1723.75,40460.75,5,Long
2020-12-13,38737.0,1973.75,40710.75,5,Long
2020-12-14,38737.0,2288.75,41025.75,5,Long
2020-12-15,38737.0,2866.25,41603.25,5,Long
2020-12-16,38737.0,3305.0,42042.0,5,Long
2020-12-17,38737.0,3641.25,42378.25,5,Long
2020-12-18,38737.0,3632.5,42369.5,6,Long
2020-12-20,38737.0,3637.0,42374.0,6,Long
2020-12-21,38737.0,3350.5,42087.5,6,Long
2020-12-22,38737.0,3464.5,42201.5,6,Long
2020-12-23,38737.0,3071.5,41808.5,6,Long
2020-12-24,38737.0,3367.0,42104.0,6,Long
2020-12-27,38737.0,3548.5,42285.5,6,Long
2020-12-28,38737.0,4253.5,42990.5,6,Long
2020-12-29,38737.0,4210.0,42947.0,6,Long
2020-12-30,38737.0,4234.0,42971.0,6,Long
2020-12-31,38737.0,4448.5,43185.5,6,Long
2021-01-03,38737.0,4325.5,43062.5,6,Long
2021-01-04,38737.0,3191.5,41928.5,6,Long
2021-01-05,38737.0,3911.5,42648.5,6,Long
2021-01-06,38737.0,3179.5,41916.5,6,Long
2021-01-07,38737.0,4772.5,43509.5,6,Long
2021-01-08,38737.0,5890.0,44627.0,6,Long
2021-01-10,38737.0,5638.0,44375.0,6,Long
2021-01-11,38737.0,4675.0,43412.0,6,Long
2021-01-12,38737.0,4523.5,43260.5,6,Long
2021-01-13,38737.0,4963.0,43700.0,6,Long
2021-01-14,38737.0,4645.0,43382.0,6,Long
2021-01-15,38737.0,3725.5,42462.5,7,Long
2021-01-17,38737.0,3601.25,42338.25,7,Long
2021-01-18,38737.0,4199.75,42936.75,7,Long
2021-01-19,38737.0,5727.5,44464.5,7,Long
2021-01-20,38737.0,7580.75,46317.75,7,Long
2021-01-21,38737.0,8065.5,46802.5,7,Long
2021-01-22,38737.0,7841.5,46578.5,7,Long
2021-01-24,38737.0,8165.25,46902.25,7,Long
2021-01-25,38737.0,8613.25,47350.25,7,Long
2021-01-26,38737.0,9294.0,48031.0,7,Long
2021-01-27,38737.0,5225.25,43962.25,7,Long
2021-01-28,38737.0,6336.5,45073.5,7,Long
2021-01-29,45075.25,0.0,45075.25,0,
2021-01-31,45075.25,0.0,45075.25,0,
2021-02-01,45075.25,0.0,45075.25,0,
2021-02-02,45075.25,0.0,45075.25,0,
2021-02-03,45075.25,0.0,45075.25,0,
2021-02-04,45075.25,0.0,45075.25,0,
2021-02-05,45075.25,152.25,45227.5,3,Long
2021-02-07,45075.25,257.25,45332.5,3,Long
2021-02-08,45075.25,385.5,45460.75,3,Long
2021-02-09,45075.25,403.5,45478.75,3,Long
2021-02-10,45075.25,302.25,45377.5,3,Long
2021-02-11,45075.25,534.0,45609.25,3,Long
2021-02-12,45075.25,806.25,45881.5,3,Long
2021-02-14,45075.25,818.25,45893.5,3,Long
2021-02-15,45075.25,915.0,45990.25,3,Long
2021-02-16,45075.25,535.5,45610.75,3,Long
2021-02-17,45075.25,450.0,45525.25,3,Long
2021-02-18,45075.25,187.5,45262.75,3,Long
2021-02-19,45075.25,57.0,45132.25,4,Long
2021-02-21,45075.25,137.0,45212.25,4,Long
2021-02-22,45212.25,0.0,45212.25,0,
2021-02-23,45212.25,0.0,45212.25,0,
2021-02-24,45212.25,0.0,45212.25,0,
2021-02-25,45212.25,0.0,45212.25,0,
2021-02-26,45212.25,0.0,45212.25,0,
2021-02-28,45212.25,0.0,45212.25,0,
2021-03-01,45212.25,0.0,45212.25,0,
2021-03-02,45212.25,0.0,45212.25,0,
2021-03-03,45212.25,0.0,45212.25,0,
2021-03-04,45212.25,0.0,45212.25,0,
2021-03-05,45212.25,0.0,45212.25,0,
2021-03-07,45212.25,0.0,45212.25,0,
2021-03-08,45212.25,0.0,45212.25,0,
2021-03-09,45212.25,0.0,45212.25,0,
2021-03-10,45212.25,0.0,45212.25,0,
2021-03-11,45212.25,0.0,45212.25,0,
2021-03-12,45212.25,0.0,45212.25,0,
2021-03-14,45212.25,0.0,45212.25,0,
2021-03-15,45212.25,0.0,45212.25,0,
2021-03-16,45212.25,0.0,45212.25,0,
2021-03-17,45212.25,0.0,45212.25,0,
2021-03-18,45212.25,0.0,45212.25,0,
2021-03-19,45212.25,0.0,45212.25,0,
2021-03-21,45212.25,0.0,45212.25,0,
2021-03-22,45212.25,0.0,45212.25,0,
2021-03-23,45212.25,0.0,45212.25,0,
2021-03-24,45212.25,0.0,45212.25,0,
2021-03-25,45212.25,0.0,45212.25,0,
2021-03-26,45212.25,0.0,45212.25,0,
2021-03-28,45212.25,0.0,45212.25,0,
2021-03-29,45212.25,0.0,45212.25,0,
2021-03-30,45212.25,0.0,45212.25,0,
2021-03-31,45212.25,0.0,45212.25,0,
2021-04-01,45212.25,0.0,45212.25,0,
2021-04-02,45212.25,0.0,45212.25,0,
2021-04-04,45212.25,0.0,45212.25,0,
2021-04-05,45212.25,0.0,45212.25,0,
2021-04-06,45212.25,-64.5,45147.75,3,Long
2021-04-07,45146.25,0.0,45146.25,0,
2021-04-08,45146.25,490.5,45636.75,3,Long
2021-04-09,45146.25,510.75,45657.0,3,Long
2021-04-11,45146.25,420.75,45567.0,3,Long
2021-04-12,45146.25,536.25,45682.5,3,Long
2021-04-13,45146.25,984.75,46131.0,3,Long
2021-04-14,45146.25,519.0,45665.25,3,Long
2021-04-15,45146.25,1115.25,46261.5,3,Long
2021-04-16,45146.25,1146.75,46293.0,4,Long
2021-04-18,45146.25,1021.75,46168.0,4,Long
2021-04-19,45146.25,726.75,45873.0,4,Long
2021-04-20,45146.25,41.75,45188.0,4,Long
2021-04-21,45146.25,590.75,45737.0,4,Long
2021-04-22,45146.25,95.75,45242.0,4,Long
2021-04-23,45146.25,679.75,45826.0,4,Long
2021-04-25,45146.25,698.75,45845.0,4,Long
2021-04-26,45146.25,1167.75,46314.0,4,Long
2021-04-27,45146.25,909.75,46056.0,4,Long
2021-04-28,45146.25,945.75,46092.0,4,Long
2021-04-29,45146.25,720.75,45867.0,4,Long
2021-04-30,45146.25,529.25,45675.5,5,Long
2021-05-02,45146.25,600.5,45746.75,5,Long
2021-05-03,45146.25,46.75,45193.0,5,Long
2021-05-04,45146.25,-1175.75,43970.5,5,Long
2021-05-05,43970.5,0.0,43970.5,0,
2021-05-06,43970.5,0.0,43970.5,0,
2021-05-07,43970.5,0.0,43970.5,0,
2021-05-09,43970.5,61.5,44032.0,3,Long
2021-05-10,44032.75,0.0,44032.75,0,
2021-05-11,44032.75,0.0,44032.75,0,
2021-05-12,44032.75,0.0,44032.75,0,
2021-05-13,44032.75,0.0,44032.75,0,
2021-05-14,44032.75,0.0,44032.75,0,
2021-05-16,44032.75,0.0,44032.75,0,
2021-05-17,44032.75,0.0,44032.75,0,
2021-05-18,44032.75,0.0,44032.75,0,
2021-05-19,44032.75,0.0,44032.75,0,
2021-05-20,44032.75,0.0,44032.75,0,
2021-05-21,44032.75,0.0,44032.75,0,
2021-05-23,44032.75,0.0,44032.75,0,
2021-05-24,44032.75,0.0,44032.75,0,
2021-05-25,44032.75,0.0,44032.75,0,
2021-05-26,44032.75,0.0,44032.75,0,
2021-05-27,44032.75,0.0,44032.75,0,
2021-05-28,44032.75,0.0,44032.75,0,
2021-05-30,44032.75,0.0,44032.75,0,
2021-05-31,44032.75,0.0,44032.75,0,
2021-06-01,44032.75,0.0,44032.75,0,
2021-06-02,44032.75,0.0,44032.75,0,
2021-06-03,44032.75,0.0,44032.75,0,
2021-06-04,44032.75,0.0,44032.75,0,
2021-06-06,44032.75,-13.5,44019.25,3,Long
2021-06-07,44018.5,0.0,44018.5,0,
2021-06-08,44018.5,-16.5,44002.0,3,Long
2021-06-09,44018.5,-22.5,43996.0,3,Long
2021-06-10,44018.5,435.75,44454.25,3,Long
2021-06-11,44018.5,486.75,44505.25,3,Long
2021-06-13,44018.5,561.0,44579.5,3,Long
2021-06-14,44018.5,851.25,44869.75,3,Long
2021-06-15,44018.5,626.25,44644.75,3,Long
2021-06-16,44018.5,192.0,44210.5,3,Long
2021-06-17,44018.5,1059.0,45077.5,3,Long
2021-06-18,44018.5,541.5,44560.0,4,Long
2021-06-20,44018.5,622.5,44641.0,4,Long
2021-06-21,44018.5,1009.5,45028.0,4,Long
2021-06-22,44018.5,1559.5,45578.0,4,Long
2021-06-23,44018.5,1614.5,45633.0,4,Long
2021-06-24,44018.5,1855.5,45874.0,4,Long
2021-06-25,44018.5,1794.5,45813.0,4,Long
2021-06-27,44018.5,1888.5,45907.0,4,Long
2021-06-28,44018.5,2436.5,46455.0,4,Long
2021-06-29,44018.5,2820.5,46839.0,4,Long
2021-06-30,44018.5,2711.5,46730.0,4,Long
2021-07-01,44018.5,2601.5,46620.0,4,Long
2021-07-02,44018.5,3256.5,47275.0,5,Long
2021-07-04,44018.5,3326.5,47345.0,5,Long
2021-07-05,44018.5,3325.25,47343.75,5,Long
2021-07-06,44018.5,3577.75,47596.25,5,Long
2021-07-07,44018.5,3805.25,47823.75,5,Long
2021-07-08,44018.5,3214.0,47232.5,5,Long
2021-07-09,44018.5,3826.5,47845.0,5,Long
2021-07-11,44018.5,3901.5,47920.0,5,Long
2021-07-12,44018.5,4152.75,48171.25,5,Long
2021-07-13,44018.5,3979.0,47997.5,5,Long
2021-07-14,44018.5,4275.25,48293.75,5,Long
2021-07-15,44018.5,3539.0,47557.5,5,Long
2021-07-16,44018.5,3116.5,47135.0,6,Long
2021-07-18,44018.5,2951.5,46970.0,6,Long
2021-07-19,44018.5,2632.0,46650.5,6,Long
2021-07-20,44018.5,3553.0,47571.5,6,Long
2021-07-21,44018.5,4108.0,48126.5,6,Long
2021-07-22,44018.5,4919.5,48938.0,6,Long
2021-07-23,44018.5,5650.0,49668.5,6,Long
2021-07-25,44018.5,5821.0,49839.5,6,Long
2021-07-26,44018.5,5764.0,49782.5,6,Long
2021-07-27,44018.5,4616.5,48635.0,6,Long
2021-07-28,44018.5,5024.5,49043.0,6,Long
2021-07-29,44018.5,4315.0,48333.5,6,Long
2021-07-30,44018.5,4918.5,48937.0,7,Long
2021-08-01,44018.5,5160.0,49178.5,7,Long
2021-08-02,44018.5,4876.5,48895.0,7,Long
2021-08-03,44018.5,5364.75,49383.25,7,Long
2021-08-04,44018.5,5734.0,49752.5,7,Long
2021-08-05,44018.5,6271.25,50289.75,7,Long
2021-08-06,44018.5,5797.0,49815.5,7,Long
2021-08-08,44018.5,5301.75,49320.25,7,Long
2021-08-09,44018.5,5979.0,49997.5,7,Long
2021-08-10,44018.5,5396.25,49414.75,7,Long
2021-08-11,44018.5,5118.0,49136.5,7,Long
2021-08-12,44018.5,5622.0,49640.5,7,Long
2021-08-13,44018.5,6022.0,50040.5,8,Long
2021-08-15,44018.5,5944.0,49962.5,8,Long
2021-08-16,44018.5,6076.0,50094.5,8,Long
2021-08-17,44018.5,4688.0,48706.5,8,Long
2021-08-18,44018.5,3796.0,47814.5,8,Long
2021-08-19,44018.5,4366.0,48384.5,8,Long
2021-08-20,44018.5,5792.0,49810.5,8,Long
2021-08-22,44018.5,5890.0,49908.5,8,Long
2021-08-23,44018.5,7668.0,51686.5,8,Long
2021-08-24,44018.5,7894.0,51912.5,8,Long
2021-08-25,44018.5,7926.0,51944.5,8,Long
2021-08-26,44018.5,7258.0,51276.5,8,Long
2021-08-27,44018.5,8451.25,52469.75,9,Long
2021-08-29,44018.5,8671.75,52690.25,9,Long
2021-08-30,44018.5,9983.5,54002.0,9,Long
2021-08-31,44018.5,9972.25,53990.75,9,Long
2021-09-01,44018.5,10165.75,54184.25,9,Long
2021-09-02,44018.5,9972.25,53990.75,9,Long
2021-09-03,44018.5,10480.75,54499.25,9,Long
2021-09-05,44018.5,10451.5,54470.0,9,Long
2021-09-06,44018.5,10802.5,54821.0,9,Long
2021-09-07,44018.5,10557.25,54575.75,9,Long
2021-09-08,44018.5,9999.25,54017.75,9,Long
2021-09-09,44018.5,9675.25,53693.75,9,Long
2021-09-10,44018.5,8532.0,52550.5,10,Long
2021-09-12,44018.5,8999.5,53018.0,10,Long
2021-09-13,44018.5,8607.0,52625.5,10,Long
2021-09-14,44018.5,8224.5,52243.0,10,Long
2021-09-15,44018.5,9172.0,53190.5,10,Long
2021-09-16,44018.5,8969.5,52988.0,10,Long
2021-09-17,52988.0,0.0,52988.0,0,
2021-09-19,52988.0,0.0,52988.0,0,
2021-09-20,52988.0,0.0,52988.0,0,
2021-09-21,52988.0,0.0,52988.0,0,
2021-09-22,52988.0,0.0,52988.0,0,
2021-09-23,52988.0,0.0,52988.0,0,
2021-09-24,52988.0,0.0,52988.0,0,
2021-09-26,52988.0,0.0,52988.0,0,
2021-09-27,52988.0,0.0,52988.0,0,
2021-09-28,52988.0,0.0,52988.0,0,
2021-09-29,52988.0,0.0,52988.0,0,
2021-09-30,52988.0,0.0,52988.0,0,
2021-10-01,52988.0,0.0,52988.0,0,
2021-10-03,52988.0,0.0,52988.0,0,
2021-10-04,52988.0,0.0,52988.0,0,
2021-10-05,52988.0,0.0,52988.0,0,
2021-10-06,52988.0,0.0,52988.0,0,
2021-10-07,52988.0,0.0,52988.0,0,
2021-10-08,52988.0,0.0,52988.0,0,
2021-10-10,52988.0,0.0,52988.0,0,
2021-10-11,52988.0,0.0,52988.0,0,
2021-10-12,52988.0,0.0,52988.0,0,
2021-10-13,52988.0,0.0,52988.0,0,
2021-10-14,52988.0,0.0,52988.0,0,
2021-10-15,52988.0,0.0,52988.0,0,
2021-10-17,52988.0,0.0,52988.0,0,
2021-10-18,52988.0,0.0,52988.0,0,
2021-10-19,52988.0,351.0,53339.0,3,Long
2021-10-20,52988.0,129.0,53117.0,3,Long
2021-10-21,52988.0,298.5,53286.5,3,Long
2021-10-22,52988.0,95.25,53083.25,3,Long
2021-10-24,52988.0,42.0,53030.0,3,Long
2021-10-25,52988.0,740.25,53728.25,3,Long
2021-10-26,52988.0,803.25,53791.25,3,Long
2021-10-27,52988.0,1002.0,53990.0,3,Long
2021-10-28,52988.0,1140.0,54128.0,3,Long
2021-10-29,52988.0,1798.0,54786.0,4,Long
2021-10-31,52988.0,1844.0,54832.0,4,Long
2021-11-01,52988.0,1827.0,54815.0,4,Long
2021-11-02,52988.0,2093.0,55081.0,4,Long
2021-11-03,52988.0,3066.0,56054.0,4,Long
2021-11-04,52988.0,3683.0,56671.0,4,Long
2021-11-05,52988.0,3695.0,56683.0,4,Long
2021-11-07,52988.0,3571.0,56559.0,4,Long
2021-11-08,52988.0,3565.0,56553.0,4,Long
2021-11-09,52988.0,3065.0,56053.0,4,Long
2021-11-10,52988.0,2284.0,55272.0,4,Long
2021-11-11,52988.0,2580.0,55568.0,4,Long
2021-11-12,52988.0,3149.5,56137.5,5,Long
2021-11-14,52988.0,3272.0,56260.0,5,Long
2021-11-15,52988.0,3089.5,56077.5,5,Long
2021-11-16,52988.0,3667.0,56655.0,5,Long
2021-11-17,52988.0,3788.25,56776.25,5,Long
2021-11-18,52988.0,4620.75,57608.75,5,Long
2021-11-19,52988.0,5082.0,58070.0,5,Long
2021-11-21,52988.0,5084.5,58072.5,5,Long
2021-11-22,52988.0,4124.5,57112.5,5,Long
2021-11-23,52988.0,3573.25,56561.25,5,Long
2021-11-24,52988.0,3929.5,56917.5,5,Long
2021-11-25,52988.0,3995.75,56983.75,5,Long
2021-11-26,56980.0,0.0,56980.0,0,
2021-11-28,56980.0,0.0,56980.0,0,
2021-11-29,56980.0,0.0,56980.0,0,
2021-11-30,56980.0,0.0,56980.0,0,
2021-12-01,56980.0,0.0,56980.0,0,
2021-12-02,56980.0,0.0,56980.0,0,
2021-12-03,56980.0,0.0,56980.0,0,
2021-12-05,56980.0,0.0,56980.0,0,
2021-12-06,56980.0,0.0,56980.0,0,
2021-12-07,56980.0,0.0,56980.0,0,
2021-12-08,56980.0,0.0,56980.0,0,
2021-12-09,56980.0,0.0,56980.0,0,
2021-12-10,56980.0,0.0,56980.0,0,
2021-12-12,56980.0,0.0,56980.0,0,
2021-12-13,56980.0,0.0,56980.0,0,
2021-12-14,56980.0,0.0,56980.0,0,
2021-12-15,56980.0,0.0,56980.0,0,
2021-12-16,56980.0,0.0,56980.0,0,
2021-12-17,56980.0,0.0,56980.0,0,
2021-12-19,56980.0,0.0,56980.0,0,
2021-12-20,56980.0,0.0,56980.0,0,
2021-12-21,56980.0,0.0,56980.0,0,
2021-12-22,56980.0,0.0,56980.0,0,
2021-12-23,56980.0,0.0,56980.0,0,
2021-12-26,56980.0,0.0,56980.0,0,
2021-12-27,56980.0,0.0,56980.0,0,
2021-12-28,56980.0,-47.25,56932.75,3,Long
2021-12-29,56931.25,0.0,56931.25,0,
2021-12-30,56931.25,0.0,56931.25,0,
2021-12-31,56931.25,0.0,56931.25,0,
2022-01-02,56931.25,0.0,56931.25,0,
2022-01-03,56931.25,0.0,56931.25,0,
2022-01-04,56931.25,0.0,56931.25,0,
2022-01-05,56931.25,0.0,56931.25,0,
2022-01-06,56931.25,0.0,56931.25,0,
2022-01-07,56931.25,0.0,56931.25,0,
2022-01-09,56931.25,0.0,56931.25,0,
2022-01-10,56931.25,0.0,56931.25,0,
2022-01-11,56931.25,0.0,56931.25,0,
2022-01-12,56931.25,0.0,56931.25,0,
2022-01-13,56931.25,0.0,56931.25,0,
2022-01-14,56931.25,0.0,56931.25,0,
2022-01-16,56931.25,0.0,56931.25,0,
2022-01-17,56931.25,0.0,56931.25,0,
2022-01-18,56931.25,0.0,56931.25,0,
2022-01-19,56931.25,0.0,56931.25,0,
2022-01-20,56931.25,0.0,56931.25,0,
2022-01-21,56931.25,0.0,56931.25,0,
2022-01-23,56931.25,0.0,56931.25,0,
2022-01-24,56931.25,0.0,56931.25,0,
2022-01-25,56931.25,0.0,56931.25,0,
2022-01-26,56931.25,0.0,56931.25,0,
2022-01-27,56931.25,0.0,56931.25,0,
2022-01-28,56931.25,0.0,56931.25,0,
2022-01-30,56931.25,0.0,56931.25,0,
2022-01-31,56931.25,0.0,56931.25,0,
2022-02-01,56931.25,0.0,56931.25,0,
2022-02-02,56931.25,0.0,56931.25,0,
2022-02-03,56931.25,0.0,56931.25,0,
2022-02-04,56931.25,0.0,56931.25,0,
2022-02-06,56931.25,0.0,56931.25,0,
2022-02-07,56931.25,0.0,56931.25,0,
2022-02-08,56931.25,0.0,56931.25,0,
2022-02-09,56931.25,0.0,56931.25,0,
2022-02-10,56931.25,0.0,56931.25,0,
2022-02-11,56931.25,0.0,56931.25,0,
2022-02-13,56931.25,0.0,56931.25,0,
2022-02-14,56931.25,0.0,56931.25,0,
2022-02-15,56931.25,0.0,56931.25,0,
2022-02-16,56931.25,0.0,56931.25,0,
2022-02-17,56931.25,0.0,56931.25,0,
2022-02-18,56931.25,0.0,56931.25,0,
2022-02-20,56931.25,0.0,56931.25,0,
2022-02-21,56931.25,0.0,56931.25,0,
2022-02-22,56931.25,0.0,56931.25,0,
2022-02-23,56931.25,0.0,56931.25,0,
2022-02-24,56931.25,0.0,56931.25,0,
2022-02-25,56931.25,0.0,56931.25,0,
2022-02-27,56931.25,0.0,56931.25,0,
2022-02-28,56931.25,0.0,56931.25,0,
2022-03-01,56931.25,0.0,56931.25,0,
2022-03-02,56931.25,0.0,56931.25,0,
2022-03-03,56931.25,0.0,56931.25,0,
2022-03-04,56931.25,0.0,56931.25,0,
2022-03-06,56931.25,0.0,56931.25,0,
2022-03-07,56931.25,0.0,56931.25,0,
2022-03-08,56931.25,0.0,56931.25,0,
2022-03-09,56931.25,0.0,56931.25,0,
2022-03-10,56931.25,0.0,56931.25,0,
2022-03-11,56931.25,0.0,56931.25,0,
2022-03-13,56931.25,0.0,56931.25,0,
2022-03-14,56931.25,0.0,56931.25,0,
2022-03-15,56931.25,0.0,56931.25,0,
2022-03-16,56931.25,0.0,56931.25,0,
2022-03-17,56931.25,0.0,56931.25,0,
2022-03-18,56931.25,0.0,56931.25,0,
2022-03-20,56931.25,0.0,56931.25,0,
2022-03-21,56931.25,0.0,56931.25,0,
2022-03-22,56931.25,0.0,56931.25,0,
2022-03-23,56931.25,-576.0,56355.25,3,Long
2022-03-24,56356.75,0.0,56356.75,0,
2022-03-25,56356.75,6.75,56363.5,3,Long
2022-03-27,56356.75,-87.75,56269.0,3,Long
2022-03-28,56356.75,668.25,57025.0,3,Long
2022-03-29,56356.75,1413.75,57770.5,3,Long
2022-03-30,56356.75,1060.5,57417.25,3,Long
2022-03-31,56356.75,486.75,56843.5,3,Long
2022-04-01,56356.75,309.0,56665.75,3,Long
2022-04-03,56356.75,205.5,56562.25,3,Long
2022-04-04,56356.75,1205.25,57562.0,3,Long
2022-04-05,56356.75,253.5,56610.25,3,Long
2022-04-06,56356.75,-905.25,55451.5,3,Long
2022-04-07,55450.75,0.0,55450.75,0,
2022-04-08,55450.75,0.0,55450.75,0,
2022-04-10,55450.75,0.0,55450.75,0,
2022-04-11,55450.75,0.0,55450.75,0,
2022-04-12,55450.75,0.0,55450.75,0,
2022-04-13,55450.75,0.0,55450.75,0,
2022-04-14,55450.75,0.0,55450.75,0,
2022-04-17,55450.75,0.0,55450.75,0,
2022-04-18,55450.75,0.0,55450.75,0,
2022-04-19,55450.75,0.0,55450.75,0,
2022-04-20,55450.75,0.0,55450.75,0,
2022-04-21,55450.75,0.0,55450.75,0,
2022-04-22,55450.75,0.0,55450.75,0,
2022-04-24,55450.75,0.0,55450.75,0,
2022-04-25,55450.75,0.0,55450.75,0,
2022-04-26,55450.75,0.0,55450.75,0,
2022-04-27,55450.75,0.0,55450.75,0,
2022-04-28,55450.75,0.0,55450.75,0,
2022-04-29,55450.75,0.0,55450.75,0,
2022-05-01,55450.75,0.0,55450.75,0,
2022-05-02,55450.75,0.0,55450.75,0,
2022-05-03,55450.75,0.0,55450.75,0,
2022-05-04,55450.75,0.0,55450.75,0,
2022-05-05,55450.75,0.0,55450.75,0,
2022-05-06,55450.75,0.0,55450.75,0,
2022-05-08,55450.75,0.0,55450.75,0,
2022-05-09,55450.75,0.0,55450.75,0,
2022-05-10,55450.75,0.0,55450.75,0,
2022-05-11,55450.75,0.0,55450.75,0,
2022-05-12,55450.75,0.0,55450.75,0,
2022-05-13,55450.75,0.0,55450.75,0,
2022-05-15,55450.75,0.0,55450.75,0,
2022-05-16,55450.75,0.0,55450.75,0,
2022-05-17,55450.75,0.0,55450.75,0,
2022-05-18,55450.75,0.0,55450.75,0,
2022-05-19,55450.75,0.0,55450.75,0,
2022-05-20,55450.75,0.0,55450.75,0,
2022-05-22,55450.75,0.0,55450.75,0,
2022-05-23,55450.75,0.0,55450.75,0,
2022-05-24,55450.75,0.0,55450.75,0,
2022-05-25,55450.75,0.0,55450.75,0,
2022-05-26,55450.75,0.0,55450.75,0,
2022-05-27,55450.75,0.0,55450.75,0,
2022-05-29,55450.75,0.0,55450.75,0,
2022-05-30,55450.75,0.0,55450.75,0,
2022-05-31,55450.75,0.0,55450.75,0,
2022-06-01,55450.75,0.0,55450.75,0,
2022-06-02,55450.75,0.0,55450.75,0,
2022-06-03,55450.75,-1114.5,54336.25,3,Long
2022-06-05,54330.25,0.0,54330.25,0,
2022-06-06,54330.25,0.0,54330.25,0,
2022-06-07,54330.25,0.0,54330.25,0,
2022-06-08,54330.25,0.0,54330.25,0,
2022-06-09,54330.25,0.0,54330.25,0,
2022-06-10,54330.25,0.0,54330.25,0,
2022-06-12,54330.25,0.0,54330.25,0,
2022-06-13,54330.25,0.0,54330.25,0,
2022-06-14,54330.25,0.0,54330.25,0,
2022-06-15,54330.25,0.0,54330.25,0,
2022-06-16,54330.25,0.0,54330.25,0,
2022-06-17,54330.25,0.0,54330.25,0,
2022-06-19,54330.25,0.0,54330.25,0,
2022-06-20,54330.25,0.0,54330.25,0,
2022-06-21,54330.25,0.0,54330.25,0,
2022-06-22,54330.25,0.0,54330.25,0,
2022-06-23,54330.25,0.0,54330.25,0,
2022-06-24,54330.25,0.0,54330.25,0,
2022-06-26,54330.25,0.0,54330.25,0,
2022-06-27,54330.25,0.0,54330.25,0,
2022-06-28,54330.25,0.0,54330.25,0,
2022-06-29,54330.25,0.0,54330.25,0,
2022-06-30,54330.25,0.0,54330.25,0,
2022-07-01,54330.25,0.0,54330.25,0,
2022-07-03,54330.25,0.0,54330.25,0,
2022-07-04,54330.25,0.0,54330.25,0,
2022-07-05,54330.25,0.0,54330.25,0,
2022-07-06,54330.25,0.0,54330.25,0,
2022-07-07,54330.25,0.0,54330.25,0,
2022-07-08,54330.25,0.0,54330.25,0,
2022-07-10,54330.25,0.0,54330.25,0,
2022-07-11,54330.25,0.0,54330.25,0,
2022-07-12,54330.25,0.0,54330.25,0,
2022-07-13,54330.25,0.0,54330.25,0,
2022-07-14,54330.25,0.0,54330.25,0,
2022-07-15,54330.25,0.0,54330.25,0,
2022-07-17,54330.25,0.0,54330.25,0,
2022-07-18,54330.25,0.0,54330.25,0,
2022-07-19,54330.25,0.0,54330.25,0,
2022-07-20,54330.25,0.0,54330.25,0,
2022-07-21,54330.25,336.75,54667.0,3,Long
2022-07-22,54330.25,-25.5,54304.75,3,Long
2022-07-24,54343.75,0.0,54343.75,0,
2022-07-25,54343.75,0.0,54343.75,0,
2022-07-26,54343.75,0.0,54343.75,0,
2022-07-27,54343.75,0.0,54343.75,0,
2022-07-28,54343.75,948.0,55291.75,3,Long
2022-07-29,54343.75,1193.25,55537.0,3,Long
2022-07-31,54343.75,1027.5,55371.25,3,Long
2022-08-01,54343.75,1122.0,55465.75,3,Long
2022-08-02,54343.75,978.75,55322.5,3,Long
2022-08-03,54343.75,1972.5,56316.25,3,Long
2022-08-04,54343.75,2269.5,56613.25,3,Long
2022-08-05,54343.75,1908.25,56252.0,4,Long
2022-08-07,54343.75,1760.25,56104.0,4,Long
2022-08-08,54343.75,1932.25,56276.0,4,Long
2022-08-09,54343.75,1260.25,55604.0,4,Long
2022-08-10,54343.75,2645.25,56989.0,4,Long
2022-08-11,54343.75,2392.25,56736.0,4,Long
2022-08-12,54343.75,3371.25,57715.0,4,Long
2022-08-14,54343.75,3210.25,57554.0,4,Long
2022-08-15,54343.75,3774.25,58118.0,4,Long
2022-08-16,54343.75,3657.25,58001.0,4,Long
2022-08-17,54343.75,2871.25,57215.0,4,Long
2022-08-18,54343.75,3158.25,57502.0,4,Long
2022-08-19,54343.75,2031.25,56375.0,5,Long
2022-08-21,54343.75,1720.0,56063.75,5,Long
2022-08-22,54343.75,561.25,54905.0,5,Long
2022-08-23,54343.75,260.0,54603.75,5,Long
2022-08-24,54343.75,455.0,54798.75,5,Long
2022-08-25,54343.75,1505.0,55848.75,5,Long
2022-08-26,55851.25,0.0,55851.25,0,
2022-08-28,55851.25,0.0,55851.25,0,
2022-08-29,55851.25,0.0,55851.25,0,
2022-08-30,55851.25,0.0,55851.25,0,
2022-08-31,55851.25,0.0,55851.25,0,
2022-09-01,55851.25,0.0,55851.25,0,
2022-09-02,55851.25,0.0,55851.25,0,
2022-09-04,55851.25,0.0,55851.25,0,
2022-09-05,55851.25,0.0,55851.25,0,
2022-09-06,55851.25,0.0,55851.25,0,
2022-09-07,55851.25,0.0,55851.25,0,
2022-09-08,55851.25,0.0,55851.25,0,
2022-09-09,55851.25,0.0,55851.25,0,
2022-09-11,55851.25,0.0,55851.25,0,
2022-09-12,55851.25,0.0,55851.25,0,
2022-09-13,55851.25,0.0,55851.25,0,
2022-09-14,55851.25,0.0,55851.25,0,
2022-09-15,55851.25,0.0,55851.25,0,
2022-09-16,55851.25,0.0,55851.25,0,
2022-09-18,55851.25,0.0,55851.25,0,
2022-09-19,55851.25,0.0,55851.25,0,
2022-09-20,55851.25,0.0,55851.25,0,
2022-09-21,55851.25,0.0,55851.25,0,
2022-09-22,55851.25,0.0,55851.25,0,
2022-09-23,55851.25,0.0,55851.25,0,
2022-09-25,55851.25,0.0,55851.25,0,
2022-09-26,55851.25,0.0,55851.25,0,
2022-09-27,55851.25,0.0,55851.25,0,
2022-09-28,55851.25,0.0,55851.25,0,
2022-09-29,55851.25,0.0,55851.25,0,
2022-09-30,55851.25,0.0,55851.25,0,
2022-10-02,55851.25,0.0,55851.25,0,
2022-10-03,55851.25,0.0,55851.25,0,
2022-10-04,55851.25,0.0,55851.25,0,
2022-10-05,55851.25,0.0,55851.25,0,
2022-10-06,55851.25,0.0,55851.25,0,
2022-10-07,55851.25,0.0,55851.25,0,
2022-10-09,55851.25,0.0,55851.25,0,
2022-10-10,55851.25,0.0,55851.25,0,
2022-10-11,55851.25,0.0,55851.25,0,
2022-10-12,55851.25,0.0,55851.25,0,
2022-10-13,55851.25,0.0,55851.25,0,
2022-10-14,55851.25,0.0,55851.25,0,
2022-10-16,55851.25,0.0,55851.25,0,
2022-10-17,55851.25,0.0,55851.25,0,
2022-10-18,55851.25,0.0,55851.25,0,
2022-10-19,55851.25,0.0,55851.25,0,
2022-10-20,55851.25,0.0,55851.25,0,
2022-10-21,55851.25,0.0,55851.25,0,
2022-10-23,55851.25,0.0,55851.25,0,
2022-10-24,55851.25,0.0,55851.25,0,
2022-10-25,55851.25,0.0,55851.25,0,
2022-10-26,55851.25,0.0,55851.25,0,
2022-10-27,55851.25,0.0,55851.25,0,
2022-10-28,55851.25,0.0,55851.25,0,
2022-10-30,55851.25,0.0,55851.25,0,
2022-10-31,55851.25,0.0,55851.25,0,
2022-11-01,55851.25,0.0,55851.25,0,
2022-11-02,55851.25,0.0,55851.25,0,
2022-11-03,55851.25,0.0,55851.25,0,
2022-11-04,55851.25,0.0,55851.25,0,
2022-11-06,55851.25,0.0,55851.25,0,
2022-11-07,55851.25,0.0,55851.25,0,
2022-11-08,55851.25,0.0,55851.25,0,
2022-11-09,55851.25,0.0,55851.25,0,
2022-11-10,55851.25,0.0,55851.25,0,
2022-11-11,55851.25,0.0,55851.25,0,
2022-11-13,55851.25,45.75,55897.0,3,Long
2022-11-14,55851.25,-87.0,55764.25,3,Long
2022-11-15,55764.25,0.0,55764.25,0,
2022-11-16,55764.25,-355.5,55408.75,3,Long
2022-11-17,55408.0,0.0,55408.0,0,
2022-11-18,55408.0,0.0,55408.0,0,
2022-11-20,55408.0,0.0,55408.0,0,
2022-11-21,55408.0,0.0,55408.0,0,
2022-11-22,55408.0,0.0,55408.0,0,
2022-11-23,55408.0,0.0,55408.0,0,
2022-11-24,55408.0,87.75,55495.75,3,Long
2022-11-25,55408.0,-313.5,55094.5,3,Long
2022-11-27,54948.25,0.0,54948.25,0,
2022-11-28,54948.25,0.0,54948.25,0,
2022-11-29,54948.25,0.0,54948.25,0,
2022-11-30,54948.25,0.0,54948.25,0,
2022-12-01,54948.25,-99.0,54849.25,3,Long
2022-12-02,54948.25,-279.75,54668.5,3,Long
2022-12-04,54948.25,-214.5,54733.75,3,Long
2022-12-05,54948.25,-761.25,54187.0,3,Long
2022-12-06,54948.25,-1484.25,53464.0,3,Long
2022-12-07,53465.5,0.0,53465.5,0,
2022-12-08,53465.5,0.0,53465.5,0,
2022-12-09,53465.5,0.0,53465.5,0,
2022-12-11,53465.5,0.0,53465.5,0,
2022-12-12,53465.5,0.0,53465.5,0,
2022-12-13,53465.5,396.0,53861.5,3,Long
2022-12-14,53465.5,165.75,53631.25,3,Long
2022-12-15,53465.5,-1107.0,52358.5,3,Long
2022-12-16,52358.5,0.0,52358.5,0,
2022-12-18,52358.5,0.0,52358.5,0,
2022-12-19,52358.5,0.0,52358.5,0,
2022-12-20,52358.5,0.0,52358.5,0,
2022-12-21,52358.5,0.0,52358.5,0,
2022-12-22,52358.5,0.0,52358.5,0,
2022-12-23,52358.5,0.0,52358.5,0,
2022-12-26,52358.5,0.0,52358.5,0,
2022-12-27,52358.5,0.0,52358.5,0,
2022-12-28,52358.5,0.0,52358.5,0,
2022-12-29,52358.5,0.0,52358.5,0,
2022-12-30,52358.5,0.0,52358.5,0,
2023-01-02,52358.5,0.0,52358.5,0,
2023-01-03,52358.5,0.0,52358.5,0,
2023-01-04,52358.5,0.0,52358.5,0,
2023-01-05,52358.5,0.0,52358.5,0,
2023-01-06,52358.5,0.0,52358.5,0,
2023-01-08,52358.5,0.0,52358.5,0,
2023-01-09,52358.5,0.0,52358.5,0,
2023-01-10,52358.5,0.0,52358.5,0,
2023-01-11,52358.5,0.0,52358.5,0,
2023-01-12,52358.5,0.0,52358.5,0,
2023-01-13,52358.5,0.0,52358.5,0,
2023-01-15,52358.5,0.0,52358.5,0,
2023-01-16,52358.5,0.0,52358.5,0,
2023-01-17,52358.5,0.0,52358.5,0,
2023-01-18,52358.5,0.0,52358.5,0,
2023-01-19,52358.5,0.0,52358.5,0,
2023-01-20,52358.5,0.0,52358.5,0,
2023-01-22,52358.5,-58.5,52300.0,3,Long
2023-01-23,52299.25,0.0,52299.25,0,
2023-01-24,52299.25,-235.5,52063.75,3,Long
2023-01-25,52299.25,-33.75,52265.5,3,Long
2023-01-26,52299.25,363.75,52663.0,3,Long
2023-01-27,52299.25,903.75,53203.0,3,Long
2023-01-29,52299.25,861.0,53160.25,3,Long
2023-01-30,52299.25,251.25,52550.5,3,Long
2023-01-31,52299.25,554.25,52853.5,3,Long
2023-02-01,52299.25,1880.25,54179.5,3,Long
2023-02-02,52299.25,2235.0,54534.25,3,Long
2023-02-03,52299.25,2102.75,54402.0,4,Long
2023-02-05,52299.25,1999.75,54299.0,4,Long
2023-02-06,52299.25,1780.75,54080.0,4,Long
2023-02-07,52299.25,2636.75,54936.0,4,Long
2023-02-08,52299.25,1880.75,54180.0,4,Long
2023-02-09,52299.25,1375.75,53675.0,4,Long
2023-02-10,52299.25,982.75,53282.0,4,Long
2023-02-12,52299.25,863.75,53163.0,4,Long
2023-02-13,52299.25,1791.75,54091.0,4,Long
2023-02-14,52299.25,2067.75,54367.0,4,Long
2023-02-15,52299.25,2622.75,54922.0,4,Long
2023-02-16,52299.25,1346.75,53646.0,4,Long
2023-02-17,52299.25,1184.25,53483.5,5,Long
2023-02-19,52299.25,1065.5,53364.75,5,Long
2023-02-20,52299.25,1161.75,53461.0,5,Long
2023-02-21,52299.25,-160.75,52138.5,5,Long
2023-02-22,52299.25,105.5,52404.75,5,Long
2023-02-23,52299.25,136.75,52436.0,5,Long
2023-02-24,52299.25,-738.25,51561.0,5,Long
2023-02-26,52299.25,-645.75,51653.5,5,Long
2023-02-27,52299.25,-265.75,52033.5,5,Long
2023-02-28,52299.25,-622.0,51677.25,5,Long
2023-03-01,52299.25,-875.75,51423.5,5,Long
2023-03-02,52299.25,-547.0,51752.25,5,Long
2023-03-03,52299.25,929.75,53229.0,6,Long
2023-03-05,52299.25,724.25,53023.5,6,Long
2023-03-06,52299.25,953.75,53253.0,6,Long
2023-03-07,52299.25,29.75,52329.0,6,Long
2023-03-08,52299.25,320.75,52620.0,6,Long
2023-03-09,52299.25,-1114.75,51184.5,6,Long
2023-03-10,51184.5,0.0,51184.5,0,
2023-03-12,51184.5,0.0,51184.5,0,
2023-03-13,51184.5,0.0,51184.5,0,
2023-03-14,51184.5,0.0,51184.5,0,
2023-03-15,51184.5,0.0,51184.5,0,
2023-03-16,51184.5,0.0,51184.5,0,
2023-03-17,51184.5,-219.75,50964.75,3,Long
2023-03-19,51083.25,0.0,51083.25,0,
2023-03-20,51083.25,0.0,51083.25,0,
2023-03-21,51083.25,0.0,51083.25,0,
2023-03-22,51083.25,-448.5,50634.75,3,Long
2023-03-23,50634.75,0.0,50634.75,0,
2023-03-24,50634.75,174.75,50809.5,3,Long
2023-03-26,50634.75,245.25,50880.0,3,Long
2023-03-27,50634.75,-130.5,50504.25,3,Long
2023-03-28,50634.75,-319.5,50315.25,3,Long
2023-03-29,50634.75,231.0,50865.75,3,Long
2023-03-30,50634.75,690.0,51324.75,3,Long
2023-03-31,50634.75,1327.5,51962.25,3,Long
2023-04-02,50634.75,1122.0,51756.75,3,Long
2023-04-03,50634.75,1143.0,51777.75,3,Long
2023-04-04,50634.75,1124.25,51759.0,3,Long
2023-04-05,50634.75,573.0,51207.75,3,Long
2023-04-06,50634.75,880.5,51515.25,3,Long
2023-04-07,50634.75,944.25,51579.0,4,Long
2023-04-09,50634.75,846.25,51481.0,4,Long
2023-04-10,50634.75,910.25,51545.0,4,Long
2023-04-11,50634.75,579.25,51214.0,4,Long
2023-04-12,50634.75,-52.75,50582.0,4,Long
2023-04-13,50634.75,988.25,51623.0,4,Long
2023-04-14,50634.75,1018.25,51653.0,4,Long
2023-04-16,50634.75,967.25,51602.0,4,Long
2023-04-17,50634.75,936.25,51571.0,4,Long
2023-04-18,50634.75,921.25,51556.0,4,Long
2023-04-19,50634.75,733.25,51368.0,4,Long
2023-04-20,50634.75,550.25,51185.0,4,Long
2023-04-21,50634.75,527.25,51162.0,5,Long
2023-04-23,50634.75,492.25,51127.0,5,Long
2023-04-24,50634.75,398.5,51033.25,5,Long
2023-04-25,50634.75,-49.0,50585.75,5,Long
2023-04-26,50634.75,-64.0,50570.75,5,Long
2023-04-27,50634.75,1202.25,51837.0,5,Long
2023-04-28,50634.75,1786.0,52420.75,5,Long
2023-04-30,50634.75,1687.25,52322.0,5,Long
2023-05-01,50634.75,1579.75,52214.5,5,Long
2023-05-02,50634.75,1062.25,51697.0,5,Long
2023-05-03,50634.75,639.75,51274.5,5,Long
2023-05-04,50634.75,619.75,51254.5,5,Long
2023-05-05,50634.75,1680.25,52315.0,6,Long
2023-05-07,50634.75,1642.75,52277.5,6,Long
2023-05-08,50634.75,1839.25,52474.0,6,Long
2023-05-09,50634.75,1470.25,52105.0,6,Long
2023-05-10,50634.75,2347.75,52982.5,6,Long
2023-05-11,50634.75,2545.75,53180.5,6,Long
2023-05-12,50634.75,2034.25,52669.0,6,Long
2023-05-14,50634.75,2014.75,52649.5,6,Long
2023-05-15,50634.75,2566.75,53201.5,6,Long
2023-05-16,50634.75,2814.25,53449.0,6,Long
2023-05-17,50634.75,3676.75,54311.5,6,Long
2023-05-18,50634.75,5394.25,56029.0,6,Long
2023-05-19,50634.75,4853.0,55487.75,7,Long
2023-05-21,50634.75,4938.75,55573.5,7,Long
2023-05-22,50634.75,5565.25,56200.0,7,Long
2023-05-23,50634.75,4202.0,54836.75,7,Long
2023-05-24,50634.75,4893.25,55528.0,7,Long
2023-05-25,50634.75,5719.25,56354.0,7,Long
2023-05-26,50634.75,8561.25,59196.0,7,Long
2023-05-28,50634.75,8879.75,59514.5,7,Long
2023-05-29,50634.75,8666.25,59301.0,7,Long
2023-05-30,50634.75,8916.5,59551.25,7,Long
2023-05-31,50634.75,8134.25,58769.0,7,Long
2023-06-01,50634.75,9347.0,59981.75,7,Long
2023-06-02,50634.75,10070.75,60705.5,8,Long
2023-06-04,50634.75,9670.75,60305.5,8,Long
2023-06-05,50634.75,9904.75,60539.5,8,Long
2023-06-06,50634.75,10138.75,60773.5,8,Long
2023-06-07,50634.75,8020.75,58655.5,8,Long
2023-06-08,50634.75,9378.75,60013.5,8,Long
2023-06-09,50634.75,9882.75,60517.5,8,Long
2023-06-11,50634.75,10108.75,60743.5,8,Long
2023-06-12,50634.75,13400.75,64035.5,8,Long
2023-06-13,50634.75,14220.75,64855.5,8,Long
2023-06-14,50634.75,15092.75,65727.5,8,Long
2023-06-15,50634.75,16252.75,66887.5,8,Long
2023-06-16,50634.75,15778.75,66413.5,9,Long
2023-06-18,50634.75,15794.5,66429.25,9,Long
2023-06-19,50634.75,15304.0,65938.75,9,Long
2023-06-20,50634.75,15423.25,66058.0,9,Long
2023-06-21,50634.75,13434.25,64069.0,9,Long
2023-06-22,50634.75,15061.0,65695.75,9,Long
2023-06-23,50634.75,13564.75,64199.5,9,Long
2023-06-25,50634.75,13972.0,64606.75,9,Long
2023-06-26,50634.75,12102.25,62737.0,9,Long
2023-06-27,50634.75,13598.5,64233.25,9,Long
2023-06-28,50634.75,14615.5,65250.25,9,Long
2023-06-29,50634.75,14116.0,64750.75,9,Long
2023-06-30,50634.75,15889.5,66524.25,10,Long
2023-07-02,50634.75,16224.5,66859.25,10,Long
2023-07-03,50634.75,16092.0,66726.75,10,Long
2023-07-04,50634.75,16119.5,66754.25,10,Long
2023-07-05,50634.75,16294.5,66929.25,10,Long
2023-07-06,50634.75,14979.5,65614.25,10,Long
2023-07-07,50634.75,14632.0,65266.75,10,Long
2023-07-09,50634.75,14524.5,65159.25,10,Long
2023-07-10,50634.75,14639.5,65274.25,10,Long
2023-07-11,50634.75,15362.0,65996.75,10,Long
2023-07-12,50634.75,17434.5,68069.25,10,Long
2023-07-13,50634.75,19839.5,70474.25,10,Long
2023-07-14,50634.75,19639.5,70274.25,10,Long
2023-07-16,50634.75,19384.5,70019.25,10,Long
2023-07-17,50634.75,20897.0,71531.75,10,Long
2023-07-18,50634.75,22327.0,72961.75,10,Long
2023-07-19,50634.75,21284.5,71919.25,10,Long
2023-07-20,50634.75,18514.5,69149.25,10,Long
2023-07-21,50634.75,18264.5,68899.25,10,Long
2023-07-23,50634.75,18207.0,68841.75,10,Long
2023-07-24,50634.75,18389.5,69024.25,10,Long
2023-07-25,50634.75,19092.0,69726.75,10,Long
2023-07-26,50634.75,19247.0,69881.75,10,Long
2023-07-27,50634.75,18579.5,69214.25,10,Long
2023-07-28,50634.75,21169.5,71804.25,10,Long
2023-07-30,50634.75,21587.0,72221.75,10,Long
2023-07-31,50634.75,21317.0,71951.75,10,Long
2023-08-01,50634.75,20244.5,70879.25,10,Long
2023-08-02,50634.75,17634.5,68269.25,10,Long
2023-08-03,50634.75,17527.0,68161.75,10,Long
2023-08-04,68159.25,0.0,68159.25,0,
2023-08-06,68159.25,0.0,68159.25,0,
2023-08-07,68159.25,0.0,68159.25,0,
2023-08-08,68159.25,0.0,68159.25,0,
2023-08-09,68159.25,0.0,68159.25,0,
2023-08-10,68159.25,0.0,68159.25,0,
2023-08-11,68159.25,0.0,68159.25,0,
2023-08-13,68159.25,0.0,68159.25,0,
2023-08-14,68159.25,0.0,68159.25,0,
2023-08-15,68159.25,0.0,68159.25,0,
2023-08-16,68159.25,0.0,68159.25,0,
2023-08-17,68159.25,0.0,68159.25,0,
2023-08-18,68159.25,0.0,68159.25,0,
2023-08-20,68159.25,0.0,68159.25,0,
2023-08-21,68159.25,0.0,68159.25,0,
2023-08-22,68159.25,0.0,68159.25,0,
2023-08-23,68159.25,0.0,68159.25,0,
2023-08-24,68159.25,0.0,68159.25,0,
2023-08-25,68159.25,0.0,68159.25,0,
2023-08-27,68159.25,0.0,68159.25,0,
2023-08-28,68159.25,0.0,68159.25,0,
2023-08-29,68159.25,0.0,68159.25,0,
2023-08-30,68159.25,204.75,68364.0,3,Long
2023-08-31,68159.25,305.25,68464.5,3,Long
2023-09-01,68159.25,233.25,68392.5,3,Long
2023-09-03,68159.25,246.0,68405.25,3,Long
2023-09-04,68159.25,274.5,68433.75,3,Long
2023-09-05,68159.25,261.75,68421.0,3,Long
2023-09-06,68159.25,-130.5,68028.75,3,Long
2023-09-07,68026.5,0.0,68026.5,0,
2023-09-08,68026.5,0.0,68026.5,0,
2023-09-10,68026.5,0.0,68026.5,0,
2023-09-11,68026.5,0.0,68026.5,0,
2023-09-12,68026.5,-456.75,67569.75,3,Long
2023-09-13,68026.5,-234.75,67791.75,3,Long
2023-09-14,68026.5,57.75,68084.25,3,Long
2023-09-15,68026.5,-824.25,67202.25,3,Long
2023-09-17,67203.75,0.0,67203.75,0,
2023-09-18,67203.75,0.0,67203.75,0,
2023-09-19,67203.75,0.0,67203.75,0,
2023-09-20,67203.75,0.0,67203.75,0,
2023-09-21,67203.75,0.0,67203.75,0,
2023-09-22,67203.75,0.0,67203.75,0,
2023-09-24,67203.75,0.0,67203.75,0,
2023-09-25,67203.75,0.0,67203.75,0,
2023-09-26,67203.75,0.0,67203.75,0,
2023-09-27,67203.75,0.0,67203.75,0,
2023-09-28,67203.75,0.0,67203.75,0,
2023-09-29,67203.75,0.0,67203.75,0,
2023-10-01,67203.75,0.0,67203.75,0,
2023-10-02,67203.75,0.0,67203.75,0,
2023-10-03,67203.75,0.0,67203.75,0,
2023-10-04,67203.75,0.0,67203.75,0,
2023-10-05,67203.75,0.0,67203.75,0,
2023-10-06,67203.75,0.0,67203.75,0,
2023-10-08,67203.75,0.0,67203.75,0,
2023-10-09,67203.75,0.0,67203.75,0,
2023-10-10,67203.75,0.0,67203.75,0,
2023-10-11,67203.75,0.0,67203.75,0,
2023-10-12,67203.75,-254.25,66949.5,3,Long
2023-10-13,66949.5,0.0,66949.5,0,
2023-10-15,66949.5,0.0,66949.5,0,
2023-10-16,66949.5,0.0,66949.5,0,
2023-10-17,66949.5,0.0,66949.5,0,
2023-10-18,66949.5,0.0,66949.5,0,
2023-10-19,66949.5,0.0,66949.5,0,
2023-10-20,66949.5,0.0,66949.5,0,
2023-10-22,66949.5,0.0,66949.5,0,
2023-10-23,66949.5,0.0,66949.5,0,
2023-10-24,66949.5,0.0,66949.5,0,
2023-10-25,66949.5,0.0,66949.5,0,
2023-10-26,66949.5,0.0,66949.5,0,
2023-10-27,66949.5,0.0,66949.5,0,
2023-10-29,66949.5,0.0,66949.5,0,
2023-10-30,66949.5,0.0,66949.5,0,
2023-10-31,66949.5,0.0,66949.5,0,
2023-11-01,66949.5,0.0,66949.5,0,
2023-11-02,66949.5,0.0,66949.5,0,
2023-11-03,66949.5,0.0,66949.5,0,
2023-11-05,66949.5,-33.75,66915.75,3,Long
2023-11-06,66915.75,0.0,66915.75,0,
2023-11-07,66915.75,478.5,67394.25,3,Long
2023-11-08,66915.75,447.75,67363.5,3,Long
2023-11-09,66915.75,72.0,66987.75,3,Long
2023-11-10,66915.75,1117.5,68033.25,3,Long
2023-11-12,66915.75,1054.5,67970.25,3,Long
2023-11-13,66915.75,1049.25,67965.0,3,Long
2023-11-14,66915.75,2088.0,69003.75,3,Long
2023-11-15,66915.75,1968.75,68884.5,3,Long
2023-11-16,66915.75,2031.0,68946.75,3,Long
2023-11-17,66915.75,1996.5,68912.25,4,Long
2023-11-19,66915.75,1955.5,68871.25,4,Long
2023-11-20,66915.75,2903.5,69819.25,4,Long
2023-11-21,66915.75,2317.5,69233.25,4,Long
2023-11-22,66915.75,2683.5,69599.25,4,Long
2023-11-23,66915.75,2758.5,69674.25,4,Long
2023-11-24,66915.75,2543.5,69459.25,4,Long
2023-11-26,66915.75,2445.5,69361.25,4,Long
2023-11-27,66915.75,2539.5,69455.25,4,Long
2023-11-28,66915.75,2713.5,69629.25,4,Long
2023-11-29,66915.75,2688.5,69604.25,4,Long
2023-11-30,66915.75,2358.5,69274.25,4,Long
2023-12-01,66915.75,2637.25,69553.0,5,Long
2023-12-03,66915.75,2442.25,69358.0,5,Long
2023-12-04,66915.75,1729.75,68645.5,5,Long
2023-12-05,66915.75,2122.25,69038.0,5,Long
2023-12-06,66915.75,1564.75,68480.5,5,Long
2023-12-07,66915.75,2582.25,69498.0,5,Long
2023-12-08,66915.75,2944.75,69860.5,5,Long
2023-12-10,66915.75,3004.75,69920.5,5,Long
2023-12-11,66915.75,4756.0,71671.75,5,Long
2023-12-12,66915.75,5529.75,72445.5,5,Long
2023-12-13,66915.75,6562.25,73478.0,5,Long
2023-12-14,66915.75,6284.75,73200.5,5,Long
2023-12-15,66915.75,6543.25,73459.0,6,Long
2023-12-17,66915.75,6589.75,73505.5,6,Long
2023-12-18,66915.75,7192.75,74108.5,6,Long
2023-12-19,66915.75,7813.75,74729.5,6,Long
2023-12-20,66915.75,6517.75,73433.5,6,Long
2023-12-21,66915.75,7299.25,74215.0,6,Long
2023-12-22,66915.75,7422.25,74338.0,6,Long
2023-12-25,66915.75,7671.25,74587.0,6,Long
2023-12-26,66915.75,8184.25,75100.0,6,Long
2023-12-27,66915.75,8377.75,75293.5,6,Long
2023-12-28,66915.75,8251.75,75167.5,6,Long
2023-12-29,66915.75,7657.75,74573.5,7,Long
2024-01-01,66915.75,7838.0,74753.75,7,Long
2024-01-02,66915.75,5701.25,72617.0,7,Long
2024-01-03,72618.75,0.0,72618.75,0,
2024-01-04,72618.75,0.0,72618.75,0,
2024-01-05,72618.75,0.0,72618.75,0,
2024-01-07,72618.75,0.0,72618.75,0,
2024-01-08,72618.75,0.0,72618.75,0,
2024-01-09,72618.75,0.0,72618.75,0,
2024-01-10,72618.75,0.0,72618.75,0,
2024-01-11,72618.75,0.0,72618.75,0,
2024-01-12,72618.75,0.0,72618.75,0,
2024-01-14,72618.75,0.0,72618.75,0,
2024-01-15,72618.75,0.0,72618.75,0,
2024-01-16,72618.75,0.0,72618.75,0,
2024-01-17,72618.75,-376.5,72242.25,3,Long
2024-01-18,72242.25,0.0,72242.25,0,
2024-01-19,72242.25,945.0,73187.25,3,Long
2024-01-21,72242.25,1006.5,73248.75,3,Long
2024-01-22,72242.25,948.75,73191.0,3,Long
2024-01-23,72242.25,1283.25,73525.5,3,Long
2024-01-24,72242.25,1406.25,73648.5,3,Long
2024-01-25,72242.25,1182.75,73425.0,3,Long
2024-01-26,72242.25,1069.5,73311.75,3,Long
2024-01-28,72242.25,994.5,73236.75,3,Long
2024-01-29,72242.25,1721.25,73963.5,3,Long
2024-01-30,72242.25,900.0,73142.25,3,Long
2024-01-31,72242.25,402.75,72645.0,3,Long
2024-02-01,72242.25,1335.75,73578.0,3,Long
2024-02-02,72242.25,1548.0,73790.25,4,Long
2024-02-04,72242.25,1634.0,73876.25,4,Long
2024-02-05,72242.25,1589.0,73831.25,4,Long
2024-02-06,72242.25,1412.0,73654.25,4,Long
2024-02-07,72242.25,2174.0,74416.25,4,Long
2024-02-08,72242.25,2273.0,74515.25,4,Long
2024-02-09,72242.25,2955.0,75197.25,4,Long
2024-02-11,72242.25,2944.0,75186.25,4,Long
2024-02-12,72242.25,2553.0,74795.25,4,Long
2024-02-13,72242.25,1565.0,73807.25,4,Long
2024-02-14,72242.25,2319.0,74561.25,4,Long
2024-02-15,72242.25,2614.0,74856.25,4,Long
2024-02-16,72242.25,1679.25,73921.5,5,Long
2024-02-18,72242.25,1960.5,74202.75,5,Long
2024-02-19,72242.25,1814.25,74056.5,5,Long
2024-02-20,72242.25,914.25,73156.5,5,Long
2024-02-21,72242.25,1593.0,73835.25,5,Long
2024-02-22,72242.25,3280.5,75522.75,5,Long
2024-02-23,72242.25,2878.0,75120.25,5,Long
2024-02-25,72242.25,2985.5,75227.75,5,Long
2024-02-26,72242.25,2888.0,75130.25,5,Long
2024-02-27,72242.25,3098.0,75340.25,5,Long
2024-02-28,72242.25,2421.75,74664.0,5,Long
2024-02-29,72242.25,3370.5,75612.75,5,Long
2024-03-01,72242.25,4656.75,76899.0,6,Long
2024-03-03,72242.25,4788.75,77031.0,6,Long
2024-03-04,72242.25,4067.25,76309.5,6,Long
2024-03-05,72242.25,2502.75,74745.0,6,Long
2024-03-06,72242.25,2838.75,75081.0,6,Long
2024-03-07,72242.25,4325.25,76567.5,6,Long
2024-03-08,72242.25,3059.25,75301.5,6,Long
2024-03-10,72242.25,2984.25,75226.5,6,Long
2024-03-11,72242.25,4491.75,76734.0,6,Long
2024-03-12,72242.25,5598.75,77841.0,6,Long
2024-03-13,72242.25,4965.75,77208.0,6,Long
2024-03-14,72242.25,4158.75,76401.0,6,Long
2024-03-15,72242.25,3102.75,75345.0,7,Long
2024-03-17,72242.25,3211.25,75453.5,7,Long
2024-03-18,72242.25,3998.75,76241.0,7,Long
2024-03-19,72242.25,4537.75,76780.0,7,Long
2024-03-20,72242.25,6709.5,78951.75,7,Long
2024-03-21,72242.25,6781.25,79023.5,7,Long
2024-03-22,72242.25,6606.25,78848.5,7,Long
2024-03-24,72242.25,6760.25,79002.5,7,Long
2024-03-25,72242.25,6441.75,78684.0,7,Long
2024-03-26,72242.25,6083.0,78325.25,7,Long
2024-03-27,72242.25,6020.0,78262.25,7,Long
2024-03-28,72242.25,5915.0,78157.25,7,Long
2024-03-31,72242.25,6917.75,79160.0,7,Long
2024-04-01,72242.25,5950.0,78192.25,7,Long
2024-04-02,72242.25,4957.75,77200.0,7,Long
2024-04-03,72242.25,5778.5,78020.75,7,Long
2024-04-04,72242.25,3298.75,75541.0,7,Long
2024-04-05,72242.25,4847.25,77089.5,8,Long
2024-04-07,72242.25,4915.25,77157.5,8,Long
2024-04-08,72242.25,4777.25,77019.5,8,Long
2024-04-09,72242.25,5307.25,77549.5,8,Long
2024-04-10,72242.25,3631.25,75873.5,8,Long
2024-04-11,72242.25,6285.25,78527.5,8,Long
2024-04-12,72242.25,3735.25,75977.5,8,Long
2024-04-14,72242.25,4265.25,76507.5,8,Long
2024-04-15,76509.5,0.0,76509.5,0,
2024-04-16,76509.5,0.0,76509.5,0,
2024-04-17,76509.5,0.0,76509.5,0,
2024-04-18,76509.5,0.0,76509.5,0,
2024-04-19,76509.5,0.0,76509.5,0,
2024-04-21,76509.5,0.0,76509.5,0,
2024-04-22,76509.5,0.0,76509.5,0,
2024-04-23,76509.5,0.0,76509.5,0,
2024-04-24,76509.5,0.0,76509.5,0,
2024-04-25,76509.5,0.0,76509.5,0,
2024-04-26,76509.5,0.0,76509.5,0,
2024-04-28,76509.5,0.0,76509.5,0,
2024-04-29,76509.5,0.0,76509.5,0,
2024-04-30,76509.5,0.0,76509.5,0,
2024-05-01,76509.5,0.0,76509.5,0,
2024-05-02,76509.5,0.0,76509.5,0,
2024-05-03,76509.5,0.0,76509.5,0,
2024-05-05,76509.5,0.0,76509.5,0,
2024-05-06,76509.5,0.0,76509.5,0,
2024-05-07,76509.5,61.5,76571.0,3,Long
2024-05-08,76509.5,-66.0,76443.5,3,Long
2024-05-09,76442.75,0.0,76442.75,0,
2024-05-10,76442.75,23.25,76466.0,3,Long
2024-05-12,76442.75,41.25,76484.0,3,Long
2024-05-13,76442.75,156.0,76598.75,3,Long
2024-05-14,76442.75,555.75,76998.5,3,Long
2024-05-15,76442.75,1467.75,77910.5,3,Long
2024-05-16,76442.75,1258.5,77701.25,3,Long
2024-05-17,76442.75,1206.0,77648.75,3,Long
2024-05-19,76442.75,1305.75,77748.5,3,Long
2024-05-20,76442.75,1560.0,78002.75,3,Long
2024-05-21,76442.75,1745.25,78188.0,3,Long
2024-05-22,76442.75,1929.0,78371.75,3,Long
2024-05-23,76442.75,1407.75,77850.5,3,Long
2024-05-24,76442.75,1932.75,78375.5,4,Long
2024-05-26,76442.75,1791.75,78234.5,4,Long
2024-05-27,76442.75,2078.75,78521.5,4,Long
2024-05-28,76442.75,2165.75,78608.5,4,Long
2024-05-29,76442.75,1339.75,77782.5,4,Long
2024-05-30,76442.75,681.75,77124.5,4,Long
2024-05-31,76442.75,732.75,77175.5,4,Long
2024-06-02,76442.75,813.75,77256.5,4,Long
2024-06-03,76442.75,1047.75,77490.5,4,Long
2024-06-04,76442.75,1396.75,77839.5,4,Long
2024-06-05,76442.75,2810.75,79253.5,4,Long
2024-06-06,76442.75,2745.75,79188.5,4,Long
2024-06-07,76442.75,2563.75,79006.5,5,Long
2024-06-09,76442.75,2543.75,78986.5,5,Long
2024-06-10,76442.75,2832.5,79275.25,5,Long
2024-06-11,76442.75,3692.5,80135.25,5,Long
2024-06-12,76442.75,5410.0,81852.75,5,Long
2024-06-13,76442.75,5501.25,81944.0,5,Long
2024-06-14,76442.75,5890.0,82332.75,5,Long
2024-06-16,76442.75,5966.25,82409.0,5,Long
2024-06-17,76442.75,8433.75,84876.5,5,Long
2024-06-18,76442.75,8525.0,84967.75,5,Long
2024-06-19,76442.75,8588.75,85031.5,5,Long
2024-06-20,76442.75,7756.25,84199.0,5,Long
2024-06-21,76442.75,7473.25,83916.0,6,Long
2024-06-23,76442.75,7468.75,83911.5,6,Long
2024-06-24,76442.75,6049.75,82492.5,6,Long
2024-06-25,76442.75,7213.75,83656.5,6,Long
2024-06-26,76442.75,6931.75,83374.5,6,Long
2024-06-27,76442.75,7992.25,84435.0,6,Long
2024-06-28,76442.75,7221.25,83664.0,6,Long
2024-06-30,76442.75,7095.25,83538.0,6,Long
2024-07-01,76442.75,7533.25,83976.0,6,Long
2024-07-02,76442.75,8845.75,85288.5,6,Long
2024-07-03,76442.75,9832.75,86275.5,6,Long
2024-07-04,76442.75,9762.25,86205.0,6,Long
2024-07-05,76442.75,10924.0,87366.75,7,Long
2024-07-07,76442.75,10925.75,87368.5,7,Long
2024-07-08,76442.75,11960.0,88402.75,7,Long
2024-07-09,76442.75,11674.75,88117.5,7,Long
2024-07-10,76442.75,12961.0,89403.75,7,Long
2024-07-11,76442.75,9693.75,86136.5,7,Long
2024-07-12,76442.75,10570.5,87013.25,7,Long
2024-07-14,76442.75,10712.25,87155.0,7,Long
2024-07-15,76442.75,11214.5,87657.25,7,Long
2024-07-16,76442.75,10749.0,87191.75,7,Long
2024-07-17,87191.75,0.0,87191.75,0,
2024-07-18,87191.75,0.0,87191.75,0,
2024-07-19,87191.75,0.0,87191.75,0,
2024-07-21,87191.75,0.0,87191.75,0,
2024-07-22,87191.75,0.0,87191.75,0,
2024-07-23,87191.75,0.0,87191.75,0,
2024-07-24,87191.75,0.0,87191.75,0,
2024-07-25,87191.75,0.0,87191.75,0,
2024-07-26,87191.75,0.0,87191.75,0,
2024-07-28,87191.75,0.0,87191.75,0,
2024-07-29,87191.75,0.0,87191.75,0,
2024-07-30,87191.75,0.0,87191.75,0,
2024-07-31,87191.75,0.0,87191.75,0,
2024-08-01,87191.75,0.0,87191.75,0,
2024-08-02,87191.75,0.0,87191.75,0,
2024-08-04,87191.75,0.0,87191.75,0,
2024-08-05,87191.75,0.0,87191.75,0,
2024-08-06,87191.75,0.0,87191.75,0,
2024-08-07,87191.75,0.0,87191.75,0,
2024-08-08,87191.75,0.0,87191.75,0,
2024-08-09,87191.75,0.0,87191.75,0,
2024-08-11,87191.75,0.0,87191.75,0,
2024-08-12,87191.75,0.0,87191.75,0,
2024-08-13,87191.75,0.0,87191.75,0,
2024-08-14,87191.75,-30.0,87161.75,3,Long
2024-08-15,87161.0,0.0,87161.0,0,
2024-08-16,87161.0,-28.5,87132.5,3,Long
2024-08-18,87161.0,103.5,87264.5,3,Long
2024-08-19,87161.0,741.0,87902.0,3,Long
2024-08-20,87161.0,528.0,87689.0,3,Long
2024-08-21,87161.0,967.5,88128.5,3,Long
2024-08-22,87161.0,74.25,87235.25,3,Long
2024-08-23,87161.0,491.25,87652.25,3,Long
2024-08-25,87161.0,447.0,87608.0,3,Long
2024-08-26,87161.0,-128.25,87032.75,3,Long
2024-08-27,87161.0,-81.0,87080.0,3,Long
2024-08-28,87161.0,-1263.75,85897.25,3,Long
2024-08-29,87161.0,-552.0,86609.0,3,Long
2024-08-30,87161.0,-3.0,87158.0,4,Long
2024-09-01,87161.0,-35.0,87126.0,4,Long
2024-09-02,87161.0,-57.0,87104.0,4,Long
2024-09-03,87161.0,-2549.0,84612.0,4,Long
2024-09-04,84614.0,0.0,84614.0,0,
2024-09-05,84614.0,0.0,84614.0,0,
2024-09-06,84614.0,0.0,84614.0,0,
2024-09-08,84614.0,0.0,84614.0,0,
2024-09-09,84614.0,0.0,84614.0,0,
2024-09-10,84614.0,0.0,84614.0,0,
2024-09-11,84614.0,0.0,84614.0,0,
2024-09-12,84614.0,0.0,84614.0,0,
2024-09-13,84614.0,0.0,84614.0,0,
2024-09-15,84614.0,120.75,84734.75,3,Long
2024-09-16,84614.0,524.25,85138.25,3,Long
2024-09-17,84614.0,621.75,85235.75,3,Long
2024-09-18,84614.0,795.75,85409.75,3,Long
2024-09-19,84614.0,1653.0,86267.0,3,Long
2024-09-20,84614.0,1548.75,86162.75,3,Long
2024-09-22,84614.0,1692.0,86306.0,3,Long
2024-09-23,84614.0,1710.75,86324.75,3,Long
2024-09-24,84614.0,2044.5,86658.5,3,Long
2024-09-25,84614.0,2338.5,86952.5,3,Long
2024-09-26,84614.0,2537.25,87151.25,3,Long
2024-09-27,84614.0,2066.0,86680.0,4,Long
2024-09-29,84614.0,2382.0,86996.0,4,Long
2024-09-30,84614.0,2282.0,86896.0,4,Long
2024-10-01,84614.0,1022.0,85636.0,4,Long
2024-10-02,84614.0,1511.0,86125.0,4,Long
2024-10-03,84614.0,1224.0,85838.0,4,Long
2024-10-04,84614.0,2105.0,86719.0,4,Long
2024-10-06,84614.0,2214.0,86828.0,4,Long
2024-10-07,84614.0,1224.0,85838.0,4,Long
2024-10-08,84614.0,2384.0,86998.0,4,Long
2024-10-09,84614.0,3093.0,87707.0,4,Long
2024-10-10,84614.0,3098.0,87712.0,4,Long
2024-10-11,84614.0,2879.5,87493.5,5,Long
2024-10-13,84614.0,2953.25,87567.25,5,Long
2024-10-14,84614.0,3977.0,88591.0,5,Long
2024-10-15,84614.0,2577.0,87191.0,5,Long
2024-10-16,84614.0,2387.0,87001.0,5,Long
2024-10-17,84614.0,2843.25,87457.25,5,Long
2024-10-18,84614.0,3239.5,87853.5,5,Long
2024-10-20,84614.0,3385.75,87999.75,5,Long
2024-10-21,84614.0,3397.0,88011.0,5,Long
2024-10-22,84614.0,3465.75,88079.75,5,Long
2024-10-23,84614.0,2268.25,86882.25,5,Long
2024-10-24,84614.0,2723.25,87337.25,5,Long
2024-10-25,84614.0,3162.0,87776.0,6,Long
2024-10-27,84614.0,3889.5,88503.5,6,Long
2024-10-28,84614.0,3346.5,87960.5,6,Long
2024-10-29,84614.0,4786.5,89400.5,6,Long
2024-10-30,84614.0,2857.5,87471.5,6,Long
2024-10-31,84614.0,742.5,85356.5,6,Long
2024-11-01,84614.0,1315.5,85929.5,6,Long
2024-11-03,84614.0,1108.5,85722.5,6,Long
2024-11-04,84614.0,828.0,85442.0,6,Long
2024-11-05,84614.0,2362.5,86976.5,6,Long
2024-11-06,84614.0,5644.5,90258.5,6,Long
2024-11-07,84614.0,7659.0,92273.0,6,Long
2024-11-08,84614.0,7669.5,92283.5,7,Long
2024-11-10,84614.0,8208.5,92822.5,7,Long
2024-11-11,84614.0,7592.5,92206.5,7,Long
2024-11-12,84614.0,7200.5,91814.5,7,Long
2024-11-13,84614.0,7242.5,91856.5,7,Long
2024-11-14,84614.0,5727.0,90341.0,7,Long
2024-11-15,84614.0,2605.0,87219.0,7,Long
2024-11-17,84614.0,3058.25,87672.25,7,Long
2024-11-18,84614.0,3436.25,88050.25,7,Long
2024-11-19,84614.0,4561.5,89175.5,7,Long
2024-11-20,84614.0,4348.0,88962.0,7,Long
2024-11-21,84614.0,4495.0,89109.0,7,Long
2024-11-22,84614.0,5272.0,89886.0,8,Long
2024-11-24,84614.0,5730.0,90344.0,8,Long
2024-11-25,84614.0,4918.0,89532.0,8,Long
2024-11-26,84614.0,6130.0,90744.0,8,Long
2024-11-27,84614.0,4830.0,89444.0,8,Long
2024-11-28,84614.0,5346.0,89960.0,8,Long
2024-11-29,84614.0,6176.0,90790.0,8,Long
2024-12-01,84614.0,5960.0,90574.0,8,Long
2024-12-02,84614.0,7954.0,92568.0,8,Long
2024-12-03,84614.0,8906.0,93520.0,8,Long
2024-12-04,84614.0,10326.0,94940.0,8,Long
2024-12-05,84614.0,9890.0,94504.0,8,Long
2024-12-06,84614.0,11307.0,95921.0,9,Long
2024-12-08,84614.0,11520.75,96134.75,9,Long
2024-12-09,84614.0,9790.5,94404.5,9,Long
2024-12-10,84614.0,9457.5,94071.5,9,Long
2024-12-11,84614.0,12425.25,97039.25,9,Long
2024-12-12,84614.0,12301.5,96915.5,9,Long
2024-12-13,84614.0,12445.5,97059.5,9,Long
2024-12-15,84614.0,12704.25,97318.25,9,Long
2024-12-16,84614.0,15492.0,100106.0,9,Long
2024-12-17,84614.0,17069.25,101683.25,9,Long
2024-12-18,101683.25,0.0,101683.25,0,
2024-12-19,101683.25,0.0,101683.25,0,
2024-12-20,101683.25,0.0,101683.25,0,
2024-12-22,101683.25,0.0,101683.25,0,
2024-12-23,101683.25,0.0,101683.25,0,
2024-12-24,101683.25,0.0,101683.25,0,
2024-12-25,101683.25,0.0,101683.25,0,
2024-12-26,101683.25,0.0,101683.25,0,
2024-12-27,101683.25,0.0,101683.25,0,
2024-12-29,101683.25,0.0,101683.25,0,
2024-12-30,101683.25,0.0,101683.25,0,
2024-12-31,101683.25,0.0,101683.25,0,
2025-01-01,101683.25,0.0,101683.25,0,
2025-01-02,101683.25,0.0,101683.25,0,
2025-01-03,101683.25,0.0,101683.25,0,
2025-01-05,101683.25,0.0,101683.25,0,
2025-01-06,101683.25,0.0,101683.25,0,
2025-01-07,101683.25,0.0,101683.25,0,
2025-01-08,101683.25,0.0,101683.25,0,
2025-01-09,101683.25,0.0,101683.25,0,
2025-01-10,101683.25,0.0,101683.25,0,
2025-01-12,101683.25,0.0,101683.25,0,
2025-01-13,101683.25,0.0,101683.25,0,
2025-01-14,101683.25,0.0,101683.25,0,
2025-01-15,101683.25,0.0,101683.25,0,
2025-01-16,101683.25,0.0,101683.25,0,
2025-01-17,101683.25,0.0,101683.25,0,
2025-01-19,101683.25,0.0,101683.25,0,
2025-01-20,101683.25,0.0,101683.25,0,
2025-01-21,101683.25,0.0,101683.25,0,
2025-01-22,101683.25,0.0,101683.25,0,
2025-01-23,101683.25,135.75,101819.0,3,Long
2025-01-24,101683.25,-171.0,101512.25,3,Long
2025-01-26,101108.0,0.0,101108.0,0,
2025-01-27,101108.0,0.0,101108.0,0,
2025-01-28,101108.0,0.0,101108.0,0,
2025-01-29,101108.0,0.0,101108.0,0,
2025-01-30,101108.0,0.0,101108.0,0,
2025-01-31,101108.0,0.0,101108.0,0,
2025-02-02,101108.0,0.0,101108.0,0,
2025-02-03,101108.0,0.0,101108.0,0,
2025-02-04,101108.0,0.0,101108.0,0,
2025-02-05,101108.0,0.0,101108.0,0,
2025-02-06,101108.0,0.0,101108.0,0,
2025-02-07,101108.0,0.0,101108.0,0,
2025-02-09,101108.0,0.0,101108.0,0,
2025-02-10,101108.0,0.0,101108.0,0,
2025-02-11,101108.0,0.0,101108.0,0,
2025-02-12,101108.0,0.0,101108.0,0,
2025-02-13,101108.0,0.0,101108.0,0,
2025-02-14,101108.0,354.75,101462.75,3,Long
2025-02-16,101108.0,380.25,101488.25,3,Long
2025-02-17,101108.0,407.25,101515.25,3,Long
2025-02-18,101108.0,497.25,101605.25,3,Long
2025-02-19,101108.0,398.25,101506.25,3,Long
2025-02-20,101108.0,230.25,101338.25,3,Long
2025-02-21,101108.0,-1275.75,99832.25,3,Long
2025-02-23,99956.0,0.0,99956.0,0,
2025-02-24,99956.0,0.0,99956.0,0,
2025-02-25,99956.0,0.0,99956.0,0,
2025-02-26,99956.0,0.0,99956.0,0,
2025-02-27,99956.0,0.0,99956.0,0,
2025-02-28,99956.0,0.0,99956.0,0,
2025-03-02,99956.0,0.0,99956.0,0,
2025-03-03,99956.0,0.0,99956.0,0,
2025-03-04,99956.0,0.0,99956.0,0,
2025-03-05,99956.0,0.0,99956.0,0,
2025-03-06,99956.0,0.0,99956.0,0,
2025-03-07,99956.0,0.0,99956.0,0,
2025-03-09,99956.0,0.0,99956.0,0,
2025-03-10,99956.0,0.0,99956.0,0,
2025-03-11,99956.0,0.0,99956.0,0,
2025-03-12,99956.0,0.0,99956.0,0,
2025-03-13,99956.0,0.0,99956.0,0,
2025-03-14,99956.0,0.0,99956.0,0,
2025-03-16,99956.0,0.0,99956.0,0,
2025-03-17,99956.0,0.0,99956.0,0,
2025-03-18,99956.0,0.0,99956.0,0,
2025-03-19,99956.0,0.0,99956.0,0,
2025-03-20,99956.0,0.0,99956.0,0,
2025-03-21,99956.0,0.0,99956.0,0,
2025-03-23,99956.0,0.0,99956.0,0,
2025-03-24,99956.0,0.0,99956.0,0,
2025-03-25,99956.0,0.0,99956.0,0,
2025-03-26,99956.0,0.0,99956.0,0,
2025-03-27,99956.0,0.0,99956.0,0,
2025-03-28,99956.0,0.0,99956.0,0,
2025-03-30,99956.0,0.0,99956.0,0,
2025-03-31,99956.0,0.0,99956.0,0,
2025-04-01,99956.0,0.0,99956.0,0,
2025-04-02,99956.0,0.0,99956.0,0,
2025-04-03,99956.0,0.0,99956.0,0,
2025-04-04,99956.0,0.0,99956.0,0,
2025-04-06,99956.0,0.0,99956.0,0,
2025-04-07,99956.0,0.0,99956.0,0,
2025-04-08,99956.0,0.0,99956.0,0,
2025-04-09,99956.0,0.0,99956.0,0,
2025-04-10,99956.0,-2868.0,97088.0,3,Long
2025-04-11,97083.5,0.0,97083.5,0,
2025-04-13,97083.5,0.0,97083.5,0,
2025-04-14,97083.5,0.0,97083.5,0,
2025-04-15,97083.5,0.0,97083.5,0,
2025-04-16,97083.5,0.0,97083.5,0,
2025-04-17,97083.5,0.0,97083.5,0,
2025-04-20,97083.5,0.0,97083.5,0,
2025-04-21,97083.5,0.0,97083.5,0,
2025-04-22,97083.5,0.0,97083.5,0,
2025-04-23,97083.5,0.0,97083.5,0,
2025-04-24,97083.5,0.0,97083.5,0,
2025-04-25,97083.5,426.0,97509.5,3,Long
2025-04-27,97083.5,124.5,97208.0,3,Long
2025-04-28,97083.5,347.25,97430.75,3,Long
2025-04-29,97083.5,451.5,97535.0,3,Long
2025-04-30,97083.5,1512.75,98596.25,3,Long
2025-05-01,97083.5,1132.5,98216.0,3,Long
2025-05-02,97083.5,2363.25,99446.75,3,Long
2025-05-04,97083.5,2017.5,99101.0,3,Long
2025-05-05,97083.5,1787.25,98870.75,3,Long
2025-05-06,97083.5,1964.25,99047.75,3,Long
2025-05-07,97083.5,1618.5,98702.0,3,Long
2025-05-08,97083.5,2179.5,99263.0,3,Long
2025-05-09,97083.5,2205.25,99288.75,4,Long
2025-05-11,97083.5,3431.25,100514.75,4,Long
2025-05-12,97083.5,5253.25,102336.75,4,Long
2025-05-13,97083.5,6788.25,103871.75,4,Long
2025-05-14,97083.5,7121.25,104204.75,4,Long
2025-05-15,97083.5,7278.25,104361.75,4,Long
2025-05-16,97083.5,7236.25,104319.75,4,Long
2025-05-18,97083.5,7145.25,104228.75,4,Long
2025-05-19,97083.5,7778.25,104861.75,4,Long
2025-05-20,97083.5,7346.25,104429.75,4,Long
2025-05-21,97083.5,6208.25,103291.75,4,Long
2025-05-22,97083.5,6334.25,103417.75,4,Long
2025-05-23,97083.5,5369.75,102453.25,5,Long
2025-05-25,97083.5,6547.25,103630.75,5,Long
2025-05-26,97083.5,6783.5,103867.0,5,Long
2025-05-27,97083.5,7956.0,105039.5,5,Long
2025-05-28,97083.5,9433.5,106517.0,5,Long
2025-05-29,97083.5,7188.5,104272.0,5,Long
2025-05-30,97083.5,7448.5,104532.0,5,Long
2025-06-01,97083.5,7121.0,104204.5,5,Long
2025-06-02,97083.5,8077.25,105160.75,5,Long
2025-06-03,97083.5,9129.75,106213.25,5,Long
2025-06-04,97083.5,9309.75,106393.25,5,Long
2025-06-05,97083.5,8333.5,105417.0,5,Long
2025-06-06,97083.5,9662.0,106745.5,6,Long
2025-06-08,97083.5,9374.0,106457.5,6,Long
2025-06-09,97083.5,9795.5,106879.0,6,Long
2025-06-10,97083.5,10532.0,107615.5,6,Long
2025-06-11,97083.5,9834.5,106918.0,6,Long
2025-06-12,97083.5,9507.5,106591.0,6,Long
2025-06-13,97083.5,8727.5,105811.0,6,Long
2025-06-15,97083.5,8927.0,106010.5,6,Long
2025-06-16,97083.5,10898.0,107981.5,6,Long
2025-06-17,97083.5,10236.5,107320.0,6,Long
2025-06-18,97083.5,10496.0,107579.5,6,Long
2025-06-19,97083.5,10125.5,107209.0,6,Long
2025-06-20,97083.5,10114.0,107197.5,7,Long
2025-06-22,97083.5,9321.25,106404.75,7,Long
2025-06-23,97083.5,12649.75,109733.25,7,Long
2025-06-24,97083.5,13965.75,111049.25,7,Long
2025-06-25,97083.5,14251.0,111334.5,7,Long
2025-06-26,97083.5,15740.25,112823.75,7,Long
2025-06-27,97083.5,16177.75,113261.25,7,Long
2025-06-29,97083.5,16716.75,113800.25,7,Long
2025-06-30,97083.5,17166.5,114250.0,7,Long
2025-07-01,97083.5,15953.75,113037.25,7,Long
2025-07-02,97083.5,16935.5,114019.0,7,Long
2025-07-03,97083.5,18239.25,115322.75,7,Long
2025-07-04,97083.5,17327.5,114411.0,8,Long
2025-07-06,97083.5,17961.5,115045.0,8,Long
2025-07-07,97083.5,17083.5,114167.0,8,Long
2025-07-08,97083.5,17301.5,114385.0,8,Long
2025-07-09,97083.5,18371.5,115455.0,8,Long
2025-07-10,97083.5,18447.5,115531.0,8,Long
2025-07-11,97083.5,17589.5,114673.0,8,Long
2025-07-13,97083.5,17023.5,114107.0,8,Long
2025-07-14,97083.5,18183.5,115267.0,8,Long
2025-07-15,97083.5,18205.5,115289.0,8,Long
2025-07-16,97083.5,18415.5,115499.0,8,Long
2025-07-17,97083.5,20333.5,117417.0,8,Long
2025-07-18,97083.5,19936.75,117020.25,9,Long
2025-07-20,97083.5,20218.0,117301.5,9,Long
2025-07-21,97083.5,20996.5,118080.0,9,Long
2025-07-22,97083.5,20233.75,117317.25,9,Long
2025-07-23,97083.5,21487.0,118570.5,9,Long
2025-07-24,97083.5,21534.25,118617.75,9,Long
2025-07-25,97083.5,21903.25,118986.75,9,Long
2025-07-27,97083.5,22686.25,119769.75,9,Long
2025-07-28,97083.5,22634.5,119718.0,9,Long
2025-07-29,97083.5,22150.75,119234.25,9,Long
2025-07-30,97083.5,24403.0,121486.5,9,Long
2025-07-31,97083.5,20555.5,117639.0,9,Long
2025-08-01,117645.75,0.0,117645.75,0,
2025-08-03,117645.75,0.0,117645.75,0,
2025-08-04,117645.75,0.0,117645.75,0,
2025-08-05,117645.75,0.0,117645.75,0,
2025-08-06,117645.75,0.0,117645.75,0,
2025-08-07,117645.75,0.0,117645.75,0,
2025-08-08,117645.75,0.0,117645.75,0,
2025-08-10,117645.75,-178.5,117467.25,3,Long
2025-08-11,117465.0,0.0,117465.0,0,
2025-08-12,117465.0,0.0,117465.0,0,
2025-08-13,117465.0,-31.5,117433.5,3,Long
2025-08-14,117465.0,-213.0,117252.0,3,Long
2025-08-15,117465.0,-489.75,116975.25,3,Long
2025-08-17,117465.0,-326.25,117138.75,3,Long
2025-08-18,117465.0,-465.0,117000.0,3,Long
2025-08-19,117465.0,-1613.25,115851.75,3,Long
2025-08-20,115854.0,0.0,115854.0,0,
2025-08-21,115854.0,0.0,115854.0,0,
2025-08-22,115854.0,0.0,115854.0,0,
2025-08-24,115854.0,0.0,115854.0,0,
2025-08-25,115854.0,0.0,115854.0,0,
2025-08-26,115854.0,0.0,115854.0,0,
2025-08-27,115854.0,0.0,115854.0,0,
2025-08-28,115854.0,0.0,115854.0,0,
2025-08-29,115854.0,0.0,115854.0,0,
2025-08-31,115854.0,0.0,115854.0,0,
2025-09-01,115854.0,0.0,115854.0,0,
2025-09-02,115854.0,0.0,115854.0,0,
2025-09-03,115854.0,0.0,115854.0,0,
2025-09-04,115854.0,0.0,115854.0,0,
2025-09-05,115854.0,0.0,115854.0,0,
2025-09-07,115854.0,0.0,115854.0,0,
2025-09-08,115854.0,87.75,115941.75,3,Long
2025-09-09,115854.0,323.25,116177.25,3,Long
2025-09-10,115854.0,368.25,116222.25,3,Long
2025-09-11,115854.0,723.75,116577.75,3,Long
2025-09-12,115854.0,1009.5,116863.5,3,Long
2025-09-14,115854.0,999.0,116853.0,3,Long
2025-09-15,115854.0,1581.0,117435.0,3,Long
2025-09-16,115854.0,2295.0,118149.0,3,Long
2025-09-17,115854.0,2418.0,118272.0,3,Long
2025-09-18,115854.0,2886.0,118740.0,3,Long
2025-09-19,115854.0,3267.0,119121.0,4,Long
2025-09-21,115854.0,3227.0,119081.0,4,Long
2025-09-22,115854.0,3812.0,119666.0,4,Long
2025-09-23,115854.0,3185.0,119039.0,4,Long
2025-09-24,115854.0,2845.0,118699.0,4,Long
2025-09-25,115854.0,2289.0,118143.0,4,Long
2025-09-26,115854.0,2732.0,118586.0,4,Long
2025-09-28,115854.0,2911.0,118765.0,4,Long
2025-09-29,115854.0,3118.0,118972.0,4,Long
2025-09-30,115854.0,3143.0,118997.0,4,Long
2025-10-01,115854.0,3912.0,119766.0,4,Long
2025-10-02,115854.0,4319.0,120173.0,4,Long
2025-10-03,115854.0,3710.75,119564.75,5,Long
2025-10-05,115854.0,4137.0,119991.0,5,Long
2025-10-06,115854.0,4513.25,120367.25,5,Long
2025-10-07,115854.0,3970.75,119824.75,5,Long
2025-10-08,115854.0,5698.25,121552.25,5,Long
2025-10-09,115854.0,5478.25,121332.25,5,Long
2025-10-10,121334.75,0.0,121334.75,0,
2025-10-12,121334.75,0.0,121334.75,0,
2025-10-13,121334.75,0.0,121334.75,0,
2025-10-14,121334.75,0.0,121334.75,0,
2025-10-15,121334.75,0.0,121334.75,0,
2025-10-16,121334.75,0.0,121334.75,0,
2025-10-17,121334.75,0.0,121334.75,0,
2025-10-19,121334.75,0.0,121334.75,0,
2025-10-20,121334.75,0.0,121334.75,0,
2025-10-21,121334.75,0.0,121334.75,0,
2025-10-22,121334.75,0.0,121334.75,0,
2025-10-23,121334.75,0.0,121334.75,0,
2025-10-24,121334.75,0.0,121334.75,0,
2025-10-26,121334.75,0.0,121334.75,0,
2025-10-27,121334.75,833.25,122168.0,3,Long
2025-10-28,121334.75,1401.0,122735.75,3,Long
2025-10-29,121334.75,1556.25,122891.0,3,Long
2025-10-30,121334.75,1360.5,122695.25,3,Long
2025-10-31,121334.75,800.25,122135.0,3,Long
2025-11-02,121334.75,1091.25,122426.0,3,Long
2025-11-03,121334.75,1056.0,122390.75,3,Long
2025-11-04,121334.75,-639.75,120695.0,3,Long
2025-11-05,120696.5,0.0,120696.5,0,
2025-11-06,120696.5,-1368.0,119328.5,3,Long
2025-11-07,119328.5,0.0,119328.5,0,
2025-11-09,119328.5,0.0,119328.5,0,
2025-11-10,119328.5,0.0,119328.5,0,
2025-11-11,119328.5,-275.25,119053.25,3,Long
2025-11-12,119054.0,0.0,119054.0,0,
2025-11-13,119054.0,0.0,119054.0,0,
2025-11-14,119054.0,0.0,119054.0,0,
2025-11-16,119054.0,0.0,119054.0,0,
2025-11-17,119054.0,0.0,119054.0,0,
2025-11-18,119054.0,0.0,119054.0,0,
2025-11-19,119054.0,0.0,119054.0,0,
2025-11-20,119054.0,0.0,119054.0,0,
2025-11-21,119054.0,0.0,119054.0,0,
2025-11-23,119054.0,0.0,119054.0,0,
2025-11-24,119054.0,0.0,119054.0,0,
2025-11-25,119054.0,0.0,119054.0,0,
2025-11-26,119054.0,0.0,119054.0,0,
2025-11-27,119054.0,0.0,119054.0,0,
2025-11-28,119054.0,0.0,119054.0,0,
2025-11-30,119054.0,0.0,119054.0,0,
2025-12-01,119054.0,0.0,119054.0,0,
2025-12-02,119054.0,0.0,119054.0,0,
2025-12-03,119054.0,0.0,119054.0,0,
2025-12-04,119054.0,0.0,119054.0,0,
2025-12-05,119054.0,0.0,119054.0,0,
2025-12-07,119054.0,0.0,119054.0,0,
2025-12-08,119054.0,0.0,119054.0,0,
2025-12-09,119054.0,0.0,119054.0,0,
2025-12-10,119054.0,0.0,119054.0,0,
2025-12-11,119054.0,0.0,119054.0,0,
2025-12-12,119054.0,0.0,119054.0,0,
2025-12-14,119054.0,0.0,119054.0,0,
2025-12-15,119054.0,0.0,119054.0,0,
2025-12-16,119054.0,0.0,119054.0,0,
2025-12-17,119054.0,0.0,119054.0,0,
2025-12-18,119054.0,0.0,119054.0,0,
2025-12-19,119054.0,0.0,119054.0,0,
2025-12-21,119054.0,0.0,119054.0,0,
2025-12-22,119054.0,0.0,119054.0,0,
2025-12-23,119054.0,0.0,119054.0,0,
2025-12-24,119054.0,0.0,119054.0,0,
2025-12-25,119054.0,51.75,119105.75,3,Long
2025-12-26,119054.0,-39.0,119015.0,3,Long
2025-12-28,119051.0,0.0,119051.0,0,
2025-12-29,119051.0,0.0,119051.0,0,
2025-12-30,119051.0,0.0,119051.0,0,
2025-12-31,119051.0,0.0,119051.0,0,
2026-01-01,119051.0,0.0,119051.0,0,
2026-01-02,119051.0,0.0,119051.0,0,
2026-01-04,119051.0,0.0,119051.0,0,
2026-01-05,119051.0,0.0,119051.0,0,
2026-01-06,119051.0,0.0,119051.0,0,
2026-01-07,119051.0,0.0,119051.0,0,
2026-01-08,119051.0,0.0,119051.0,0,
2026-01-09,119051.0,0.0,119051.0,0,
2026-01-11,119051.0,-157.5,118893.5,3,Long
2026-01-12,119051.0,-152.25,118898.75,3,Long
2026-01-13,119051.0,-166.5,118884.5,3,Long
2026-01-14,119051.0,-1023.0,118028.0,3,Long
2026-01-15,118028.0,0.0,118028.0,0,
2026-01-16,118028.0,0.0,118028.0,0,
2026-01-18,118028.0,0.0,118028.0,0,
2026-01-19,118028.0,0.0,118028.0,0,
2026-01-20,118028.0,0.0,118028.0,0,
2026-01-21,118028.0,0.0,118028.0,0,
2026-01-22,118028.0,0.0,118028.0,0,
2026-01-23,118028.0,0.0,118028.0,0,
2026-01-25,118028.0,0.0,118028.0,0,
2026-01-26,118028.0,0.0,118028.0,0,
2026-01-27,118028.0,0.0,118028.0,0,
2026-01-28,118028.0,96.0,118124.0,3,Long
2026-01-29,118028.0,-498.0,117530.0,3,Long
2026-01-30,117528.5,0.0,117528.5,0,
2026-02-01,117528.5,0.0,117528.5,0,
2026-02-02,117528.5,0.0,117528.5,0,
2026-02-03,117528.5,0.0,117528.5,0,
2026-02-04,117528.5,0.0,117528.5,0,
2026-02-05,117528.5,0.0,117528.5,0,
2026-02-06,117528.5,0.0,117528.5,0,
2026-02-08,117528.5,0.0,117528.5,0,
2026-02-09,117528.5,0.0,117528.5,0,
2026-02-10,117528.5,0.0,117528.5,0,
2026-02-11,117528.5,0.0,117528.5,0,
2026-02-12,117528.5,0.0,117528.5,0,
2026-02-13,117528.5,0.0,117528.5,0,
2026-02-15,117528.5,0.0,117528.5,0,
2026-02-16,117528.5,0.0,117528.5,0,
2026-02-17,117528.5,0.0,117528.5,0,
2026-02-18,117528.5,0.0,117528.5,0,
2026-02-19,117528.5,0.0,117528.5,0,
2026-02-20,117528.5,0.0,117528.5,0,
2026-02-22,117528.5,0.0,117528.5,0,
2026-02-23,117528.5,0.0,117528.5,0,
2026-02-24,117528.5,0.0,117528.5,0,
2026-02-25,117528.5,0.0,117528.5,0,
2026-02-26,117528.5,0.0,117528.5,0,
2026-02-27,117528.5,0.0,117528.5,0,
2026-03-01,117528.5,0.0,117528.5,0,
2026-03-02,117528.5,0.0,117528.5,0,
2026-03-03,117528.5,0.0,117528.5,0,
2026-03-04,117528.5,0.0,117528.5,0,
2026-03-05,117528.5,0.0,117528.5,0,
2026-03-06,117528.5,0.0,117528.5,0,
2026-03-08,117528.5,0.0,117528.5,0,
