date,realized_points,open_unrealized_points,total_equity_points,open_units,direction
2019-05-05,0.0,0.0,0.0,0,
2019-05-06,0.0,0.0,0.0,0,
2019-05-07,0.0,0.0,0.0,0,
2019-05-08,0.0,0.0,0.0,0,
2019-05-09,0.0,0.0,0.0,0,
2019-05-10,0.0,0.0,0.0,0,
2019-05-12,0.0,0.0,0.0,0,
2019-05-13,0.0,0.0,0.0,0,
2019-05-14,0.0,0.0,0.0,0,
2019-05-15,0.0,0.0,0.0,0,
2019-05-16,0.0,0.0,0.0,0,
2019-05-17,0.0,0.0,0.0,0,
2019-05-19,0.0,0.0,0.0,0,
2019-05-20,0.0,0.0,0.0,0,
2019-05-21,0.0,0.0,0.0,0,
2019-05-22,0.0,0.0,0.0,0,
2019-05-23,0.0,0.0,0.0,0,
2019-05-24,0.0,0.0,0.0,0,
2019-05-26,0.0,0.0,0.0,0,
2019-05-27,0.0,0.0,0.0,0,
2019-05-28,0.0,0.0,0.0,0,
2019-05-29,0.0,0.0,0.0,0,
2019-05-30,0.0,0.0,0.0,0,
2019-05-31,0.0,0.0,0.0,0,
2019-06-02,0.0,0.0,0.0,0,
2019-06-03,0.0,0.0,0.0,0,
2019-06-04,0.0,0.0,0.0,0,
2019-06-05,0.0,0.0,0.0,0,
2019-06-06,0.0,0.0,0.0,0,
2019-06-07,0.0,458.25,458.25,3,Long
2019-06-09,0.0,540.0,540.0,3,Long
2019-06-10,0.0,695.25,695.25,3,Long
2019-06-11,0.0,714.75,714.75,3,Long
2019-06-12,0.0,642.0,642.0,3,Long
2019-06-13,0.0,659.25,659.25,3,Long
2019-06-14,0.0,624.75,624.75,3,Long
2019-06-16,0.0,750.75,750.75,3,Long
2019-06-17,0.0,861.0,861.0,3,Long
2019-06-18,0.0,1227.75,1227.75,3,Long
2019-06-19,0.0,1354.5,1354.5,3,Long
2019-06-20,0.0,1464.0,1464.0,3,Long
2019-06-21,0.0,1411.5,1411.5,4,Long
2019-06-23,0.0,1506.5,1506.5,4,Long
2019-06-24,0.0,1461.5,1461.5,4,Long
2019-06-25,0.0,930.5,930.5,4,Long
2019-06-26,0.0,1040.5,1040.5,4,Long
2019-06-27,0.0,1208.5,1208.5,4,Long
2019-06-28,0.0,1321.5,1321.5,4,Long
2019-06-30,0.0,1635.5,1635.5,4,Long
2019-07-01,0.0,1535.5,1535.5,4,Long
2019-07-02,0.0,1767.5,1767.5,4,Long
2019-07-03,0.0,1985.5,1985.5,4,Long
2019-07-04,0.0,2042.5,2042.5,4,Long
2019-07-05,0.0,1844.5,1844.5,5,Long
2019-07-07,0.0,1784.5,1784.5,5,Long
2019-07-08,0.0,1540.75,1540.75,5,Long
2019-07-09,0.0,1805.75,1805.75,5,Long
2019-07-10,0.0,2207.0,2207.0,5,Long
2019-07-11,0.0,2179.5,2179.5,5,Long
2019-07-12,0.0,2360.75,2360.75,5,Long
2019-07-14,0.0,2330.75,2330.75,5,Long
2019-07-15,0.0,2543.25,2543.25,5,Long
2019-07-16,0.0,2278.25,2278.25,5,Long
2019-07-17,0.0,1935.75,1935.75,5,Long
2019-07-18,0.0,2299.5,2299.5,5,Long
2019-07-19,0.0,1665.75,1665.75,6,Long
2019-07-21,0.0,1857.75,1857.75,6,Long
2019-07-22,0.0,2324.25,2324.25,6,Long
2019-07-23,0.0,2472.75,2472.75,6,Long
2019-07-24,0.0,2852.25,2852.25,6,Long
2019-07-25,0.0,2708.25,2708.25,6,Long
2019-07-26,0.0,2841.75,2841.75,6,Long
2019-07-28,0.0,2859.75,2859.75,6,Long
2019-07-29,0.0,2811.75,2811.75,6,Long
2019-07-30,0.0,2688.75,2688.75,6,Long
2019-07-31,0.0,1776.75,1776.75,6,Long
2019-08-01,0.0,1466.25,1466.25,6,Long
2019-08-02,1472.25,0.0,1472.25,0,
2019-08-04,1472.25,0.0,1472.25,0,
2019-08-05,1472.25,0.0,1472.25,0,
2019-08-06,1472.25,0.0,1472.25,0,
2019-08-07,1472.25,0.0,1472.25,0,
2019-08-08,1472.25,0.0,1472.25,0,
2019-08-09,1472.25,0.0,1472.25,0,
2019-08-11,1472.25,0.0,1472.25,0,
2019-08-12,1472.25,0.0,1472.25,0,
2019-08-13,1472.25,0.0,1472.25,0,
2019-08-14,1472.25,0.0,1472.25,0,
2019-08-15,1472.25,0.0,1472.25,0,
2019-08-16,1472.25,0.0,1472.25,0,
2019-08-18,1472.25,0.0,1472.25,0,
2019-08-19,1472.25,0.0,1472.25,0,
2019-08-20,1472.25,0.0,1472.25,0,
2019-08-21,1472.25,0.0,1472.25,0,
2019-08-22,1472.25,0.0,1472.25,0,
2019-08-23,1472.25,0.0,1472.25,0,
2019-08-25,1472.25,0.0,1472.25,0,
2019-08-26,1472.25,0.0,1472.25,0,
2019-08-27,1472.25,0.0,1472.25,0,
2019-08-28,1472.25,0.0,1472.25,0,
2019-08-29,1472.25,0.0,1472.25,0,
2019-08-30,1472.25,0.0,1472.25,0,
2019-09-01,1472.25,0.0,1472.25,0,
2019-09-02,1472.25,0.0,1472.25,0,
2019-09-03,1472.25,0.0,1472.25,0,
2019-09-04,1472.25,0.0,1472.25,0,
2019-09-05,1472.25,450.75,1923.0,3,Long
2019-09-06,1472.25,428.25,1900.5,3,Long
2019-09-08,1472.25,424.5,1896.75,3,Long
2019-09-09,1472.25,361.5,1833.75,3,Long
2019-09-10,1472.25,265.5,1737.75,3,Long
2019-09-11,1472.25,688.5,2160.75,3,Long
2019-09-12,1472.25,633.0,2105.25,3,Long
2019-09-13,1472.25,567.0,2039.25,4,Long
2019-09-15,1472.25,279.0,1751.25,4,Long
2019-09-16,1472.25,462.0,1934.25,4,Long
2019-09-17,1472.25,567.0,2039.25,4,Long
2019-09-18,1472.25,546.0,2018.25,4,Long
2019-09-19,1472.25,630.0,2102.25,4,Long
2019-09-20,1472.25,249.0,1721.25,4,Long
2019-09-22,1472.25,426.0,1898.25,4,Long
2019-09-23,1472.25,461.0,1933.25,4,Long
2019-09-24,1472.25,-69.0,1403.25,4,Long
2019-09-25,1472.25,185.0,1657.25,4,Long
2019-09-26,1472.25,29.0,1501.25,4,Long
2019-09-27,1472.25,-218.0,1254.25,4,Long
2019-09-29,1302.25,0.0,1302.25,0,
2019-09-30,1302.25,173.25,1475.5,3,Long
2019-10-01,1302.25,-4.5,1297.75,3,Long
2019-10-02,1294.75,0.0,1294.75,0,
2019-10-03,1294.75,0.0,1294.75,0,
2019-10-04,1294.75,0.0,1294.75,0,
2019-10-06,1294.75,0.0,1294.75,0,
2019-10-07,1294.75,0.0,1294.75,0,
2019-10-08,1294.75,0.0,1294.75,0,
2019-10-09,1294.75,0.0,1294.75,0,
2019-10-10,1294.75,0.0,1294.75,0,
2019-10-11,1294.75,0.0,1294.75,0,
2019-10-13,1294.75,0.0,1294.75,0,
2019-10-14,1294.75,0.0,1294.75,0,
2019-10-15,1294.75,0.0,1294.75,0,
2019-10-16,1294.75,0.0,1294.75,0,
2019-10-17,1294.75,0.0,1294.75,0,
2019-10-18,1294.75,0.0,1294.75,0,
2019-10-20,1294.75,0.0,1294.75,0,
2019-10-21,1294.75,0.0,1294.75,0,
2019-10-22,1294.75,0.0,1294.75,0,
2019-10-23,1294.75,0.0,1294.75,0,
2019-10-24,1294.75,0.0,1294.75,0,
2019-10-25,1294.75,343.5,1638.25,3,Long
2019-10-27,1294.75,399.0,1693.75,3,Long
2019-10-28,1294.75,566.25,1861.0,3,Long
2019-10-29,1294.75,405.0,1699.75,3,Long
2019-10-30,1294.75,597.75,1892.5,3,Long
2019-10-31,1294.75,496.5,1791.25,3,Long
2019-11-01,1294.75,717.0,2011.75,3,Long
2019-11-03,1294.75,758.25,2053.0,3,Long
2019-11-04,1294.75,947.25,2242.0,3,Long
2019-11-05,1294.75,867.75,2162.5,3,Long
2019-11-06,1294.75,837.75,2132.5,3,Long
2019-11-07,1294.75,939.75,2234.5,3,Long
2019-11-08,1294.75,1008.0,2302.75,4,Long
2019-11-10,1294.75,977.0,2271.75,4,Long
2019-11-11,1294.75,944.0,2238.75,4,Long
2019-11-12,1294.75,1026.0,2320.75,4,Long
2019-11-13,1294.75,1025.0,2319.75,4,Long
2019-11-14,1294.75,1054.0,2348.75,4,Long
2019-11-15,1294.75,1263.0,2557.75,4,Long
2019-11-17,1294.75,1209.0,2503.75,4,Long
2019-11-18,1294.75,1279.0,2573.75,4,Long
2019-11-19,1294.75,1239.0,2533.75,4,Long
2019-11-20,1294.75,1049.0,2343.75,4,Long
2019-11-21,1294.75,1048.0,2342.75,4,Long
2019-11-22,1294.75,1096.0,2390.75,5,Long
2019-11-24,1294.75,1219.75,2514.5,5,Long
2019-11-25,1294.75,1563.5,2858.25,5,Long
2019-11-26,1294.75,1693.5,2988.25,5,Long
2019-11-27,1294.75,1813.5,3108.25,5,Long
2019-11-28,1294.75,1932.25,3227.0,5,Long
2019-11-29,1294.75,1792.25,3087.0,5,Long
2019-12-01,1294.75,1841.0,3135.75,5,Long
2019-12-02,1294.75,1207.25,2502.0,5,Long
2019-12-03,1294.75,994.75,2289.5,5,Long
2019-12-04,1294.75,1139.75,2434.5,5,Long
2019-12-05,1294.75,1259.75,2554.5,5,Long
2019-12-06,1294.75,1702.25,2997.0,6,Long
2019-12-08,1294.75,1709.75,3004.5,6,Long
2019-12-09,1294.75,1432.25,2727.0,6,Long
2019-12-10,1294.75,1448.75,2743.5,6,Long
2019-12-11,1294.75,1771.25,3066.0,6,Long
2019-12-12,1294.75,2294.75,3589.5,6,Long
2019-12-13,1294.75,2416.25,3711.0,6,Long
2019-12-15,1294.75,2495.75,3790.5,6,Long
2019-12-16,1294.75,2875.25,4170.0,6,Long
2019-12-17,1294.75,2902.25,4197.0,6,Long
2019-12-18,1294.75,3014.75,4309.5,6,Long
2019-12-19,1294.75,3362.75,4657.5,6,Long
2019-12-20,1294.75,3544.25,4839.0,7,Long
2019-12-22,1294.75,3628.25,4923.0,7,Long
2019-12-23,1294.75,3677.25,4972.0,7,Long
2019-12-24,1294.75,3682.5,4977.25,7,Long
2019-12-25,1294.75,3684.25,4979.0,7,Long
2019-12-26,1294.75,4228.5,5523.25,7,Long
2019-12-27,1294.75,4023.75,5318.5,7,Long
2019-12-29,1294.75,4156.75,5451.5,7,Long
2019-12-30,1294.75,3717.5,5012.25,7,Long
2019-12-31,1294.75,3973.0,5267.75,7,Long
2020-01-01,1294.75,4004.5,5299.25,7,Long
2020-01-02,1294.75,4863.75,6158.5,7,Long
2020-01-03,1294.75,4244.25,5539.0,8,Long
2020-01-05,1294.75,3986.25,5281.0,8,Long
2020-01-06,1294.75,4554.25,5849.0,8,Long
2020-01-07,1294.75,3778.25,5073.0,8,Long
2020-01-08,1294.75,5378.25,6673.0,8,Long
2020-01-09,1294.75,5886.25,7181.0,8,Long
2020-01-10,1294.75,5588.25,6883.0,8,Long
2020-01-12,1294.75,5662.25,6957.0,8,Long
2020-01-13,1294.75,6602.25,7897.0,8,Long
2020-01-14,1294.75,6010.25,7305.0,8,Long
2020-01-15,1294.75,6356.25,7651.0,8,Long
2020-01-16,1294.75,6928.25,8223.0,8,Long
2020-01-17,1294.75,7132.25,8427.0,9,Long
2020-01-19,1294.75,7253.75,8548.5,9,Long
2020-01-20,1294.75,7121.0,8415.75,9,Long
2020-01-21,1294.75,7195.25,8490.0,9,Long
2020-01-22,1294.75,7233.5,8528.25,9,Long
2020-01-23,1294.75,8021.0,9315.75,9,Long
2020-01-24,1294.75,6826.25,8121.0,9,Long
2020-01-26,1294.75,5721.5,7016.25,9,Long
2020-01-27,1294.75,5399.75,6694.5,9,Long
2020-01-28,1294.75,6491.0,7785.75,9,Long
2020-01-29,1294.75,6686.75,7981.5,9,Long
2020-01-30,1294.75,7553.0,8847.75,9,Long
2020-01-31,1294.75,5703.5,6998.25,10,Long
2020-02-02,1294.75,5781.0,7075.75,10,Long
2020-02-03,1294.75,6476.0,7770.75,10,Long
2020-02-04,1294.75,8958.5,10253.25,10,Long
2020-02-05,1294.75,9388.5,10683.25,10,Long
2020-02-06,1294.75,10246.0,11540.75,10,Long
2020-02-07,1294.75,9578.5,10873.25,10,Long
2020-02-09,1294.75,9141.0,10435.75,10,Long
2020-02-10,1294.75,10831.0,12125.75,10,Long
2020-02-11,1294.75,10991.0,12285.75,10,Long
2020-02-12,1294.75,11343.5,12638.25,10,Long
2020-02-13,1294.75,11676.0,12970.75,10,Long
2020-02-14,1294.75,11886.0,13180.75,10,Long
2020-02-16,1294.75,12218.5,13513.25,10,Long
2020-02-17,1294.75,11606.0,12900.75,10,Long
2020-02-18,1294.75,12221.0,13515.75,10,Long
2020-02-19,1294.75,13028.5,14323.25,10,Long
2020-02-20,1294.75,11306.0,12600.75,10,Long
2020-02-21,1294.75,10141.0,11435.75,10,Long
2020-02-23,10530.75,0.0,10530.75,0,
2020-02-24,10530.75,0.0,10530.75,0,
2020-02-25,10530.75,0.0,10530.75,0,
2020-02-26,10530.75,0.0,10530.75,0,
2020-02-27,10530.75,0.0,10530.75,0,
2020-02-28,10530.75,0.0,10530.75,0,
2020-03-01,10530.75,0.0,10530.75,0,
2020-03-02,10530.75,0.0,10530.75,0,
2020-03-03,10530.75,0.0,10530.75,0,
2020-03-04,10530.75,0.0,10530.75,0,
2020-03-05,10530.75,0.0,10530.75,0,
2020-03-06,10530.75,0.0,10530.75,0,
2020-03-08,10530.75,0.0,10530.75,0,
2020-03-09,10530.75,0.0,10530.75,0,
2020-03-10,10530.75,0.0,10530.75,0,
2020-03-11,10530.75,0.0,10530.75,0,
2020-03-12,10530.75,0.0,10530.75,0,
2020-03-13,10530.75,0.0,10530.75,0,
2020-03-15,10530.75,0.0,10530.75,0,
2020-03-16,10530.75,0.0,10530.75,0,
2020-03-17,10530.75,0.0,10530.75,0,
2020-03-18,10530.75,0.0,10530.75,0,
2020-03-19,10530.75,0.0,10530.75,0,
2020-03-20,10530.75,0.0,10530.75,0,
2020-03-22,10530.75,0.0,10530.75,0,
2020-03-23,10530.75,0.0,10530.75,0,
2020-03-24,10530.75,0.0,10530.75,0,
2020-03-25,10530.75,0.0,10530.75,0,
2020-03-26,10530.75,0.0,10530.75,0,
2020-03-27,10530.75,0.0,10530.75,0,
2020-03-29,10530.75,0.0,10530.75,0,
2020-03-30,10530.75,0.0,10530.75,0,
2020-03-31,10530.75,0.0,10530.75,0,
2020-04-01,10530.75,0.0,10530.75,0,
2020-04-02,10530.75,0.0,10530.75,0,
2020-04-03,10530.75,0.0,10530.75,0,
2020-04-05,10530.75,0.0,10530.75,0,
2020-04-06,10530.75,0.0,10530.75,0,
2020-04-07,10530.75,0.0,10530.75,0,
2020-04-08,10530.75,549.0,11079.75,3,Long
2020-04-09,10530.75,595.5,11126.25,3,Long
2020-04-12,10530.75,231.0,10761.75,3,Long
2020-04-13,10530.75,972.75,11503.5,3,Long
2020-04-14,10530.75,1896.75,12427.5,3,Long
2020-04-15,10530.75,1474.5,12005.25,3,Long
2020-04-16,10530.75,2676.0,13206.75,3,Long
2020-04-17,10530.75,2300.25,12831.0,3,Long
2020-04-19,10530.75,2117.25,12648.0,3,Long
2020-04-20,10530.75,2067.0,12597.75,3,Long
2020-04-21,10530.75,1250.25,11781.0,3,Long
2020-04-22,10530.75,1725.75,12256.5,3,Long
2020-04-23,10530.75,1533.0,12063.75,3,Long
2020-04-24,10530.75,2178.0,12708.75,4,Long
2020-04-26,10530.75,2123.0,12653.75,4,Long
2020-04-27,10530.75,2403.0,12933.75,4,Long
2020-04-28,10530.75,2180.0,12710.75,4,Long
2020-04-29,10530.75,3473.0,14003.75,4,Long
2020-04-30,10530.75,2462.0,12992.75,4,Long
2020-05-01,10530.75,1917.0,12447.75,4,Long
2020-05-03,10530.75,1441.0,11971.75,4,Long
2020-05-04,10530.75,2404.0,12934.75,4,Long
2020-05-05,10530.75,2934.0,13464.75,4,Long
2020-05-06,10530.75,2968.0,13498.75,4,Long
2020-05-07,10530.75,3674.0,14204.75,4,Long
2020-05-08,10530.75,3994.0,14524.75,5,Long
2020-05-10,10530.75,4155.25,14686.0,5,Long
2020-05-11,10530.75,4274.0,14804.75,5,Long
2020-05-12,10530.75,2959.0,13489.75,5,Long
2020-05-13,10530.75,2945.25,13476.0,5,Long
2020-05-14,10530.75,3426.5,13957.25,5,Long
2020-05-15,10530.75,3486.5,14017.25,5,Long
2020-05-17,10530.75,3711.5,14242.25,5,Long
2020-05-18,10530.75,4609.0,15139.75,5,Long
2020-05-19,10530.75,4479.0,15009.75,5,Long
2020-05-20,10530.75,5316.5,15847.25,5,Long
2020-05-21,10530.75,4901.5,15432.25,5,Long
2020-05-22,10530.75,5001.5,15532.25,6,Long
2020-05-24,10530.75,5201.0,15731.75,6,Long
2020-05-25,10530.75,5526.5,16057.25,6,Long
2020-05-26,10530.75,4832.0,15362.75,6,Long
2020-05-27,10530.75,5118.5,15649.25,6,Long
2020-05-28,10530.75,4974.5,15505.25,6,Long
2020-05-29,10530.75,5999.0,16529.75,6,Long
2020-05-31,10530.75,5508.5,16039.25,6,Long
2020-06-01,10530.75,5859.5,16390.25,6,Long
2020-06-02,10530.75,6515.0,17045.75,6,Long
2020-06-03,10530.75,6645.5,17176.25,6,Long
2020-06-04,10530.75,6177.5,16708.25,6,Long
2020-06-05,10530.75,7310.0,17840.75,7,Long
2020-06-07,10530.75,7752.75,18283.5,7,Long
2020-06-08,10530.75,7817.5,18348.25,7,Long
2020-06-09,10530.75,8582.25,19113.0,7,Long
2020-06-10,10530.75,8962.0,19492.75,7,Long
2020-06-11,10530.75,6408.75,16939.5,7,Long
2020-06-12,10530.75,6153.25,16684.0,7,Long
2020-06-14,10530.75,5425.25,15956.0,7,Long
2020-06-15,10530.75,7714.25,18245.0,7,Long
2020-06-16,10530.75,8545.5,19076.25,7,Long
2020-06-17,10530.75,8304.0,18834.75,7,Long
2020-06-18,10530.75,8802.75,19333.5,7,Long
2020-06-19,10530.75,8129.0,18659.75,8,Long
2020-06-21,10530.75,7973.0,18503.75,8,Long
2020-06-22,10530.75,9931.0,20461.75,8,Long
2020-06-23,10530.75,10179.0,20709.75,8,Long
2020-06-24,10530.75,8521.0,19051.75,8,Long
2020-06-25,10530.75,9583.0,20113.75,8,Long
2020-06-26,10530.75,7485.0,18015.75,8,Long
2020-06-28,10530.75,7349.0,17879.75,8,Long
2020-06-29,10530.75,8675.0,19205.75,8,Long
2020-06-30,10530.75,9011.0,19541.75,8,Long
2020-07-01,10530.75,10889.0,21419.75,8,Long
2020-07-02,10530.75,11533.0,22063.75,8,Long
2020-07-03,10530.75,11335.0,21865.75,9,Long
2020-07-05,10530.75,11944.75,22475.5,9,Long
2020-07-06,10530.75,14167.75,24698.5,9,Long
2020-07-07,10530.75,13360.0,23890.75,9,Long
2020-07-08,10530.75,14550.25,25081.0,9,Long
2020-07-09,10530.75,15196.0,25726.75,9,Long
2020-07-10,10530.75,15992.5,26523.25,9,Long
2020-07-12,10530.75,16298.5,26829.25,9,Long
2020-07-13,10530.75,14217.25,24748.0,9,Long
2020-07-14,10530.75,14865.25,25396.0,9,Long
2020-07-15,10530.75,14233.0,24763.75,9,Long
2020-07-16,10530.75,13508.5,24039.25,9,Long
2020-07-17,10530.75,14019.25,24550.0,10,Long
2020-07-19,10530.75,14259.25,24790.0,10,Long
2020-07-20,10530.75,17281.75,27812.5,10,Long
2020-07-21,10530.75,16516.75,27047.5,10,Long
2020-07-22,10530.75,16014.25,26545.0,10,Long
2020-07-23,10530.75,13611.75,24142.5,10,Long
2020-07-24,10530.75,12414.25,22945.0,10,Long
2020-07-26,10530.75,12174.25,22705.0,10,Long
2020-07-27,10530.75,14769.25,25300.0,10,Long
2020-07-28,10530.75,13424.25,23955.0,10,Long
2020-07-29,10530.75,14579.25,25110.0,10,Long
2020-07-30,10530.75,16839.25,27370.0,10,Long
2020-07-31,10530.75,16939.25,27470.0,10,Long
2020-08-02,10530.75,16901.75,27432.5,10,Long
2020-08-03,10530.75,18149.25,28680.0,10,Long
2020-08-04,10530.75,18521.75,29052.5,10,Long
2020-08-05,10530.75,18676.75,29207.5,10,Long
2020-08-06,10530.75,20309.25,30840.0,10,Long
2020-08-07,10530.75,19094.25,29625.0,10,Long
2020-08-09,10530.75,18856.75,29387.5,10,Long
2020-08-10,10530.75,18524.25,29055.0,10,Long
2020-08-11,10530.75,17011.75,27542.5,10,Long
2020-08-12,10530.75,19101.75,29632.5,10,Long
2020-08-13,10530.75,19836.75,30367.5,10,Long
2020-08-14,10530.75,19241.75,29772.5,10,Long
2020-08-16,10530.75,19399.25,29930.0,10,Long
2020-08-17,10530.75,20834.25,31365.0,10,Long
2020-08-18,10530.75,21949.25,32480.0,10,Long
2020-08-19,10530.75,20689.25,31220.0,10,Long
2020-08-20,10530.75,22779.25,33310.0,10,Long
2020-08-21,10530.75,23414.25,33945.0,10,Long
2020-08-23,10530.75,23619.25,34150.0,10,Long
2020-08-24,10530.75,24251.75,34782.5,10,Long
2020-08-25,10530.75,25251.75,35782.5,10,Long
2020-08-26,10530.75,27461.75,37992.5,10,Long
2020-08-27,10530.75,27476.75,38007.5,10,Long
2020-08-28,10530.75,27821.75,38352.5,10,Long
2020-08-30,10530.75,28261.75,38792.5,10,Long
2020-08-31,10530.75,29036.75,39567.5,10,Long
2020-09-01,10530.75,31389.25,41920.0,10,Long
2020-09-02,10530.75,32001.75,42532.5,10,Long
2020-09-03,42530.0,0.0,42530.0,0,
2020-09-04,42530.0,0.0,42530.0,0,
2020-09-06,42530.0,0.0,42530.0,0,
2020-09-07,42530.0,0.0,42530.0,0,
2020-09-08,42530.0,0.0,42530.0,0,
2020-09-09,42530.0,0.0,42530.0,0,
2020-09-10,42530.0,0.0,42530.0,0,
2020-09-11,42530.0,0.0,42530.0,0,
2020-09-13,42530.0,0.0,42530.0,0,
2020-09-14,42530.0,0.0,42530.0,0,
2020-09-15,42530.0,0.0,42530.0,0,
2020-09-16,42530.0,0.0,42530.0,0,
2020-09-17,42530.0,0.0,42530.0,0,
2020-09-18,42530.0,0.0,42530.0,0,
2020-09-20,42530.0,0.0,42530.0,0,
2020-09-21,42530.0,0.0,42530.0,0,
2020-09-22,42530.0,0.0,42530.0,0,
2020-09-23,42530.0,0.0,42530.0,0,
2020-09-24,42530.0,0.0,42530.0,0,
2020-09-25,42530.0,0.0,42530.0,0,
2020-09-27,42530.0,0.0,42530.0,0,
2020-09-28,42530.0,0.0,42530.0,0,
2020-09-29,42530.0,0.0,42530.0,0,
2020-09-30,42530.0,0.0,42530.0,0,
2020-10-01,42530.0,0.0,42530.0,0,
2020-10-02,42530.0,0.0,42530.0,0,
2020-10-04,42530.0,0.0,42530.0,0,
2020-10-05,42530.0,0.0,42530.0,0,
2020-10-06,42530.0,0.0,42530.0,0,
2020-10-07,42530.0,0.0,42530.0,0,
2020-10-08,42530.0,0.0,42530.0,0,
2020-10-09,42530.0,0.0,42530.0,0,
2020-10-11,42530.0,44.25,42574.25,3,Long
2020-10-12,42530.0,1141.5,43671.5,3,Long
2020-10-13,42530.0,1158.0,43688.0,3,Long
2020-10-14,42530.0,696.75,43226.75,3,Long
2020-10-15,42530.0,560.25,43090.25,3,Long
2020-10-16,42530.0,193.5,42723.5,3,Long
2020-10-18,42530.0,432.75,42962.75,3,Long
2020-10-19,42530.0,-41.25,42488.75,3,Long
2020-10-20,42489.5,0.0,42489.5,0,
2020-10-21,42489.5,0.0,42489.5,0,
2020-10-22,42489.5,0.0,42489.5,0,
2020-10-23,42489.5,0.0,42489.5,0,
2020-10-25,42489.5,0.0,42489.5,0,
2020-10-26,42489.5,0.0,42489.5,0,
2020-10-27,42489.5,0.0,42489.5,0,
2020-10-28,42489.5,0.0,42489.5,0,
2020-10-29,42489.5,0.0,42489.5,0,
2020-10-30,42489.5,0.0,42489.5,0,
2020-11-01,42489.5,0.0,42489.5,0,
2020-11-02,42489.5,0.0,42489.5,0,
2020-11-03,42489.5,0.0,42489.5,0,
2020-11-04,42489.5,1434.0,43923.5,3,Long
2020-11-05,42489.5,2249.25,44738.75,3,Long
2020-11-06,42489.5,2333.25,44822.75,3,Long
2020-11-08,42489.5,2746.5,45236.0,3,Long
2020-11-09,42489.5,1611.75,44101.25,3,Long
2020-11-10,42489.5,841.5,43331.0,3,Long
2020-11-11,42489.5,1738.5,44228.0,3,Long
2020-11-12,42489.5,1603.5,44093.0,3,Long
2020-11-13,42489.5,1887.75,44377.25,4,Long
2020-11-15,42489.5,2284.75,44774.25,4,Long
2020-11-16,42489.5,2297.75,44787.25,4,Long
2020-11-17,42489.5,2019.75,44509.25,4,Long
2020-11-18,42489.5,1624.75,44114.25,4,Long
2020-11-19,42489.5,1852.75,44342.25,4,Long
2020-11-20,42489.5,1747.75,44237.25,4,Long
2020-11-22,42489.5,1828.75,44318.25,4,Long
2020-11-23,42489.5,1910.75,44400.25,4,Long
2020-11-24,42489.5,2607.75,45097.25,4,Long
2020-11-25,42489.5,2821.75,45311.25,4,Long
2020-11-26,42489.5,2721.75,45211.25,4,Long
2020-11-27,42489.5,3197.75,45687.25,5,Long
2020-11-29,42489.5,3414.0,45903.5,5,Long
2020-11-30,42489.5,3574.0,46063.5,5,Long
2020-12-01,42489.5,4084.0,46573.5,5,Long
2020-12-02,42489.5,4160.25,46649.75,5,Long
2020-12-03,42489.5,4255.25,46744.75,5,Long
2020-12-04,42489.5,4380.25,46869.75,5,Long
2020-12-06,42489.5,4552.75,47042.25,5,Long
2020-12-07,42489.5,4705.25,47194.75,5,Long
2020-12-08,42489.5,5065.25,47554.75,5,Long
2020-12-09,42489.5,3645.25,46134.75,5,Long
2020-12-10,42489.5,3845.25,46334.75,5,Long
2020-12-11,42489.5,3661.5,46151.0,6,Long
2020-12-13,42489.5,3961.5,46451.0,6,Long
2020-12-14,42489.5,4339.5,46829.0,6,Long
2020-12-15,42489.5,5032.5,47522.0,6,Long
2020-12-16,42489.5,5559.0,48048.5,6,Long
2020-12-17,42489.5,5962.5,48452.0,6,Long
2020-12-18,42489.5,5952.0,48441.5,6,Long
2020-12-20,42489.5,5956.5,48446.0,6,Long
2020-12-21,42489.5,5670.0,48159.5,6,Long
2020-12-22,42489.5,5784.0,48273.5,6,Long
2020-12-23,42489.5,5391.0,47880.5,6,Long
2020-12-24,42489.5,5686.5,48176.0,6,Long
2020-12-27,42489.5,5868.0,48357.5,6,Long
2020-12-28,42489.5,6573.0,49062.5,6,Long
2020-12-29,42489.5,6529.5,49019.0,6,Long
2020-12-30,42489.5,6553.5,49043.0,6,Long
2020-12-31,42489.5,6768.0,49257.5,6,Long
2021-01-03,42489.5,6645.0,49134.5,6,Long
2021-01-04,42489.5,5511.0,48000.5,6,Long
2021-01-05,42489.5,6231.0,48720.5,6,Long
2021-01-06,42489.5,5499.0,47988.5,6,Long
2021-01-07,42489.5,7092.0,49581.5,6,Long
2021-01-08,42489.5,8209.5,50699.0,7,Long
2021-01-10,42489.5,7915.5,50405.0,7,Long
2021-01-11,42489.5,6792.0,49281.5,7,Long
2021-01-12,42489.5,6615.25,49104.75,7,Long
2021-01-13,42489.5,7128.0,49617.5,7,Long
2021-01-14,42489.5,6757.0,49246.5,7,Long
2021-01-15,42489.5,5684.25,48173.75,7,Long
2021-01-17,42489.5,5560.0,48049.5,7,Long
2021-01-18,42489.5,6158.5,48648.0,7,Long
2021-01-19,42489.5,7686.25,50175.75,7,Long
2021-01-20,42489.5,9539.5,52029.0,7,Long
2021-01-21,42489.5,10024.25,52513.75,7,Long
2021-01-22,42489.5,9800.25,52289.75,8,Long
2021-01-24,42489.5,10170.25,52659.75,8,Long
2021-01-25,42489.5,10682.25,53171.75,8,Long
2021-01-26,42489.5,11460.25,53949.75,8,Long
2021-01-27,42489.5,6810.25,49299.75,8,Long
2021-01-28,42489.5,8080.25,50569.75,8,Long
2021-01-29,50571.75,0.0,50571.75,0,
2021-01-31,50571.75,0.0,50571.75,0,
2021-02-01,50571.75,0.0,50571.75,0,
2021-02-02,50571.75,0.0,50571.75,0,
2021-02-03,50571.75,0.0,50571.75,0,
2021-02-04,50571.75,329.25,50901.0,3,Long
2021-02-05,50571.75,479.25,51051.0,3,Long
2021-02-07,50571.75,584.25,51156.0,3,Long
2021-02-08,50571.75,712.5,51284.25,3,Long
2021-02-09,50571.75,730.5,51302.25,3,Long
2021-02-10,50571.75,629.25,51201.0,3,Long
2021-02-11,50571.75,861.0,51432.75,3,Long
2021-02-12,50571.75,1133.25,51705.0,4,Long
2021-02-14,50571.75,1149.25,51721.0,4,Long
2021-02-15,50571.75,1278.25,51850.0,4,Long
2021-02-16,50571.75,772.25,51344.0,4,Long
2021-02-17,50571.75,658.25,51230.0,4,Long
2021-02-18,50571.75,308.25,50880.0,4,Long
2021-02-19,50571.75,134.25,50706.0,4,Long
2021-02-21,50571.75,214.25,50786.0,4,Long
2021-02-22,50786.0,0.0,50786.0,0,
2021-02-23,50786.0,0.0,50786.0,0,
2021-02-24,50786.0,0.0,50786.0,0,
2021-02-25,50786.0,0.0,50786.0,0,
2021-02-26,50786.0,0.0,50786.0,0,
2021-02-28,50786.0,0.0,50786.0,0,
2021-03-01,50786.0,0.0,50786.0,0,
2021-03-02,50786.0,0.0,50786.0,0,
2021-03-03,50786.0,0.0,50786.0,0,
2021-03-04,50786.0,0.0,50786.0,0,
2021-03-05,50786.0,0.0,50786.0,0,
2021-03-07,50786.0,0.0,50786.0,0,
2021-03-08,50786.0,0.0,50786.0,0,
2021-03-09,50786.0,0.0,50786.0,0,
2021-03-10,50786.0,0.0,50786.0,0,
2021-03-11,50786.0,0.0,50786.0,0,
2021-03-12,50786.0,0.0,50786.0,0,
2021-03-14,50786.0,0.0,50786.0,0,
2021-03-15,50786.0,0.0,50786.0,0,
2021-03-16,50786.0,0.0,50786.0,0,
2021-03-17,50786.0,0.0,50786.0,0,
2021-03-18,50786.0,0.0,50786.0,0,
2021-03-19,50786.0,0.0,50786.0,0,
2021-03-21,50786.0,0.0,50786.0,0,
2021-03-22,50786.0,0.0,50786.0,0,
2021-03-23,50786.0,0.0,50786.0,0,
2021-03-24,50786.0,0.0,50786.0,0,
2021-03-25,50786.0,0.0,50786.0,0,
2021-03-26,50786.0,0.0,50786.0,0,
2021-03-28,50786.0,0.0,50786.0,0,
2021-03-29,50786.0,0.0,50786.0,0,
2021-03-30,50786.0,0.0,50786.0,0,
2021-03-31,50786.0,0.0,50786.0,0,
2021-04-01,50786.0,0.0,50786.0,0,
2021-04-02,50786.0,0.0,50786.0,0,
2021-04-04,50786.0,0.0,50786.0,0,
2021-04-05,50786.0,795.0,51581.0,3,Long
2021-04-06,50786.0,729.0,51515.0,3,Long
2021-04-07,50786.0,860.25,51646.25,3,Long
2021-04-08,50786.0,1352.25,52138.25,3,Long
2021-04-09,50786.0,1372.5,52158.5,3,Long
2021-04-11,50786.0,1282.5,52068.5,3,Long
2021-04-12,50786.0,1398.0,52184.0,3,Long
2021-04-13,50786.0,1846.5,52632.5,3,Long
2021-04-14,50786.0,1380.75,52166.75,3,Long
2021-04-15,50786.0,1977.0,52763.0,3,Long
2021-04-16,50786.0,2008.5,52794.5,4,Long
2021-04-18,50786.0,1883.5,52669.5,4,Long
2021-04-19,50786.0,1588.5,52374.5,4,Long
2021-04-20,50786.0,903.5,51689.5,4,Long
2021-04-21,50786.0,1452.5,52238.5,4,Long
2021-04-22,50786.0,957.5,51743.5,4,Long
2021-04-23,50786.0,1541.5,52327.5,4,Long
2021-04-25,50786.0,1560.5,52346.5,4,Long
2021-04-26,50786.0,2029.5,52815.5,4,Long
2021-04-27,50786.0,1771.5,52557.5,4,Long
2021-04-28,50786.0,1807.5,52593.5,4,Long
2021-04-29,50786.0,1582.5,52368.5,4,Long
2021-04-30,50786.0,1391.0,52177.0,5,Long
2021-05-02,50786.0,1462.25,52248.25,5,Long
2021-05-03,50786.0,908.5,51694.5,5,Long
2021-05-04,50786.0,-314.0,50472.0,5,Long
2021-05-05,50786.0,-435.25,50350.75,5,Long
2021-05-06,50786.0,122.25,50908.25,5,Long
2021-05-07,50786.0,649.75,51435.75,5,Long
2021-05-09,50786.0,756.0,51542.0,5,Long
2021-05-10,51543.25,0.0,51543.25,0,
2021-05-11,51543.25,0.0,51543.25,0,
2021-05-12,51543.25,0.0,51543.25,0,
2021-05-13,51543.25,0.0,51543.25,0,
2021-05-14,51543.25,0.0,51543.25,0,
2021-05-16,51543.25,0.0,51543.25,0,
2021-05-17,51543.25,0.0,51543.25,0,
2021-05-18,51543.25,0.0,51543.25,0,
2021-05-19,51543.25,0.0,51543.25,0,
2021-05-20,51543.25,0.0,51543.25,0,
2021-05-21,51543.25,0.0,51543.25,0,
2021-05-23,51543.25,0.0,51543.25,0,
2021-05-24,51543.25,0.0,51543.25,0,
2021-05-25,51543.25,0.0,51543.25,0,
2021-05-26,51543.25,0.0,51543.25,0,
2021-05-27,51543.25,0.0,51543.25,0,
2021-05-28,51543.25,0.0,51543.25,0,
2021-05-30,51543.25,0.0,51543.25,0,
2021-05-31,51543.25,0.0,51543.25,0,
2021-06-01,51543.25,0.0,51543.25,0,
2021-06-02,51543.25,0.0,51543.25,0,
2021-06-03,51543.25,0.0,51543.25,0,
2021-06-04,51543.25,781.5,52324.75,3,Long
2021-06-06,51543.25,792.0,52335.25,3,Long
2021-06-07,51543.25,957.75,52501.0,3,Long
2021-06-08,51543.25,940.5,52483.75,3,Long
2021-06-09,51543.25,934.5,52477.75,3,Long
2021-06-10,51543.25,1392.75,52936.0,3,Long
2021-06-11,51543.25,1443.75,52987.0,3,Long
2021-06-13,51543.25,1518.0,53061.25,3,Long
2021-06-14,51543.25,1808.25,53351.5,3,Long
2021-06-15,51543.25,1583.25,53126.5,3,Long
2021-06-16,51543.25,1149.0,52692.25,3,Long
2021-06-17,51543.25,2016.0,53559.25,3,Long
2021-06-18,51543.25,1498.5,53041.75,4,Long
2021-06-20,51543.25,1579.5,53122.75,4,Long
2021-06-21,51543.25,1966.5,53509.75,4,Long
2021-06-22,51543.25,2516.5,54059.75,4,Long
2021-06-23,51543.25,2571.5,54114.75,4,Long
2021-06-24,51543.25,2812.5,54355.75,4,Long
2021-06-25,51543.25,2751.5,54294.75,4,Long
2021-06-27,51543.25,2845.5,54388.75,4,Long
2021-06-28,51543.25,3393.5,54936.75,4,Long
2021-06-29,51543.25,3777.5,55320.75,4,Long
2021-06-30,51543.25,3668.5,55211.75,4,Long
2021-07-01,51543.25,3558.5,55101.75,4,Long
2021-07-02,51543.25,4213.5,55756.75,5,Long
2021-07-04,51543.25,4283.5,55826.75,5,Long
2021-07-05,51543.25,4282.25,55825.5,5,Long
2021-07-06,51543.25,4534.75,56078.0,5,Long
2021-07-07,51543.25,4762.25,56305.5,5,Long
2021-07-08,51543.25,4171.0,55714.25,5,Long
2021-07-09,51543.25,4783.5,56326.75,5,Long
2021-07-11,51543.25,4858.5,56401.75,5,Long
2021-07-12,51543.25,5109.75,56653.0,5,Long
2021-07-13,51543.25,4936.0,56479.25,5,Long
2021-07-14,51543.25,5232.25,56775.5,5,Long
2021-07-15,51543.25,4496.0,56039.25,5,Long
2021-07-16,51543.25,4073.5,55616.75,6,Long
2021-07-18,51543.25,3908.5,55451.75,6,Long
2021-07-19,51543.25,3589.0,55132.25,6,Long
2021-07-20,51543.25,4510.0,56053.25,6,Long
2021-07-21,51543.25,5065.0,56608.25,6,Long
2021-07-22,51543.25,5876.5,57419.75,6,Long
2021-07-23,51543.25,6607.0,58150.25,6,Long
2021-07-25,51543.25,6778.0,58321.25,6,Long
2021-07-26,51543.25,6721.0,58264.25,6,Long
2021-07-27,51543.25,5573.5,57116.75,6,Long
2021-07-28,51543.25,5981.5,57524.75,6,Long
2021-07-29,51543.25,5272.0,56815.25,6,Long
2021-07-30,51543.25,5875.5,57418.75,7,Long
2021-08-01,51543.25,6117.0,57660.25,7,Long
2021-08-02,51543.25,5833.5,57376.75,7,Long
2021-08-03,51543.25,6321.75,57865.0,7,Long
2021-08-04,51543.25,6691.0,58234.25,7,Long
2021-08-05,51543.25,7228.25,58771.5,7,Long
2021-08-06,51543.25,6754.0,58297.25,7,Long
2021-08-08,51543.25,6258.75,57802.0,7,Long
2021-08-09,51543.25,6936.0,58479.25,7,Long
2021-08-10,51543.25,6353.25,57896.5,7,Long
2021-08-11,51543.25,6075.0,57618.25,7,Long
2021-08-12,51543.25,6579.0,58122.25,7,Long
2021-08-13,51543.25,6979.0,58522.25,8,Long
2021-08-15,51543.25,6901.0,58444.25,8,Long
2021-08-16,51543.25,7033.0,58576.25,8,Long
2021-08-17,51543.25,5645.0,57188.25,8,Long
2021-08-18,51543.25,4753.0,56296.25,8,Long
2021-08-19,51543.25,5323.0,56866.25,8,Long
2021-08-20,51543.25,6749.0,58292.25,8,Long
2021-08-22,51543.25,6847.0,58390.25,8,Long
2021-08-23,51543.25,8625.0,60168.25,8,Long
2021-08-24,51543.25,8851.0,60394.25,8,Long
2021-08-25,51543.25,8883.0,60426.25,8,Long
2021-08-26,51543.25,8215.0,59758.25,8,Long
2021-08-27,51543.25,9408.25,60951.5,9,Long
2021-08-29,51543.25,9628.75,61172.0,9,Long
2021-08-30,51543.25,10940.5,62483.75,9,Long
2021-08-31,51543.25,10929.25,62472.5,9,Long
2021-09-01,51543.25,11122.75,62666.0,9,Long
2021-09-02,51543.25,10929.25,62472.5,9,Long
2021-09-03,51543.25,11437.75,62981.0,9,Long
2021-09-05,51543.25,11408.5,62951.75,9,Long
2021-09-06,51543.25,11759.5,63302.75,9,Long
2021-09-07,51543.25,11514.25,63057.5,9,Long
2021-09-08,51543.25,10956.25,62499.5,9,Long
2021-09-09,51543.25,10632.25,62175.5,9,Long
2021-09-10,51543.25,9489.0,61032.25,10,Long
2021-09-12,51543.25,9956.5,61499.75,10,Long
2021-09-13,51543.25,9564.0,61107.25,10,Long
2021-09-14,51543.25,9181.5,60724.75,10,Long
2021-09-15,51543.25,10129.0,61672.25,10,Long
2021-09-16,51543.25,9926.5,61469.75,10,Long
2021-09-17,61469.75,0.0,61469.75,0,
2021-09-19,61469.75,0.0,61469.75,0,
2021-09-20,61469.75,0.0,61469.75,0,
2021-09-21,61469.75,0.0,61469.75,0,
2021-09-22,61469.75,0.0,61469.75,0,
2021-09-23,61469.75,0.0,61469.75,0,
2021-09-24,61469.75,0.0,61469.75,0,
2021-09-26,61469.75,0.0,61469.75,0,
2021-09-27,61469.75,0.0,61469.75,0,
2021-09-28,61469.75,0.0,61469.75,0,
2021-09-29,61469.75,0.0,61469.75,0,
2021-09-30,61469.75,0.0,61469.75,0,
2021-10-01,61469.75,0.0,61469.75,0,
2021-10-03,61469.75,0.0,61469.75,0,
2021-10-04,61469.75,0.0,61469.75,0,
2021-10-05,61469.75,0.0,61469.75,0,
2021-10-06,61469.75,0.0,61469.75,0,
2021-10-07,61469.75,0.0,61469.75,0,
2021-10-08,61469.75,0.0,61469.75,0,
2021-10-10,61469.75,0.0,61469.75,0,
2021-10-11,61469.75,0.0,61469.75,0,
2021-10-12,61469.75,0.0,61469.75,0,
2021-10-13,61469.75,0.0,61469.75,0,
2021-10-14,61469.75,0.0,61469.75,0,
2021-10-15,61469.75,0.0,61469.75,0,
2021-10-17,61469.75,0.0,61469.75,0,
2021-10-18,61469.75,630.0,62099.75,3,Long
2021-10-19,61469.75,981.75,62451.5,3,Long
2021-10-20,61469.75,759.75,62229.5,3,Long
2021-10-21,61469.75,929.25,62399.0,3,Long
2021-10-22,61469.75,726.0,62195.75,3,Long
2021-10-24,61469.75,672.75,62142.5,3,Long
2021-10-25,61469.75,1371.0,62840.75,3,Long
2021-10-26,61469.75,1434.0,62903.75,3,Long
2021-10-27,61469.75,1632.75,63102.5,3,Long
2021-10-28,61469.75,1770.75,63240.5,3,Long
2021-10-29,61469.75,2428.75,63898.5,4,Long
2021-10-31,61469.75,2474.75,63944.5,4,Long
2021-11-01,61469.75,2457.75,63927.5,4,Long
2021-11-02,61469.75,2723.75,64193.5,4,Long
2021-11-03,61469.75,3696.75,65166.5,4,Long
2021-11-04,61469.75,4313.75,65783.5,4,Long
2021-11-05,61469.75,4325.75,65795.5,4,Long
2021-11-07,61469.75,4201.75,65671.5,4,Long
2021-11-08,61469.75,4195.75,65665.5,4,Long
2021-11-09,61469.75,3695.75,65165.5,4,Long
2021-11-10,61469.75,2914.75,64384.5,4,Long
2021-11-11,61469.75,3210.75,64680.5,4,Long
2021-11-12,61469.75,3780.25,65250.0,5,Long
2021-11-14,61469.75,3902.75,65372.5,5,Long
2021-11-15,61469.75,3720.25,65190.0,5,Long
2021-11-16,61469.75,4297.75,65767.5,5,Long
2021-11-17,61469.75,4419.0,65888.75,5,Long
2021-11-18,61469.75,5251.5,66721.25,5,Long
2021-11-19,61469.75,5712.75,67182.5,5,Long
2021-11-21,61469.75,5715.25,67185.0,5,Long
2021-11-22,61469.75,4755.25,66225.0,5,Long
2021-11-23,61469.75,4204.0,65673.75,5,Long
2021-11-24,61469.75,4560.25,66030.0,5,Long
2021-11-25,61469.75,4626.5,66096.25,5,Long
2021-11-26,66092.5,0.0,66092.5,0,
2021-11-28,66092.5,0.0,66092.5,0,
2021-11-29,66092.5,0.0,66092.5,0,
2021-11-30,66092.5,0.0,66092.5,0,
2021-12-01,66092.5,0.0,66092.5,0,
2021-12-02,66092.5,0.0,66092.5,0,
2021-12-03,66092.5,0.0,66092.5,0,
2021-12-05,66092.5,0.0,66092.5,0,
2021-12-06,66092.5,0.0,66092.5,0,
2021-12-07,66092.5,0.0,66092.5,0,
2021-12-08,66092.5,0.0,66092.5,0,
2021-12-09,66092.5,0.0,66092.5,0,
2021-12-10,66092.5,0.0,66092.5,0,
2021-12-12,66092.5,0.0,66092.5,0,
2021-12-13,66092.5,0.0,66092.5,0,
2021-12-14,66092.5,0.0,66092.5,0,
2021-12-15,66092.5,0.0,66092.5,0,
2021-12-16,66092.5,0.0,66092.5,0,
2021-12-17,66092.5,0.0,66092.5,0,
2021-12-19,66092.5,0.0,66092.5,0,
2021-12-20,66092.5,0.0,66092.5,0,
2021-12-21,66092.5,0.0,66092.5,0,
2021-12-22,66092.5,0.0,66092.5,0,
2021-12-23,66092.5,0.0,66092.5,0,
2021-12-26,66092.5,0.0,66092.5,0,
2021-12-27,66092.5,637.5,66730.0,3,Long
2021-12-28,66092.5,591.0,66683.5,3,Long
2021-12-29,66092.5,363.0,66455.5,3,Long
2021-12-30,66092.5,288.0,66380.5,3,Long
2021-12-31,66092.5,-26.25,66066.25,3,Long
2022-01-02,66130.75,0.0,66130.75,0,
2022-01-03,66130.75,299.25,66430.0,3,Long
2022-01-04,66130.75,-453.75,65677.0,3,Long
2022-01-05,65677.75,0.0,65677.75,0,
2022-01-06,65677.75,0.0,65677.75,0,
2022-01-07,65677.75,0.0,65677.75,0,
2022-01-09,65677.75,0.0,65677.75,0,
2022-01-10,65677.75,0.0,65677.75,0,
2022-01-11,65677.75,0.0,65677.75,0,
2022-01-12,65677.75,0.0,65677.75,0,
2022-01-13,65677.75,0.0,65677.75,0,
2022-01-14,65677.75,0.0,65677.75,0,
2022-01-16,65677.75,0.0,65677.75,0,
2022-01-17,65677.75,0.0,65677.75,0,
2022-01-18,65677.75,0.0,65677.75,0,
2022-01-19,65677.75,0.0,65677.75,0,
2022-01-20,65677.75,0.0,65677.75,0,
2022-01-21,65677.75,0.0,65677.75,0,
2022-01-23,65677.75,0.0,65677.75,0,
2022-01-24,65677.75,0.0,65677.75,0,
2022-01-25,65677.75,0.0,65677.75,0,
2022-01-26,65677.75,0.0,65677.75,0,
2022-01-27,65677.75,0.0,65677.75,0,
2022-01-28,65677.75,0.0,65677.75,0,
2022-01-30,65677.75,0.0,65677.75,0,
2022-01-31,65677.75,0.0,65677.75,0,
2022-02-01,65677.75,0.0,65677.75,0,
2022-02-02,65677.75,0.0,65677.75,0,
2022-02-03,65677.75,0.0,65677.75,0,
2022-02-04,65677.75,0.0,65677.75,0,
2022-02-06,65677.75,0.0,65677.75,0,
2022-02-07,65677.75,0.0,65677.75,0,
2022-02-08,65677.75,0.0,65677.75,0,
2022-02-09,65677.75,0.0,65677.75,0,
2022-02-10,65677.75,0.0,65677.75,0,
2022-02-11,65677.75,0.0,65677.75,0,
2022-02-13,65677.75,0.0,65677.75,0,
2022-02-14,65677.75,0.0,65677.75,0,
2022-02-15,65677.75,0.0,65677.75,0,
2022-02-16,65677.75,0.0,65677.75,0,
2022-02-17,65677.75,0.0,65677.75,0,
2022-02-18,65677.75,0.0,65677.75,0,
2022-02-20,65677.75,0.0,65677.75,0,
2022-02-21,65677.75,0.0,65677.75,0,
2022-02-22,65677.75,0.0,65677.75,0,
2022-02-23,65677.75,0.0,65677.75,0,
2022-02-24,65677.75,0.0,65677.75,0,
2022-02-25,65677.75,0.0,65677.75,0,
2022-02-27,65677.75,0.0,65677.75,0,
2022-02-28,65677.75,0.0,65677.75,0,
2022-03-01,65677.75,0.0,65677.75,0,
2022-03-02,65677.75,0.0,65677.75,0,
2022-03-03,65677.75,0.0,65677.75,0,
2022-03-04,65677.75,0.0,65677.75,0,
2022-03-06,65677.75,0.0,65677.75,0,
2022-03-07,65677.75,0.0,65677.75,0,
2022-03-08,65677.75,0.0,65677.75,0,
2022-03-09,65677.75,0.0,65677.75,0,
2022-03-10,65677.75,0.0,65677.75,0,
2022-03-11,65677.75,0.0,65677.75,0,
2022-03-13,65677.75,0.0,65677.75,0,
2022-03-14,65677.75,0.0,65677.75,0,
2022-03-15,65677.75,0.0,65677.75,0,
2022-03-16,65677.75,0.0,65677.75,0,
2022-03-17,65677.75,0.0,65677.75,0,
2022-03-18,65677.75,0.0,65677.75,0,
2022-03-20,65677.75,0.0,65677.75,0,
2022-03-21,65677.75,0.0,65677.75,0,
2022-03-22,65677.75,978.0,66655.75,3,Long
2022-03-23,65677.75,399.75,66077.5,3,Long
2022-03-24,65677.75,1227.75,66905.5,3,Long
2022-03-25,65677.75,1235.25,66913.0,3,Long
2022-03-27,65677.75,1140.75,66818.5,3,Long
2022-03-28,65677.75,1896.75,67574.5,3,Long
2022-03-29,65677.75,2642.25,68320.0,3,Long
2022-03-30,65677.75,2289.0,67966.75,3,Long
2022-03-31,65677.75,1715.25,67393.0,3,Long
2022-04-01,65677.75,1612.75,67290.5,4,Long
2022-04-03,65677.75,1474.75,67152.5,4,Long
2022-04-04,65677.75,2807.75,68485.5,4,Long
2022-04-05,65677.75,1538.75,67216.5,4,Long
2022-04-06,65677.75,-6.25,65671.5,4,Long
2022-04-07,65677.75,462.75,66140.5,4,Long
2022-04-08,65677.75,-487.25,65190.5,4,Long
2022-04-10,65213.5,0.0,65213.5,0,
2022-04-11,65213.5,0.0,65213.5,0,
2022-04-12,65213.5,0.0,65213.5,0,
2022-04-13,65213.5,0.0,65213.5,0,
2022-04-14,65213.5,0.0,65213.5,0,
2022-04-17,65213.5,0.0,65213.5,0,
2022-04-18,65213.5,0.0,65213.5,0,
2022-04-19,65213.5,0.0,65213.5,0,
2022-04-20,65213.5,0.0,65213.5,0,
2022-04-21,65213.5,0.0,65213.5,0,
2022-04-22,65213.5,0.0,65213.5,0,
2022-04-24,65213.5,0.0,65213.5,0,
2022-04-25,65213.5,0.0,65213.5,0,
2022-04-26,65213.5,0.0,65213.5,0,
2022-04-27,65213.5,0.0,65213.5,0,
2022-04-28,65213.5,0.0,65213.5,0,
2022-04-29,65213.5,0.0,65213.5,0,
2022-05-01,65213.5,0.0,65213.5,0,
2022-05-02,65213.5,0.0,65213.5,0,
2022-05-03,65213.5,0.0,65213.5,0,
2022-05-04,65213.5,0.0,65213.5,0,
2022-05-05,65213.5,0.0,65213.5,0,
2022-05-06,65213.5,0.0,65213.5,0,
2022-05-08,65213.5,0.0,65213.5,0,
2022-05-09,65213.5,0.0,65213.5,0,
2022-05-10,65213.5,0.0,65213.5,0,
2022-05-11,65213.5,0.0,65213.5,0,
2022-05-12,65213.5,0.0,65213.5,0,
2022-05-13,65213.5,0.0,65213.5,0,
2022-05-15,65213.5,0.0,65213.5,0,
2022-05-16,65213.5,0.0,65213.5,0,
2022-05-17,65213.5,0.0,65213.5,0,
2022-05-18,65213.5,0.0,65213.5,0,
2022-05-19,65213.5,0.0,65213.5,0,
2022-05-20,65213.5,0.0,65213.5,0,
2022-05-22,65213.5,0.0,65213.5,0,
2022-05-23,65213.5,0.0,65213.5,0,
2022-05-24,65213.5,0.0,65213.5,0,
2022-05-25,65213.5,0.0,65213.5,0,
2022-05-26,65213.5,0.0,65213.5,0,
2022-05-27,65213.5,0.0,65213.5,0,
2022-05-29,65213.5,0.0,65213.5,0,
2022-05-30,65213.5,0.0,65213.5,0,
2022-05-31,65213.5,0.0,65213.5,0,
2022-06-01,65213.5,0.0,65213.5,0,
2022-06-02,65213.5,1237.5,66451.0,3,Long
2022-06-03,65213.5,121.5,65335.0,3,Long
2022-06-05,65213.5,121.5,65335.0,3,Long
2022-06-06,65213.5,281.25,65494.75,3,Long
2022-06-07,65213.5,483.75,65697.25,3,Long
2022-06-08,65213.5,345.0,65558.5,3,Long
2022-06-09,65213.5,-663.0,64550.5,3,Long
2022-06-10,64549.75,0.0,64549.75,0,
2022-06-12,64549.75,0.0,64549.75,0,
2022-06-13,64549.75,0.0,64549.75,0,
2022-06-14,64549.75,0.0,64549.75,0,
2022-06-15,64549.75,0.0,64549.75,0,
2022-06-16,64549.75,0.0,64549.75,0,
2022-06-17,64549.75,0.0,64549.75,0,
2022-06-19,64549.75,0.0,64549.75,0,
2022-06-20,64549.75,0.0,64549.75,0,
2022-06-21,64549.75,0.0,64549.75,0,
2022-06-22,64549.75,0.0,64549.75,0,
2022-06-23,64549.75,0.0,64549.75,0,
2022-06-24,64549.75,0.0,64549.75,0,
2022-06-26,64549.75,0.0,64549.75,0,
2022-06-27,64549.75,0.0,64549.75,0,
2022-06-28,64549.75,0.0,64549.75,0,
2022-06-29,64549.75,0.0,64549.75,0,
2022-06-30,64549.75,0.0,64549.75,0,
2022-07-01,64549.75,0.0,64549.75,0,
2022-07-03,64549.75,0.0,64549.75,0,
2022-07-04,64549.75,0.0,64549.75,0,
2022-07-05,64549.75,0.0,64549.75,0,
2022-07-06,64549.75,0.0,64549.75,0,
2022-07-07,64549.75,0.0,64549.75,0,
2022-07-08,64549.75,0.0,64549.75,0,
2022-07-10,64549.75,0.0,64549.75,0,
2022-07-11,64549.75,0.0,64549.75,0,
2022-07-12,64549.75,0.0,64549.75,0,
2022-07-13,64549.75,0.0,64549.75,0,
2022-07-14,64549.75,0.0,64549.75,0,
2022-07-15,64549.75,0.0,64549.75,0,
2022-07-17,64549.75,0.0,64549.75,0,
2022-07-18,64549.75,0.0,64549.75,0,
2022-07-19,64549.75,0.0,64549.75,0,
2022-07-20,64549.75,369.75,64919.5,3,Long
2022-07-21,64549.75,705.75,65255.5,3,Long
2022-07-22,64549.75,343.5,64893.25,3,Long
2022-07-24,64549.75,271.5,64821.25,3,Long
2022-07-25,64549.75,-42.75,64507.0,3,Long
2022-07-26,64507.75,0.0,64507.75,0,
2022-07-27,64507.75,0.0,64507.75,0,
2022-07-28,64507.75,948.0,65455.75,3,Long
2022-07-29,64507.75,1193.25,65701.0,3,Long
2022-07-31,64507.75,1027.5,65535.25,3,Long
2022-08-01,64507.75,1122.0,65629.75,3,Long
2022-08-02,64507.75,978.75,65486.5,3,Long
2022-08-03,64507.75,1972.5,66480.25,3,Long
2022-08-04,64507.75,2269.5,66777.25,3,Long
2022-08-05,64507.75,1908.25,66416.0,4,Long
2022-08-07,64507.75,1760.25,66268.0,4,Long
2022-08-08,64507.75,1932.25,66440.0,4,Long
2022-08-09,64507.75,1260.25,65768.0,4,Long
2022-08-10,64507.75,2645.25,67153.0,4,Long
2022-08-11,64507.75,2392.25,66900.0,4,Long
2022-08-12,64507.75,3371.25,67879.0,4,Long
2022-08-14,64507.75,3210.25,67718.0,4,Long
2022-08-15,64507.75,3774.25,68282.0,4,Long
2022-08-16,64507.75,3657.25,68165.0,4,Long
2022-08-17,64507.75,2871.25,67379.0,4,Long
2022-08-18,64507.75,3158.25,67666.0,4,Long
2022-08-19,64507.75,2031.25,66539.0,5,Long
2022-08-21,64507.75,1720.0,66227.75,5,Long
2022-08-22,64507.75,561.25,65069.0,5,Long
2022-08-23,64507.75,260.0,64767.75,5,Long
2022-08-24,64507.75,455.0,64962.75,5,Long
2022-08-25,64507.75,1505.0,66012.75,5,Long
2022-08-26,66015.25,0.0,66015.25,0,
2022-08-28,66015.25,0.0,66015.25,0,
2022-08-29,66015.25,0.0,66015.25,0,
2022-08-30,66015.25,0.0,66015.25,0,
2022-08-31,66015.25,0.0,66015.25,0,
2022-09-01,66015.25,0.0,66015.25,0,
2022-09-02,66015.25,0.0,66015.25,0,
2022-09-04,66015.25,0.0,66015.25,0,
2022-09-05,66015.25,0.0,66015.25,0,
2022-09-06,66015.25,0.0,66015.25,0,
2022-09-07,66015.25,0.0,66015.25,0,
2022-09-08,66015.25,0.0,66015.25,0,
2022-09-09,66015.25,0.0,66015.25,0,
2022-09-11,66015.25,0.0,66015.25,0,
2022-09-12,66015.25,0.0,66015.25,0,
2022-09-13,66015.25,0.0,66015.25,0,
2022-09-14,66015.25,0.0,66015.25,0,
2022-09-15,66015.25,0.0,66015.25,0,
2022-09-16,66015.25,0.0,66015.25,0,
2022-09-18,66015.25,0.0,66015.25,0,
2022-09-19,66015.25,0.0,66015.25,0,
2022-09-20,66015.25,0.0,66015.25,0,
2022-09-21,66015.25,0.0,66015.25,0,
2022-09-22,66015.25,0.0,66015.25,0,
2022-09-23,66015.25,0.0,66015.25,0,
2022-09-25,66015.25,0.0,66015.25,0,
2022-09-26,66015.25,0.0,66015.25,0,
2022-09-27,66015.25,0.0,66015.25,0,
2022-09-28,66015.25,0.0,66015.25,0,
2022-09-29,66015.25,0.0,66015.25,0,
2022-09-30,66015.25,0.0,66015.25,0,
2022-10-02,66015.25,0.0,66015.25,0,
2022-10-03,66015.25,0.0,66015.25,0,
2022-10-04,66015.25,0.0,66015.25,0,
2022-10-05,66015.25,0.0,66015.25,0,
2022-10-06,66015.25,0.0,66015.25,0,
2022-10-07,66015.25,0.0,66015.25,0,
2022-10-09,66015.25,0.0,66015.25,0,
2022-10-10,66015.25,0.0,66015.25,0,
2022-10-11,66015.25,0.0,66015.25,0,
2022-10-12,66015.25,0.0,66015.25,0,
2022-10-13,66015.25,0.0,66015.25,0,
2022-10-14,66015.25,0.0,66015.25,0,
2022-10-16,66015.25,0.0,66015.25,0,
2022-10-17,66015.25,0.0,66015.25,0,
2022-10-18,66015.25,0.0,66015.25,0,
2022-10-19,66015.25,0.0,66015.25,0,
2022-10-20,66015.25,0.0,66015.25,0,
2022-10-21,66015.25,0.0,66015.25,0,
2022-10-23,66015.25,0.0,66015.25,0,
2022-10-24,66015.25,0.0,66015.25,0,
2022-10-25,66015.25,0.0,66015.25,0,
2022-10-26,66015.25,0.0,66015.25,0,
2022-10-27,66015.25,0.0,66015.25,0,
2022-10-28,66015.25,0.0,66015.25,0,
2022-10-30,66015.25,0.0,66015.25,0,
2022-10-31,66015.25,0.0,66015.25,0,
2022-11-01,66015.25,0.0,66015.25,0,
2022-11-02,66015.25,0.0,66015.25,0,
2022-11-03,66015.25,0.0,66015.25,0,
2022-11-04,66015.25,0.0,66015.25,0,
2022-11-06,66015.25,0.0,66015.25,0,
2022-11-07,66015.25,0.0,66015.25,0,
2022-11-08,66015.25,0.0,66015.25,0,
2022-11-09,66015.25,0.0,66015.25,0,
2022-11-10,66015.25,0.0,66015.25,0,
2022-11-11,66015.25,480.0,66495.25,3,Long
2022-11-13,66015.25,408.0,66423.25,3,Long
2022-11-14,66015.25,275.25,66290.5,3,Long
2022-11-15,66015.25,670.5,66685.75,3,Long
2022-11-16,66015.25,314.25,66329.5,3,Long
2022-11-17,66015.25,133.5,66148.75,3,Long
2022-11-18,66015.25,102.75,66118.0,3,Long
2022-11-20,66015.25,101.25,66116.5,3,Long
2022-11-21,66015.25,-243.75,65771.5,3,Long
2022-11-22,65772.25,0.0,65772.25,0,
2022-11-23,65772.25,430.5,66202.75,3,Long
2022-11-24,65772.25,518.25,66290.5,3,Long
2022-11-25,65772.25,117.0,65889.25,3,Long
2022-11-27,65772.25,-54.75,65717.5,3,Long
2022-11-28,65772.25,-378.75,65393.5,3,Long
2022-11-29,65392.75,0.0,65392.75,0,
2022-11-30,65392.75,0.0,65392.75,0,
2022-12-01,65392.75,-99.0,65293.75,3,Long
2022-12-02,65392.75,-279.75,65113.0,3,Long
2022-12-04,65392.75,-214.5,65178.25,3,Long
2022-12-05,65392.75,-761.25,64631.5,3,Long
2022-12-06,65392.75,-1484.25,63908.5,3,Long
2022-12-07,63910.0,0.0,63910.0,0,
2022-12-08,63910.0,0.0,63910.0,0,
2022-12-09,63910.0,0.0,63910.0,0,
2022-12-11,63910.0,0.0,63910.0,0,
2022-12-12,63910.0,0.0,63910.0,0,
2022-12-13,63910.0,396.0,64306.0,3,Long
2022-12-14,63910.0,165.75,64075.75,3,Long
2022-12-15,63910.0,-1107.0,62803.0,3,Long
2022-12-16,62803.0,0.0,62803.0,0,
2022-12-18,62803.0,0.0,62803.0,0,
2022-12-19,62803.0,0.0,62803.0,0,
2022-12-20,62803.0,0.0,62803.0,0,
2022-12-21,62803.0,0.0,62803.0,0,
2022-12-22,62803.0,0.0,62803.0,0,
2022-12-23,62803.0,0.0,62803.0,0,
2022-12-26,62803.0,0.0,62803.0,0,
2022-12-27,62803.0,0.0,62803.0,0,
2022-12-28,62803.0,0.0,62803.0,0,
2022-12-29,62803.0,0.0,62803.0,0,
2022-12-30,62803.0,0.0,62803.0,0,
2023-01-02,62803.0,0.0,62803.0,0,
2023-01-03,62803.0,0.0,62803.0,0,
2023-01-04,62803.0,0.0,62803.0,0,
2023-01-05,62803.0,0.0,62803.0,0,
2023-01-06,62803.0,0.0,62803.0,0,
2023-01-08,62803.0,0.0,62803.0,0,
2023-01-09,62803.0,0.0,62803.0,0,
2023-01-10,62803.0,0.0,62803.0,0,
2023-01-11,62803.0,0.0,62803.0,0,
2023-01-12,62803.0,0.0,62803.0,0,
2023-01-13,62803.0,0.0,62803.0,0,
2023-01-15,62803.0,0.0,62803.0,0,
2023-01-16,62803.0,0.0,62803.0,0,
2023-01-17,62803.0,0.0,62803.0,0,
2023-01-18,62803.0,0.0,62803.0,0,
2023-01-19,62803.0,0.0,62803.0,0,
2023-01-20,62803.0,876.75,63679.75,3,Long
2023-01-22,62803.0,822.75,63625.75,3,Long
2023-01-23,62803.0,1603.5,64406.5,3,Long
2023-01-24,62803.0,1368.0,64171.0,3,Long
2023-01-25,62803.0,1569.75,64372.75,3,Long
2023-01-26,62803.0,1967.25,64770.25,3,Long
2023-01-27,62803.0,2507.25,65310.25,3,Long
2023-01-29,62803.0,2464.5,65267.5,3,Long
2023-01-30,62803.0,1854.75,64657.75,3,Long
2023-01-31,62803.0,2157.75,64960.75,3,Long
2023-02-01,62803.0,3483.75,66286.75,3,Long
2023-02-02,62803.0,3838.5,66641.5,3,Long
2023-02-03,62803.0,3706.25,66509.25,4,Long
2023-02-05,62803.0,3603.25,66406.25,4,Long
2023-02-06,62803.0,3384.25,66187.25,4,Long
2023-02-07,62803.0,4240.25,67043.25,4,Long
2023-02-08,62803.0,3484.25,66287.25,4,Long
2023-02-09,62803.0,2979.25,65782.25,4,Long
2023-02-10,62803.0,2586.25,65389.25,4,Long
2023-02-12,62803.0,2467.25,65270.25,4,Long
2023-02-13,62803.0,3395.25,66198.25,4,Long
2023-02-14,62803.0,3671.25,66474.25,4,Long
2023-02-15,62803.0,4226.25,67029.25,4,Long
2023-02-16,62803.0,2950.25,65753.25,4,Long
2023-02-17,62803.0,2787.75,65590.75,5,Long
2023-02-19,62803.0,2669.0,65472.0,5,Long
2023-02-20,62803.0,2765.25,65568.25,5,Long
2023-02-21,62803.0,1442.75,64245.75,5,Long
2023-02-22,62803.0,1709.0,64512.0,5,Long
2023-02-23,62803.0,1740.25,64543.25,5,Long
2023-02-24,62803.0,865.25,63668.25,5,Long
2023-02-26,62803.0,957.75,63760.75,5,Long
2023-02-27,62803.0,1337.75,64140.75,5,Long
2023-02-28,62803.0,981.5,63784.5,5,Long
2023-03-01,62803.0,727.75,63530.75,5,Long
2023-03-02,62803.0,1056.5,63859.5,5,Long
2023-03-03,62803.0,2533.25,65336.25,6,Long
2023-03-05,62803.0,2327.75,65130.75,6,Long
2023-03-06,62803.0,2557.25,65360.25,6,Long
2023-03-07,62803.0,1633.25,64436.25,6,Long
2023-03-08,62803.0,1924.25,64727.25,6,Long
2023-03-09,62803.0,488.75,63291.75,6,Long
2023-03-10,63291.75,0.0,63291.75,0,
2023-03-12,63291.75,0.0,63291.75,0,
2023-03-13,63291.75,0.0,63291.75,0,
2023-03-14,63291.75,0.0,63291.75,0,
2023-03-15,63291.75,0.0,63291.75,0,
2023-03-16,63291.75,960.0,64251.75,3,Long
2023-03-17,63291.75,738.75,64030.5,3,Long
2023-03-19,63291.75,907.5,64199.25,3,Long
2023-03-20,63291.75,868.5,64160.25,3,Long
2023-03-21,63291.75,1395.0,64686.75,3,Long
2023-03-22,63291.75,945.75,64237.5,3,Long
2023-03-23,63291.75,1384.5,64676.25,3,Long
2023-03-24,63291.75,1614.75,64906.5,4,Long
2023-03-26,63291.75,1708.75,65000.5,4,Long
2023-03-27,63291.75,1207.75,64499.5,4,Long
2023-03-28,63291.75,955.75,64247.5,4,Long
2023-03-29,63291.75,1689.75,64981.5,4,Long
2023-03-30,63291.75,2301.75,65593.5,4,Long
2023-03-31,63291.75,3151.75,66443.5,4,Long
2023-04-02,63291.75,2877.75,66169.5,4,Long
2023-04-03,63291.75,2905.75,66197.5,4,Long
2023-04-04,63291.75,2880.75,66172.5,4,Long
2023-04-05,63291.75,2145.75,65437.5,4,Long
2023-04-06,63291.75,2555.75,65847.5,4,Long
2023-04-07,63291.75,2640.75,65932.5,5,Long
2023-04-09,63291.75,2518.25,65810.0,5,Long
2023-04-10,63291.75,2598.25,65890.0,5,Long
2023-04-11,63291.75,2184.5,65476.25,5,Long
2023-04-12,63291.75,1394.5,64686.25,5,Long
2023-04-13,63291.75,2695.75,65987.5,5,Long
2023-04-14,63291.75,2733.25,66025.0,5,Long
2023-04-16,63291.75,2669.5,65961.25,5,Long
2023-04-17,63291.75,2630.75,65922.5,5,Long
2023-04-18,63291.75,2612.0,65903.75,5,Long
2023-04-19,63291.75,2377.0,65668.75,5,Long
2023-04-20,63291.75,2148.25,65440.0,5,Long
2023-04-21,63291.75,2118.25,65410.0,6,Long
2023-04-23,63291.75,2076.25,65368.0,6,Long
2023-04-24,63291.75,1963.75,65255.5,6,Long
2023-04-25,63291.75,1426.75,64718.5,6,Long
2023-04-26,63291.75,1408.75,64700.5,6,Long
2023-04-27,63291.75,2928.25,66220.0,6,Long
2023-04-28,63291.75,3628.75,66920.5,6,Long
2023-04-30,63291.75,3510.25,66802.0,6,Long
2023-05-01,63291.75,3381.25,66673.0,6,Long
2023-05-02,63291.75,2760.25,66052.0,6,Long
2023-05-03,63291.75,2253.25,65545.0,6,Long
2023-05-04,63291.75,2229.25,65521.0,6,Long
2023-05-05,63291.75,3506.5,66798.25,7,Long
2023-05-07,63291.75,3462.75,66754.5,7,Long
2023-05-08,63291.75,3692.0,66983.75,7,Long
2023-05-09,63291.75,3261.5,66553.25,7,Long
2023-05-10,63291.75,4285.25,67577.0,7,Long
2023-05-11,63291.75,4516.25,67808.0,7,Long
2023-05-12,63291.75,3919.5,67211.25,7,Long
2023-05-14,63291.75,3896.75,67188.5,7,Long
2023-05-15,63291.75,4540.75,67832.5,7,Long
2023-05-16,63291.75,4829.5,68121.25,7,Long
2023-05-17,63291.75,5835.75,69127.5,7,Long
2023-05-18,63291.75,7839.5,71131.25,7,Long
2023-05-19,63291.75,7210.25,70502.0,8,Long
2023-05-21,63291.75,7308.25,70600.0,8,Long
2023-05-22,63291.75,8024.25,71316.0,8,Long
2023-05-23,63291.75,6466.25,69758.0,8,Long
2023-05-24,63291.75,7256.25,70548.0,8,Long
2023-05-25,63291.75,8200.25,71492.0,8,Long
2023-05-26,63291.75,11448.25,74740.0,8,Long
2023-05-28,63291.75,11812.25,75104.0,8,Long
2023-05-29,63291.75,11568.25,74860.0,8,Long
2023-05-30,63291.75,11854.25,75146.0,8,Long
2023-05-31,63291.75,10960.25,74252.0,8,Long
2023-06-01,63291.75,12346.25,75638.0,8,Long
2023-06-02,63291.75,13173.25,76465.0,9,Long
2023-06-04,63291.75,12723.25,76015.0,9,Long
2023-06-05,63291.75,12986.5,76278.25,9,Long
2023-06-06,63291.75,13249.75,76541.5,9,Long
2023-06-07,63291.75,10867.0,74158.75,9,Long
2023-06-08,63291.75,12394.75,75686.5,9,Long
2023-06-09,63291.75,12961.75,76253.5,9,Long
2023-06-11,63291.75,13216.0,76507.75,9,Long
2023-06-12,63291.75,16919.5,80211.25,9,Long
2023-06-13,63291.75,17842.0,81133.75,9,Long
2023-06-14,63291.75,18823.0,82114.75,9,Long
2023-06-15,63291.75,20128.0,83419.75,9,Long
2023-06-16,63291.75,19596.0,82887.75,10,Long
2023-06-18,63291.75,19613.5,82905.25,10,Long
2023-06-19,63291.75,19068.5,82360.25,10,Long
2023-06-20,63291.75,19201.0,82492.75,10,Long
2023-06-21,63291.75,16991.0,80282.75,10,Long
2023-06-22,63291.75,18798.5,82090.25,10,Long
2023-06-23,63291.75,17136.0,80427.75,10,Long
2023-06-25,63291.75,17588.5,80880.25,10,Long
2023-06-26,63291.75,15511.0,78802.75,10,Long
2023-06-27,63291.75,17173.5,80465.25,10,Long
2023-06-28,63291.75,18303.5,81595.25,10,Long
2023-06-29,63291.75,17748.5,81040.25,10,Long
2023-06-30,63291.75,19756.0,83047.75,10,Long
2023-07-02,63291.75,20091.0,83382.75,10,Long
2023-07-03,63291.75,19958.5,83250.25,10,Long
2023-07-04,63291.75,19986.0,83277.75,10,Long
2023-07-05,63291.75,20161.0,83452.75,10,Long
2023-07-06,63291.75,18846.0,82137.75,10,Long
2023-07-07,63291.75,18498.5,81790.25,10,Long
2023-07-09,63291.75,18391.0,81682.75,10,Long
2023-07-10,63291.75,18506.0,81797.75,10,Long
2023-07-11,63291.75,19228.5,82520.25,10,Long
2023-07-12,63291.75,21301.0,84592.75,10,Long
2023-07-13,63291.75,23706.0,86997.75,10,Long
2023-07-14,63291.75,23506.0,86797.75,10,Long
2023-07-16,63291.75,23251.0,86542.75,10,Long
2023-07-17,63291.75,24763.5,88055.25,10,Long
2023-07-18,63291.75,26193.5,89485.25,10,Long
2023-07-19,63291.75,25151.0,88442.75,10,Long
2023-07-20,63291.75,22381.0,85672.75,10,Long
2023-07-21,63291.75,22131.0,85422.75,10,Long
2023-07-23,63291.75,22073.5,85365.25,10,Long
2023-07-24,63291.75,22256.0,85547.75,10,Long
2023-07-25,63291.75,22958.5,86250.25,10,Long
2023-07-26,63291.75,23113.5,86405.25,10,Long
2023-07-27,63291.75,22446.0,85737.75,10,Long
2023-07-28,63291.75,25036.0,88327.75,10,Long
2023-07-30,63291.75,25453.5,88745.25,10,Long
2023-07-31,63291.75,25183.5,88475.25,10,Long
2023-08-01,63291.75,24111.0,87402.75,10,Long
2023-08-02,63291.75,21501.0,84792.75,10,Long
2023-08-03,63291.75,21393.5,84685.25,10,Long
2023-08-04,84682.75,0.0,84682.75,0,
2023-08-06,84682.75,0.0,84682.75,0,
2023-08-07,84682.75,0.0,84682.75,0,
2023-08-08,84682.75,0.0,84682.75,0,
2023-08-09,84682.75,0.0,84682.75,0,
2023-08-10,84682.75,0.0,84682.75,0,
2023-08-11,84682.75,0.0,84682.75,0,
2023-08-13,84682.75,0.0,84682.75,0,
2023-08-14,84682.75,0.0,84682.75,0,
2023-08-15,84682.75,0.0,84682.75,0,
2023-08-16,84682.75,0.0,84682.75,0,
2023-08-17,84682.75,0.0,84682.75,0,
2023-08-18,84682.75,0.0,84682.75,0,
2023-08-20,84682.75,0.0,84682.75,0,
2023-08-21,84682.75,0.0,84682.75,0,
2023-08-22,84682.75,0.0,84682.75,0,
2023-08-23,84682.75,0.0,84682.75,0,
2023-08-24,84682.75,0.0,84682.75,0,
2023-08-25,84682.75,0.0,84682.75,0,
2023-08-27,84682.75,0.0,84682.75,0,
2023-08-28,84682.75,0.0,84682.75,0,
2023-08-29,84682.75,1013.25,85696.0,3,Long
2023-08-30,84682.75,1217.25,85900.0,3,Long
2023-08-31,84682.75,1317.75,86000.5,3,Long
2023-09-01,84682.75,1245.75,85928.5,3,Long
2023-09-03,84682.75,1258.5,85941.25,3,Long
2023-09-04,84682.75,1287.0,85969.75,3,Long
2023-09-05,84682.75,1274.25,85957.0,3,Long
2023-09-06,84682.75,882.0,85564.75,3,Long
2023-09-07,84682.75,550.5,85233.25,3,Long
2023-09-08,84682.75,693.25,85376.0,4,Long
2023-09-10,84682.75,726.25,85409.0,4,Long
2023-09-11,84682.75,2069.25,86752.0,4,Long
2023-09-12,84682.75,1457.25,86140.0,4,Long
2023-09-13,84682.75,1753.25,86436.0,4,Long
2023-09-14,84682.75,2143.25,86826.0,4,Long
2023-09-15,84682.75,967.25,85650.0,4,Long
2023-09-17,84682.75,1087.25,85770.0,4,Long
2023-09-18,84682.75,1132.25,85815.0,4,Long
2023-09-19,84682.75,968.25,85651.0,4,Long
2023-09-20,84682.75,-110.75,84572.0,4,Long
2023-09-21,84569.0,0.0,84569.0,0,
2023-09-22,84569.0,0.0,84569.0,0,
2023-09-24,84569.0,0.0,84569.0,0,
2023-09-25,84569.0,0.0,84569.0,0,
2023-09-26,84569.0,0.0,84569.0,0,
2023-09-27,84569.0,0.0,84569.0,0,
2023-09-28,84569.0,0.0,84569.0,0,
2023-09-29,84569.0,0.0,84569.0,0,
2023-10-01,84569.0,0.0,84569.0,0,
2023-10-02,84569.0,0.0,84569.0,0,
2023-10-03,84569.0,0.0,84569.0,0,
2023-10-04,84569.0,0.0,84569.0,0,
2023-10-05,84569.0,0.0,84569.0,0,
2023-10-06,84569.0,0.0,84569.0,0,
2023-10-08,84569.0,0.0,84569.0,0,
2023-10-09,84569.0,0.0,84569.0,0,
2023-10-10,84569.0,0.0,84569.0,0,
2023-10-11,84569.0,382.5,84951.5,3,Long
2023-10-12,84569.0,126.75,84695.75,3,Long
2023-10-13,84569.0,-543.0,84026.0,3,Long
2023-10-15,84065.0,0.0,84065.0,0,
2023-10-16,84065.0,0.0,84065.0,0,
2023-10-17,84065.0,-237.75,83827.25,3,Long
2023-10-18,83824.25,0.0,83824.25,0,
2023-10-19,83824.25,0.0,83824.25,0,
2023-10-20,83824.25,0.0,83824.25,0,
2023-10-22,83824.25,0.0,83824.25,0,
2023-10-23,83824.25,0.0,83824.25,0,
2023-10-24,83824.25,0.0,83824.25,0,
2023-10-25,83824.25,0.0,83824.25,0,
2023-10-26,83824.25,0.0,83824.25,0,
2023-10-27,83824.25,0.0,83824.25,0,
2023-10-29,83824.25,0.0,83824.25,0,
2023-10-30,83824.25,0.0,83824.25,0,
2023-10-31,83824.25,0.0,83824.25,0,
2023-11-01,83824.25,0.0,83824.25,0,
2023-11-02,83824.25,0.0,83824.25,0,
2023-11-03,83824.25,723.0,84547.25,3,Long
2023-11-05,83824.25,696.75,84521.0,3,Long
2023-11-06,83824.25,795.75,84620.0,3,Long
2023-11-07,83824.25,1274.25,85098.5,3,Long
2023-11-08,83824.25,1243.5,85067.75,3,Long
2023-11-09,83824.25,867.75,84692.0,3,Long
2023-11-10,83824.25,1913.25,85737.5,3,Long
2023-11-12,83824.25,1850.25,85674.5,3,Long
2023-11-13,83824.25,1845.0,85669.25,3,Long
2023-11-14,83824.25,2883.75,86708.0,3,Long
2023-11-15,83824.25,2764.5,86588.75,3,Long
2023-11-16,83824.25,2826.75,86651.0,3,Long
2023-11-17,83824.25,2792.25,86616.5,4,Long
2023-11-19,83824.25,2751.25,86575.5,4,Long
2023-11-20,83824.25,3699.25,87523.5,4,Long
2023-11-21,83824.25,3113.25,86937.5,4,Long
2023-11-22,83824.25,3479.25,87303.5,4,Long
2023-11-23,83824.25,3554.25,87378.5,4,Long
2023-11-24,83824.25,3339.25,87163.5,4,Long
2023-11-26,83824.25,3241.25,87065.5,4,Long
2023-11-27,83824.25,3335.25,87159.5,4,Long
2023-11-28,83824.25,3509.25,87333.5,4,Long
2023-11-29,83824.25,3484.25,87308.5,4,Long
2023-11-30,83824.25,3154.25,86978.5,4,Long
2023-12-01,83824.25,3433.0,87257.25,5,Long
2023-12-03,83824.25,3238.0,87062.25,5,Long
2023-12-04,83824.25,2525.5,86349.75,5,Long
2023-12-05,83824.25,2918.0,86742.25,5,Long
2023-12-06,83824.25,2360.5,86184.75,5,Long
2023-12-07,83824.25,3378.0,87202.25,5,Long
2023-12-08,83824.25,3740.5,87564.75,5,Long
2023-12-10,83824.25,3800.5,87624.75,5,Long
2023-12-11,83824.25,5551.75,89376.0,5,Long
2023-12-12,83824.25,6325.5,90149.75,5,Long
2023-12-13,83824.25,7358.0,91182.25,5,Long
2023-12-14,83824.25,7080.5,90904.75,5,Long
2023-12-15,83824.25,7339.0,91163.25,6,Long
2023-12-17,83824.25,7385.5,91209.75,6,Long
2023-12-18,83824.25,7988.5,91812.75,6,Long
2023-12-19,83824.25,8609.5,92433.75,6,Long
2023-12-20,83824.25,7313.5,91137.75,6,Long
2023-12-21,83824.25,8095.0,91919.25,6,Long
2023-12-22,83824.25,8218.0,92042.25,6,Long
2023-12-25,83824.25,8467.0,92291.25,6,Long
2023-12-26,83824.25,8980.0,92804.25,6,Long
2023-12-27,83824.25,9173.5,92997.75,6,Long
2023-12-28,83824.25,9047.5,92871.75,6,Long
2023-12-29,83824.25,8453.5,92277.75,7,Long
2024-01-01,83824.25,8633.75,92458.0,7,Long
2024-01-02,83824.25,6497.0,90321.25,7,Long
2024-01-03,90323.0,0.0,90323.0,0,
2024-01-04,90323.0,0.0,90323.0,0,
2024-01-05,90323.0,0.0,90323.0,0,
2024-01-07,90323.0,0.0,90323.0,0,
2024-01-08,90323.0,0.0,90323.0,0,
2024-01-09,90323.0,0.0,90323.0,0,
2024-01-10,90323.0,0.0,90323.0,0,
2024-01-11,90323.0,0.0,90323.0,0,
2024-01-12,90323.0,0.0,90323.0,0,
2024-01-14,90323.0,0.0,90323.0,0,
2024-01-15,90323.0,0.0,90323.0,0,
2024-01-16,90323.0,130.5,90453.5,3,Long
2024-01-17,90323.0,-246.0,90077.0,3,Long
2024-01-18,90077.0,0.0,90077.0,0,
2024-01-19,90077.0,945.0,91022.0,3,Long
2024-01-21,90077.0,1006.5,91083.5,3,Long
2024-01-22,90077.0,948.75,91025.75,3,Long
2024-01-23,90077.0,1283.25,91360.25,3,Long
2024-01-24,90077.0,1406.25,91483.25,3,Long
2024-01-25,90077.0,1182.75,91259.75,3,Long
2024-01-26,90077.0,1069.5,91146.5,3,Long
2024-01-28,90077.0,994.5,91071.5,3,Long
2024-01-29,90077.0,1721.25,91798.25,3,Long
2024-01-30,90077.0,900.0,90977.0,3,Long
2024-01-31,90077.0,402.75,90479.75,3,Long
2024-02-01,90077.0,1335.75,91412.75,3,Long
2024-02-02,90077.0,1548.0,91625.0,4,Long
2024-02-04,90077.0,1634.0,91711.0,4,Long
2024-02-05,90077.0,1589.0,91666.0,4,Long
2024-02-06,90077.0,1412.0,91489.0,4,Long
2024-02-07,90077.0,2174.0,92251.0,4,Long
2024-02-08,90077.0,2273.0,92350.0,4,Long
2024-02-09,90077.0,2955.0,93032.0,4,Long
2024-02-11,90077.0,2944.0,93021.0,4,Long
2024-02-12,90077.0,2553.0,92630.0,4,Long
2024-02-13,90077.0,1565.0,91642.0,4,Long
2024-02-14,90077.0,2319.0,92396.0,4,Long
2024-02-15,90077.0,2614.0,92691.0,4,Long
2024-02-16,90077.0,1679.25,91756.25,5,Long
2024-02-18,90077.0,1960.5,92037.5,5,Long
2024-02-19,90077.0,1814.25,91891.25,5,Long
2024-02-20,90077.0,914.25,90991.25,5,Long
2024-02-21,90077.0,1593.0,91670.0,5,Long
2024-02-22,90077.0,3280.5,93357.5,5,Long
2024-02-23,90077.0,2878.0,92955.0,5,Long
2024-02-25,90077.0,2985.5,93062.5,5,Long
2024-02-26,90077.0,2888.0,92965.0,5,Long
2024-02-27,90077.0,3098.0,93175.0,5,Long
2024-02-28,90077.0,2421.75,92498.75,5,Long
2024-02-29,90077.0,3370.5,93447.5,5,Long
2024-03-01,90077.0,4656.75,94733.75,6,Long
2024-03-03,90077.0,4788.75,94865.75,6,Long
2024-03-04,90077.0,4067.25,94144.25,6,Long
2024-03-05,90077.0,2502.75,92579.75,6,Long
2024-03-06,90077.0,2838.75,92915.75,6,Long
2024-03-07,90077.0,4325.25,94402.25,6,Long
2024-03-08,90077.0,3059.25,93136.25,6,Long
2024-03-10,90077.0,2984.25,93061.25,6,Long
2024-03-11,90077.0,4491.75,94568.75,6,Long
2024-03-12,90077.0,5598.75,95675.75,6,Long
2024-03-13,90077.0,4965.75,95042.75,6,Long
2024-03-14,90077.0,4158.75,94235.75,6,Long
2024-03-15,90077.0,3102.75,93179.75,7,Long
2024-03-17,90077.0,3211.25,93288.25,7,Long
2024-03-18,90077.0,3998.75,94075.75,7,Long
2024-03-19,90077.0,4537.75,94614.75,7,Long
2024-03-20,90077.0,6709.5,96786.5,7,Long
2024-03-21,90077.0,6781.25,96858.25,7,Long
2024-03-22,90077.0,6606.25,96683.25,7,Long
2024-03-24,90077.0,6760.25,96837.25,7,Long
2024-03-25,90077.0,6441.75,96518.75,7,Long
2024-03-26,90077.0,6083.0,96160.0,7,Long
2024-03-27,90077.0,6020.0,96097.0,7,Long
2024-03-28,90077.0,5915.0,95992.0,7,Long
2024-03-31,90077.0,6917.75,96994.75,7,Long
2024-04-01,90077.0,5950.0,96027.0,7,Long
2024-04-02,90077.0,4957.75,95034.75,7,Long
2024-04-03,90077.0,5778.5,95855.5,7,Long
2024-04-04,90077.0,3298.75,93375.75,7,Long
2024-04-05,90077.0,4847.25,94924.25,8,Long
2024-04-07,90077.0,4915.25,94992.25,8,Long
2024-04-08,90077.0,4777.25,94854.25,8,Long
2024-04-09,90077.0,5307.25,95384.25,8,Long
2024-04-10,90077.0,3631.25,93708.25,8,Long
2024-04-11,90077.0,6285.25,96362.25,8,Long
2024-04-12,90077.0,3735.25,93812.25,8,Long
2024-04-14,90077.0,4265.25,94342.25,8,Long
2024-04-15,94344.25,0.0,94344.25,0,
2024-04-16,94344.25,0.0,94344.25,0,
2024-04-17,94344.25,0.0,94344.25,0,
2024-04-18,94344.25,0.0,94344.25,0,
2024-04-19,94344.25,0.0,94344.25,0,
2024-04-21,94344.25,0.0,94344.25,0,
2024-04-22,94344.25,0.0,94344.25,0,
2024-04-23,94344.25,0.0,94344.25,0,
2024-04-24,94344.25,0.0,94344.25,0,
2024-04-25,94344.25,0.0,94344.25,0,
2024-04-26,94344.25,0.0,94344.25,0,
2024-04-28,94344.25,0.0,94344.25,0,
2024-04-29,94344.25,0.0,94344.25,0,
2024-04-30,94344.25,0.0,94344.25,0,
2024-05-01,94344.25,0.0,94344.25,0,
2024-05-02,94344.25,0.0,94344.25,0,
2024-05-03,94344.25,0.0,94344.25,0,
2024-05-05,94344.25,0.0,94344.25,0,
2024-05-06,94344.25,537.0,94881.25,3,Long
2024-05-07,94344.25,598.5,94942.75,3,Long
2024-05-08,94344.25,471.0,94815.25,3,Long
2024-05-09,94344.25,679.5,95023.75,3,Long
2024-05-10,94344.25,704.25,95048.5,3,Long
2024-05-12,94344.25,722.25,95066.5,3,Long
2024-05-13,94344.25,837.0,95181.25,3,Long
2024-05-14,94344.25,1236.75,95581.0,3,Long
2024-05-15,94344.25,2148.75,96493.0,3,Long
2024-05-16,94344.25,1939.5,96283.75,3,Long
2024-05-17,94344.25,1900.0,96244.25,4,Long
2024-05-19,94344.25,2033.0,96377.25,4,Long
2024-05-20,94344.25,2372.0,96716.25,4,Long
2024-05-21,94344.25,2619.0,96963.25,4,Long
2024-05-22,94344.25,2864.0,97208.25,4,Long
2024-05-23,94344.25,2169.0,96513.25,4,Long
2024-05-24,94344.25,2851.0,97195.25,4,Long
2024-05-26,94344.25,2710.0,97054.25,4,Long
2024-05-27,94344.25,2997.0,97341.25,4,Long
2024-05-28,94344.25,3084.0,97428.25,4,Long
2024-05-29,94344.25,2258.0,96602.25,4,Long
2024-05-30,94344.25,1600.0,95944.25,4,Long
2024-05-31,94344.25,1710.0,96054.25,5,Long
2024-06-02,94344.25,1811.25,96155.5,5,Long
2024-06-03,94344.25,2103.75,96448.0,5,Long
2024-06-04,94344.25,2540.0,96884.25,5,Long
2024-06-05,94344.25,4307.5,98651.75,5,Long
2024-06-06,94344.25,4226.25,98570.5,5,Long
2024-06-07,94344.25,4006.25,98350.5,5,Long
2024-06-09,94344.25,3986.25,98330.5,5,Long
2024-06-10,94344.25,4275.0,98619.25,5,Long
2024-06-11,94344.25,5135.0,99479.25,5,Long
2024-06-12,94344.25,6852.5,101196.75,5,Long
2024-06-13,94344.25,6943.75,101288.0,5,Long
2024-06-14,94344.25,7372.5,101716.75,6,Long
2024-06-16,94344.25,7464.0,101808.25,6,Long
2024-06-17,94344.25,10425.0,104769.25,6,Long
2024-06-18,94344.25,10534.5,104878.75,6,Long
2024-06-19,94344.25,10611.0,104955.25,6,Long
2024-06-20,94344.25,9612.0,103956.25,6,Long
2024-06-21,94344.25,9249.0,103593.25,6,Long
2024-06-23,94344.25,9244.5,103588.75,6,Long
2024-06-24,94344.25,7825.5,102169.75,6,Long
2024-06-25,94344.25,8989.5,103333.75,6,Long
2024-06-26,94344.25,8707.5,103051.75,6,Long
2024-06-27,94344.25,9768.0,104112.25,6,Long
2024-06-28,94344.25,8962.0,103306.25,7,Long
2024-06-30,94344.25,8815.0,103159.25,7,Long
2024-07-01,94344.25,9326.0,103670.25,7,Long
2024-07-02,94344.25,10857.25,105201.5,7,Long
2024-07-03,94344.25,12008.75,106353.0,7,Long
2024-07-04,94344.25,11926.5,106270.75,7,Long
2024-07-05,94344.25,13324.75,107669.0,7,Long
2024-07-07,94344.25,13326.5,107670.75,7,Long
2024-07-08,94344.25,14360.75,108705.0,7,Long
2024-07-09,94344.25,14075.5,108419.75,7,Long
2024-07-10,94344.25,15361.75,109706.0,7,Long
2024-07-11,94344.25,12094.5,106438.75,7,Long
2024-07-12,94344.25,12955.0,107299.25,8,Long
2024-07-14,94344.25,13117.0,107461.25,8,Long
2024-07-15,94344.25,13691.0,108035.25,8,Long
2024-07-16,94344.25,13159.0,107503.25,8,Long
2024-07-17,107503.25,0.0,107503.25,0,
2024-07-18,107503.25,0.0,107503.25,0,
2024-07-19,107503.25,0.0,107503.25,0,
2024-07-21,107503.25,0.0,107503.25,0,
2024-07-22,107503.25,0.0,107503.25,0,
2024-07-23,107503.25,0.0,107503.25,0,
2024-07-24,107503.25,0.0,107503.25,0,
2024-07-25,107503.25,0.0,107503.25,0,
2024-07-26,107503.25,0.0,107503.25,0,
2024-07-28,107503.25,0.0,107503.25,0,
2024-07-29,107503.25,0.0,107503.25,0,
2024-07-30,107503.25,0.0,107503.25,0,
2024-07-31,107503.25,0.0,107503.25,0,
2024-08-01,107503.25,0.0,107503.25,0,
2024-08-02,107503.25,0.0,107503.25,0,
2024-08-04,107503.25,0.0,107503.25,0,
2024-08-05,107503.25,0.0,107503.25,0,
2024-08-06,107503.25,0.0,107503.25,0,
2024-08-07,107503.25,0.0,107503.25,0,
2024-08-08,107503.25,0.0,107503.25,0,
2024-08-09,107503.25,0.0,107503.25,0,
2024-08-11,107503.25,0.0,107503.25,0,
2024-08-12,107503.25,0.0,107503.25,0,
2024-08-13,107503.25,1386.75,108890.0,3,Long
2024-08-14,107503.25,1357.5,108860.75,3,Long
2024-08-15,107503.25,2878.5,110381.75,3,Long
2024-08-16,107503.25,2850.0,110353.25,3,Long
2024-08-18,107503.25,2982.0,110485.25,3,Long
2024-08-19,107503.25,3619.5,111122.75,3,Long
2024-08-20,107503.25,3406.5,110909.75,3,Long
2024-08-21,107503.25,3846.0,111349.25,3,Long
2024-08-22,107503.25,2952.75,110456.0,3,Long
2024-08-23,107503.25,3383.5,110886.75,4,Long
2024-08-25,107503.25,3324.5,110827.75,4,Long
2024-08-26,107503.25,2557.5,110060.75,4,Long
2024-08-27,107503.25,2620.5,110123.75,4,Long
2024-08-28,107503.25,1043.5,108546.75,4,Long
2024-08-29,107503.25,1992.5,109495.75,4,Long
2024-08-30,107503.25,2648.5,110151.75,4,Long
2024-09-01,107503.25,2616.5,110119.75,4,Long
2024-09-02,107503.25,2594.5,110097.75,4,Long
2024-09-03,107503.25,102.5,107605.75,4,Long
2024-09-04,107503.25,3.5,107506.75,4,Long
2024-09-05,107503.25,-77.5,107425.75,4,Long
2024-09-06,107421.75,0.0,107421.75,0,
2024-09-08,107421.75,0.0,107421.75,0,
2024-09-09,107421.75,0.0,107421.75,0,
2024-09-10,107421.75,0.0,107421.75,0,
2024-09-11,107421.75,0.0,107421.75,0,
2024-09-12,107421.75,0.0,107421.75,0,
2024-09-13,107421.75,153.75,107575.5,3,Long
2024-09-15,107421.75,257.25,107679.0,3,Long
2024-09-16,107421.75,660.75,108082.5,3,Long
2024-09-17,107421.75,758.25,108180.0,3,Long
2024-09-18,107421.75,932.25,108354.0,3,Long
2024-09-19,107421.75,1789.5,109211.25,3,Long
2024-09-20,107421.75,1685.25,109107.0,3,Long
2024-09-22,107421.75,1828.5,109250.25,3,Long
2024-09-23,107421.75,1847.25,109269.0,3,Long
2024-09-24,107421.75,2181.0,109602.75,3,Long
2024-09-25,107421.75,2475.0,109896.75,3,Long
2024-09-26,107421.75,2673.75,110095.5,3,Long
2024-09-27,107421.75,2202.5,109624.25,4,Long
2024-09-29,107421.75,2518.5,109940.25,4,Long
2024-09-30,107421.75,2418.5,109840.25,4,Long
2024-10-01,107421.75,1158.5,108580.25,4,Long
2024-10-02,107421.75,1647.5,109069.25,4,Long
2024-10-03,107421.75,1360.5,108782.25,4,Long
2024-10-04,107421.75,2241.5,109663.25,4,Long
2024-10-06,107421.75,2350.5,109772.25,4,Long
2024-10-07,107421.75,1360.5,108782.25,4,Long
2024-10-08,107421.75,2520.5,109942.25,4,Long
2024-10-09,107421.75,3229.5,110651.25,4,Long
2024-10-10,107421.75,3234.5,110656.25,4,Long
2024-10-11,107421.75,3016.0,110437.75,5,Long
2024-10-13,107421.75,3089.75,110511.5,5,Long
2024-10-14,107421.75,4113.5,111535.25,5,Long
2024-10-15,107421.75,2713.5,110135.25,5,Long
2024-10-16,107421.75,2523.5,109945.25,5,Long
2024-10-17,107421.75,2979.75,110401.5,5,Long
2024-10-18,107421.75,3376.0,110797.75,5,Long
2024-10-20,107421.75,3522.25,110944.0,5,Long
2024-10-21,107421.75,3533.5,110955.25,5,Long
2024-10-22,107421.75,3602.25,111024.0,5,Long
2024-10-23,107421.75,2404.75,109826.5,5,Long
2024-10-24,107421.75,2859.75,110281.5,5,Long
2024-10-25,107421.75,3298.5,110720.25,6,Long
2024-10-27,107421.75,4026.0,111447.75,6,Long
2024-10-28,107421.75,3483.0,110904.75,6,Long
2024-10-29,107421.75,4923.0,112344.75,6,Long
2024-10-30,107421.75,2994.0,110415.75,6,Long
2024-10-31,107421.75,879.0,108300.75,6,Long
2024-11-01,107421.75,1452.0,108873.75,6,Long
2024-11-03,107421.75,1245.0,108666.75,6,Long
2024-11-04,107421.75,964.5,108386.25,6,Long
2024-11-05,107421.75,2499.0,109920.75,6,Long
2024-11-06,107421.75,5781.0,113202.75,6,Long
2024-11-07,107421.75,7795.5,115217.25,6,Long
2024-11-08,107421.75,7806.0,115227.75,7,Long
2024-11-10,107421.75,8345.0,115766.75,7,Long
2024-11-11,107421.75,7729.0,115150.75,7,Long
2024-11-12,107421.75,7337.0,114758.75,7,Long
2024-11-13,107421.75,7379.0,114800.75,7,Long
2024-11-14,107421.75,5863.5,113285.25,7,Long
2024-11-15,107421.75,2741.5,110163.25,7,Long
2024-11-17,107421.75,3194.75,110616.5,7,Long
2024-11-18,107421.75,3572.75,110994.5,7,Long
2024-11-19,107421.75,4698.0,112119.75,7,Long
2024-11-20,107421.75,4484.5,111906.25,7,Long
2024-11-21,107421.75,4631.5,112053.25,7,Long
2024-11-22,107421.75,5408.5,112830.25,8,Long
2024-11-24,107421.75,5866.5,113288.25,8,Long
2024-11-25,107421.75,5054.5,112476.25,8,Long
2024-11-26,107421.75,6266.5,113688.25,8,Long
2024-11-27,107421.75,4966.5,112388.25,8,Long
2024-11-28,107421.75,5482.5,112904.25,8,Long
2024-11-29,107421.75,6312.5,113734.25,8,Long
2024-12-01,107421.75,6096.5,113518.25,8,Long
2024-12-02,107421.75,8090.5,115512.25,8,Long
2024-12-03,107421.75,9042.5,116464.25,8,Long
2024-12-04,107421.75,10462.5,117884.25,8,Long
2024-12-05,107421.75,10026.5,117448.25,8,Long
2024-12-06,107421.75,11443.5,118865.25,9,Long
2024-12-08,107421.75,11657.25,119079.0,9,Long
2024-12-09,107421.75,9927.0,117348.75,9,Long
2024-12-10,107421.75,9594.0,117015.75,9,Long
2024-12-11,107421.75,12561.75,119983.5,9,Long
2024-12-12,107421.75,12438.0,119859.75,9,Long
2024-12-13,107421.75,12582.0,120003.75,9,Long
2024-12-15,107421.75,12840.75,120262.5,9,Long
2024-12-16,107421.75,15628.5,123050.25,9,Long
2024-12-17,107421.75,17205.75,124627.5,9,Long
2024-12-18,124627.5,0.0,124627.5,0,
2024-12-19,124627.5,0.0,124627.5,0,
2024-12-20,124627.5,0.0,124627.5,0,
2024-12-22,124627.5,0.0,124627.5,0,
2024-12-23,124627.5,0.0,124627.5,0,
2024-12-24,124627.5,0.0,124627.5,0,
2024-12-25,124627.5,0.0,124627.5,0,
2024-12-26,124627.5,0.0,124627.5,0,
2024-12-27,124627.5,0.0,124627.5,0,
2024-12-29,124627.5,0.0,124627.5,0,
2024-12-30,124627.5,0.0,124627.5,0,
2024-12-31,124627.5,0.0,124627.5,0,
2025-01-01,124627.5,0.0,124627.5,0,
2025-01-02,124627.5,0.0,124627.5,0,
2025-01-03,124627.5,0.0,124627.5,0,
2025-01-05,124627.5,0.0,124627.5,0,
2025-01-06,124627.5,0.0,124627.5,0,
2025-01-07,124627.5,0.0,124627.5,0,
2025-01-08,124627.5,0.0,124627.5,0,
2025-01-09,124627.5,0.0,124627.5,0,
2025-01-10,124627.5,0.0,124627.5,0,
2025-01-12,124627.5,0.0,124627.5,0,
2025-01-13,124627.5,0.0,124627.5,0,
2025-01-14,124627.5,0.0,124627.5,0,
2025-01-15,124627.5,0.0,124627.5,0,
2025-01-16,124627.5,0.0,124627.5,0,
2025-01-17,124627.5,0.0,124627.5,0,
2025-01-19,124627.5,0.0,124627.5,0,
2025-01-20,124627.5,0.0,124627.5,0,
2025-01-21,124627.5,0.0,124627.5,0,
2025-01-22,124627.5,467.25,125094.75,3,Long
2025-01-23,124627.5,603.0,125230.5,3,Long
2025-01-24,124627.5,296.25,124923.75,3,Long
2025-01-26,124627.5,-431.25,124196.25,3,Long
2025-01-27,124195.5,0.0,124195.5,0,
2025-01-28,124195.5,0.0,124195.5,0,
2025-01-29,124195.5,0.0,124195.5,0,
2025-01-30,124195.5,0.0,124195.5,0,
2025-01-31,124195.5,0.0,124195.5,0,
2025-02-02,124195.5,0.0,124195.5,0,
2025-02-03,124195.5,0.0,124195.5,0,
2025-02-04,124195.5,0.0,124195.5,0,
2025-02-05,124195.5,0.0,124195.5,0,
2025-02-06,124195.5,0.0,124195.5,0,
2025-02-07,124195.5,-833.25,123362.25,3,Long
2025-02-09,123030.0,0.0,123030.0,0,
2025-02-10,123030.0,0.0,123030.0,0,
2025-02-11,123030.0,0.0,123030.0,0,
2025-02-12,123030.0,233.25,123263.25,3,Long
2025-02-13,123030.0,822.0,123852.0,3,Long
2025-02-14,123030.0,1177.5,124207.5,3,Long
2025-02-16,123030.0,1203.0,124233.0,3,Long
2025-02-17,123030.0,1230.0,124260.0,3,Long
2025-02-18,123030.0,1320.0,124350.0,3,Long
2025-02-19,123030.0,1221.0,124251.0,3,Long
2025-02-20,123030.0,1053.0,124083.0,3,Long
2025-02-21,123030.0,-453.0,122577.0,3,Long
2025-02-23,122700.75,0.0,122700.75,0,
2025-02-24,122700.75,0.0,122700.75,0,
2025-02-25,122700.75,0.0,122700.75,0,
2025-02-26,122700.75,0.0,122700.75,0,
2025-02-27,122700.75,0.0,122700.75,0,
2025-02-28,122700.75,0.0,122700.75,0,
2025-03-02,122700.75,0.0,122700.75,0,
2025-03-03,122700.75,0.0,122700.75,0,
2025-03-04,122700.75,0.0,122700.75,0,
2025-03-05,122700.75,0.0,122700.75,0,
2025-03-06,122700.75,0.0,122700.75,0,
2025-03-07,122700.75,0.0,122700.75,0,
2025-03-09,122700.75,0.0,122700.75,0,
2025-03-10,122700.75,0.0,122700.75,0,
2025-03-11,122700.75,0.0,122700.75,0,
2025-03-12,122700.75,0.0,122700.75,0,
2025-03-13,122700.75,0.0,122700.75,0,
2025-03-14,122700.75,0.0,122700.75,0,
2025-03-16,122700.75,0.0,122700.75,0,
2025-03-17,122700.75,0.0,122700.75,0,
2025-03-18,122700.75,0.0,122700.75,0,
2025-03-19,122700.75,0.0,122700.75,0,
2025-03-20,122700.75,0.0,122700.75,0,
2025-03-21,122700.75,0.0,122700.75,0,
2025-03-23,122700.75,0.0,122700.75,0,
2025-03-24,122700.75,0.0,122700.75,0,
2025-03-25,122700.75,0.0,122700.75,0,
2025-03-26,122700.75,0.0,122700.75,0,
2025-03-27,122700.75,0.0,122700.75,0,
2025-03-28,122700.75,0.0,122700.75,0,
2025-03-30,122700.75,0.0,122700.75,0,
2025-03-31,122700.75,0.0,122700.75,0,
2025-04-01,122700.75,0.0,122700.75,0,
2025-04-02,122700.75,0.0,122700.75,0,
2025-04-03,122700.75,0.0,122700.75,0,
2025-04-04,122700.75,0.0,122700.75,0,
2025-04-06,122700.75,0.0,122700.75,0,
2025-04-07,122700.75,0.0,122700.75,0,
2025-04-08,122700.75,0.0,122700.75,0,
2025-04-09,122700.75,6963.75,129664.5,3,Long
2025-04-10,122700.75,4094.25,126795.0,3,Long
2025-04-11,122700.75,5481.0,128181.75,3,Long
2025-04-13,122700.75,6063.0,128763.75,3,Long
2025-04-14,122700.75,5574.75,128275.5,3,Long
2025-04-15,122700.75,5208.75,127909.5,3,Long
2025-04-16,122700.75,4231.5,126932.25,3,Long
2025-04-17,122700.75,4314.0,127014.75,3,Long
2025-04-20,122700.75,3966.75,126667.5,3,Long
2025-04-21,122700.75,3033.75,125734.5,3,Long
2025-04-22,122700.75,5307.75,128008.5,3,Long
2025-04-23,122700.75,5542.5,128243.25,3,Long
2025-04-24,122700.75,7261.5,129962.25,3,Long
2025-04-25,122700.75,7768.75,130469.5,4,Long
2025-04-27,122700.75,7366.75,130067.5,4,Long
2025-04-28,122700.75,7663.75,130364.5,4,Long
2025-04-29,122700.75,7802.75,130503.5,4,Long
2025-04-30,122700.75,9217.75,131918.5,4,Long
2025-05-01,122700.75,8710.75,131411.5,4,Long
2025-05-02,122700.75,10351.75,133052.5,4,Long
2025-05-04,122700.75,9890.75,132591.5,4,Long
2025-05-05,122700.75,9583.75,132284.5,4,Long
2025-05-06,122700.75,9819.75,132520.5,4,Long
2025-05-07,122700.75,9358.75,132059.5,4,Long
2025-05-08,122700.75,10106.75,132807.5,4,Long
2025-05-09,122700.75,10139.75,132840.5,5,Long
2025-05-11,122700.75,11672.25,134373.0,5,Long
2025-05-12,122700.75,13949.75,136650.5,5,Long
2025-05-13,122700.75,15868.5,138569.25,5,Long
2025-05-14,122700.75,16284.75,138985.5,5,Long
2025-05-15,122700.75,16481.0,139181.75,5,Long
2025-05-16,122700.75,16428.5,139129.25,5,Long
2025-05-18,122700.75,16314.75,139015.5,5,Long
2025-05-19,122700.75,17106.0,139806.75,5,Long
2025-05-20,122700.75,16566.0,139266.75,5,Long
2025-05-21,122700.75,15143.5,137844.25,5,Long
2025-05-22,122700.75,15301.0,138001.75,5,Long
2025-05-23,122700.75,14111.0,136811.75,6,Long
2025-05-25,122700.75,15524.0,138224.75,6,Long
2025-05-26,122700.75,15807.5,138508.25,6,Long
2025-05-27,122700.75,17214.5,139915.25,6,Long
2025-05-28,122700.75,18987.5,141688.25,6,Long
2025-05-29,122700.75,16293.5,138994.25,6,Long
2025-05-30,122700.75,16605.5,139306.25,6,Long
2025-06-01,122700.75,16212.5,138913.25,6,Long
2025-06-02,122700.75,17360.0,140060.75,6,Long
2025-06-03,122700.75,18623.0,141323.75,6,Long
2025-06-04,122700.75,18839.0,141539.75,6,Long
2025-06-05,122700.75,17667.5,140368.25,6,Long
2025-06-06,122700.75,19259.75,141960.5,7,Long
2025-06-08,122700.75,18923.75,141624.5,7,Long
2025-06-09,122700.75,19415.5,142116.25,7,Long
2025-06-10,122700.75,20274.75,142975.5,7,Long
2025-06-11,122700.75,19461.0,142161.75,7,Long
2025-06-12,122700.75,19079.5,141780.25,7,Long
2025-06-13,122700.75,18169.5,140870.25,7,Long
2025-06-15,122700.75,18402.25,141103.0,7,Long
2025-06-16,122700.75,20701.75,143402.5,7,Long
2025-06-17,122700.75,19930.0,142630.75,7,Long
2025-06-18,122700.75,20232.75,142933.5,7,Long
2025-06-19,122700.75,19800.5,142501.25,7,Long
2025-06-20,122700.75,19776.0,142476.75,8,Long
2025-06-22,122700.75,18870.0,141570.75,8,Long
2025-06-23,122700.75,22674.0,145374.75,8,Long
2025-06-24,122700.75,24178.0,146878.75,8,Long
2025-06-25,122700.75,24504.0,147204.75,8,Long
2025-06-26,122700.75,26206.0,148906.75,8,Long
2025-06-27,122700.75,26706.0,149406.75,8,Long
2025-06-29,122700.75,27322.0,150022.75,8,Long
2025-06-30,122700.75,27836.0,150536.75,8,Long
2025-07-01,122700.75,26450.0,149150.75,8,Long
2025-07-02,122700.75,27572.0,150272.75,8,Long
2025-07-03,122700.75,29062.0,151762.75,8,Long
2025-07-04,122700.75,28020.0,150720.75,9,Long
2025-07-06,122700.75,28733.25,151434.0,9,Long
2025-07-07,122700.75,27745.5,150446.25,9,Long
2025-07-08,122700.75,27990.75,150691.5,9,Long
2025-07-09,122700.75,29194.5,151895.25,9,Long
2025-07-10,122700.75,29280.0,151980.75,9,Long
2025-07-11,122700.75,28314.75,151015.5,9,Long
2025-07-13,122700.75,27678.0,150378.75,9,Long
2025-07-14,122700.75,28983.0,151683.75,9,Long
2025-07-15,122700.75,29007.75,151708.5,9,Long
2025-07-16,122700.75,29244.0,151944.75,9,Long
2025-07-17,122700.75,31401.75,154102.5,9,Long
2025-07-18,122700.75,30953.5,153654.25,10,Long
2025-07-20,122700.75,31266.0,153966.75,10,Long
2025-07-21,122700.75,32131.0,154831.75,10,Long
2025-07-22,122700.75,31283.5,153984.25,10,Long
2025-07-23,122700.75,32676.0,155376.75,10,Long
2025-07-24,122700.75,32728.5,155429.25,10,Long
2025-07-25,122700.75,33138.5,155839.25,10,Long
2025-07-27,122700.75,34008.5,156709.25,10,Long
2025-07-28,122700.75,33951.0,156651.75,10,Long
2025-07-29,122700.75,33413.5,156114.25,10,Long
2025-07-30,122700.75,35916.0,158616.75,10,Long
2025-07-31,122700.75,31641.0,154341.75,10,Long
2025-08-01,154349.25,0.0,154349.25,0,
2025-08-03,154349.25,0.0,154349.25,0,
2025-08-04,154349.25,0.0,154349.25,0,
2025-08-05,154349.25,0.0,154349.25,0,
2025-08-06,154349.25,0.0,154349.25,0,
2025-08-07,154349.25,0.0,154349.25,0,
2025-08-08,154349.25,682.5,155031.75,3,Long
2025-08-10,154349.25,504.0,154853.25,3,Long
2025-08-11,154349.25,291.0,154640.25,3,Long
2025-08-12,154349.25,1262.25,155611.5,3,Long
2025-08-13,154349.25,1228.5,155577.75,3,Long
2025-08-14,154349.25,1047.0,155396.25,3,Long
2025-08-15,154349.25,770.25,155119.5,3,Long
2025-08-17,154349.25,933.75,155283.0,3,Long
2025-08-18,154349.25,795.0,155144.25,3,Long
2025-08-19,154349.25,-353.25,153996.0,3,Long
2025-08-20,153998.25,0.0,153998.25,0,
2025-08-21,153998.25,0.0,153998.25,0,
2025-08-22,153998.25,0.0,153998.25,0,
2025-08-24,153998.25,-76.5,153921.75,3,Long
2025-08-25,153998.25,-310.5,153687.75,3,Long
2025-08-26,153687.0,0.0,153687.0,0,
2025-08-27,153687.0,-318.75,153368.25,3,Long
2025-08-28,153368.25,0.0,153368.25,0,
2025-08-29,153368.25,-879.0,152489.25,3,Long
2025-08-31,152561.25,0.0,152561.25,0,
2025-09-01,152561.25,0.0,152561.25,0,
2025-09-02,152561.25,0.0,152561.25,0,
2025-09-03,152561.25,0.0,152561.25,0,
2025-09-04,152561.25,0.0,152561.25,0,
2025-09-05,152561.25,-99.75,152461.5,3,Long
2025-09-07,152561.25,214.5,152775.75,3,Long
2025-09-08,152561.25,303.0,152864.25,3,Long
2025-09-09,152561.25,538.5,153099.75,3,Long
2025-09-10,152561.25,583.5,153144.75,3,Long
2025-09-11,152561.25,939.0,153500.25,3,Long
2025-09-12,152561.25,1224.75,153786.0,3,Long
2025-09-14,152561.25,1214.25,153775.5,3,Long
2025-09-15,152561.25,1796.25,154357.5,3,Long
2025-09-16,152561.25,2510.25,155071.5,3,Long
2025-09-17,152561.25,2633.25,155194.5,3,Long
2025-09-18,152561.25,3101.25,155662.5,3,Long
2025-09-19,152561.25,3482.25,156043.5,4,Long
2025-09-21,152561.25,3442.25,156003.5,4,Long
2025-09-22,152561.25,4027.25,156588.5,4,Long
2025-09-23,152561.25,3400.25,155961.5,4,Long
2025-09-24,152561.25,3060.25,155621.5,4,Long
2025-09-25,152561.25,2504.25,155065.5,4,Long
2025-09-26,152561.25,2947.25,155508.5,4,Long
2025-09-28,152561.25,3126.25,155687.5,4,Long
2025-09-29,152561.25,3333.25,155894.5,4,Long
2025-09-30,152561.25,3358.25,155919.5,4,Long
2025-10-01,152561.25,4127.25,156688.5,4,Long
2025-10-02,152561.25,4534.25,157095.5,4,Long
2025-10-03,152561.25,3926.0,156487.25,5,Long
2025-10-05,152561.25,4352.25,156913.5,5,Long
2025-10-06,152561.25,4728.5,157289.75,5,Long
2025-10-07,152561.25,4186.0,156747.25,5,Long
2025-10-08,152561.25,5913.5,158474.75,5,Long
2025-10-09,152561.25,5693.5,158254.75,5,Long
2025-10-10,158257.25,0.0,158257.25,0,
2025-10-12,158257.25,0.0,158257.25,0,
2025-10-13,158257.25,0.0,158257.25,0,
2025-10-14,158257.25,0.0,158257.25,0,
2025-10-15,158257.25,0.0,158257.25,0,
2025-10-16,158257.25,0.0,158257.25,0,
2025-10-17,158257.25,0.0,158257.25,0,
2025-10-19,158257.25,0.0,158257.25,0,
2025-10-20,158257.25,0.0,158257.25,0,
2025-10-21,158257.25,0.0,158257.25,0,
2025-10-22,158257.25,0.0,158257.25,0,
2025-10-23,158257.25,0.0,158257.25,0,
2025-10-24,158257.25,0.0,158257.25,0,
2025-10-26,158257.25,56.25,158313.5,3,Long
2025-10-27,158257.25,888.75,159146.0,3,Long
2025-10-28,158257.25,1456.5,159713.75,3,Long
2025-10-29,158257.25,1611.75,159869.0,3,Long
2025-10-30,158257.25,1416.0,159673.25,3,Long
2025-10-31,158257.25,855.75,159113.0,3,Long
2025-11-02,158257.25,1146.75,159404.0,3,Long
2025-11-03,158257.25,1111.5,159368.75,3,Long
2025-11-04,158257.25,-584.25,157673.0,3,Long
2025-11-05,157674.5,0.0,157674.5,0,
2025-11-06,157674.5,-1368.0,156306.5,3,Long
2025-11-07,156306.5,0.0,156306.5,0,
2025-11-09,156306.5,0.0,156306.5,0,
2025-11-10,156306.5,0.0,156306.5,0,
2025-11-11,156306.5,-275.25,156031.25,3,Long
2025-11-12,156032.0,0.0,156032.0,0,
2025-11-13,156032.0,0.0,156032.0,0,
2025-11-14,156032.0,0.0,156032.0,0,
2025-11-16,156032.0,0.0,156032.0,0,
2025-11-17,156032.0,0.0,156032.0,0,
2025-11-18,156032.0,0.0,156032.0,0,
2025-11-19,156032.0,0.0,156032.0,0,
2025-11-20,156032.0,0.0,156032.0,0,
2025-11-21,156032.0,0.0,156032.0,0,
2025-11-23,156032.0,0.0,156032.0,0,
2025-11-24,156032.0,0.0,156032.0,0,
2025-11-25,156032.0,0.0,156032.0,0,
2025-11-26,156032.0,0.0,156032.0,0,
2025-11-27,156032.0,0.0,156032.0,0,
2025-11-28,156032.0,0.0,156032.0,0,
2025-11-30,156032.0,0.0,156032.0,0,
2025-12-01,156032.0,0.0,156032.0,0,
2025-12-02,156032.0,0.0,156032.0,0,
2025-12-03,156032.0,0.0,156032.0,0,
2025-12-04,156032.0,0.0,156032.0,0,
2025-12-05,156032.0,0.0,156032.0,0,
2025-12-07,156032.0,0.0,156032.0,0,
2025-12-08,156032.0,0.0,156032.0,0,
2025-12-09,156032.0,0.0,156032.0,0,
2025-12-10,156032.0,0.0,156032.0,0,
2025-12-11,156032.0,0.0,156032.0,0,
2025-12-12,156032.0,0.0,156032.0,0,
2025-12-14,156032.0,0.0,156032.0,0,
2025-12-15,156032.0,0.0,156032.0,0,
2025-12-16,156032.0,0.0,156032.0,0,
2025-12-17,156032.0,0.0,156032.0,0,
2025-12-18,156032.0,0.0,156032.0,0,
2025-12-19,156032.0,0.0,156032.0,0,
2025-12-21,156032.0,0.0,156032.0,0,
2025-12-22,156032.0,0.0,156032.0,0,
2025-12-23,156032.0,0.0,156032.0,0,
2025-12-24,156032.0,155.25,156187.25,3,Long
2025-12-25,156032.0,231.75,156263.75,3,Long
2025-12-26,156032.0,141.0,156173.0,3,Long
2025-12-28,156032.0,180.0,156212.0,3,Long
2025-12-29,156032.0,-309.0,155723.0,3,Long
2025-12-30,155723.75,0.0,155723.75,0,
2025-12-31,155723.75,0.0,155723.75,0,
2026-01-01,155723.75,0.0,155723.75,0,
2026-01-02,155723.75,0.0,155723.75,0,
2026-01-04,155723.75,0.0,155723.75,0,
2026-01-05,155723.75,0.0,155723.75,0,
2026-01-06,155723.75,0.0,155723.75,0,
2026-01-07,155723.75,-5.25,155718.5,3,Long
2026-01-08,155723.75,-448.5,155275.25,3,Long
2026-01-09,155273.75,0.0,155273.75,0,
2026-01-11,155273.75,-157.5,155116.25,3,Long
2026-01-12,155273.75,-152.25,155121.5,3,Long
2026-01-13,155273.75,-166.5,155107.25,3,Long
2026-01-14,155273.75,-1023.0,154250.75,3,Long
2026-01-15,154250.75,0.0,154250.75,0,
2026-01-16,154250.75,0.0,154250.75,0,
2026-01-18,154250.75,0.0,154250.75,0,
2026-01-19,154250.75,0.0,154250.75,0,
2026-01-20,154250.75,0.0,154250.75,0,
2026-01-21,154250.75,0.0,154250.75,0,
2026-01-22,154250.75,0.0,154250.75,0,
2026-01-23,154250.75,0.0,154250.75,0,
2026-01-25,154250.75,0.0,154250.75,0,
2026-01-26,154250.75,0.0,154250.75,0,
2026-01-27,154250.75,744.0,154994.75,3,Long
2026-01-28,154250.75,839.25,155090.0,3,Long
2026-01-29,154250.75,245.25,154496.0,3,Long
2026-01-30,154250.75,-754.5,153496.25,3,Long
2026-02-01,153170.0,0.0,153170.0,0,
2026-02-02,153170.0,0.0,153170.0,0,
2026-02-03,153170.0,-1561.5,151608.5,3,Long
2026-02-04,151607.0,0.0,151607.0,0,
2026-02-05,151607.0,0.0,151607.0,0,
2026-02-06,151607.0,0.0,151607.0,0,
2026-02-08,151607.0,0.0,151607.0,0,
2026-02-09,151607.0,0.0,151607.0,0,
2026-02-10,151607.0,0.0,151607.0,0,
2026-02-11,151607.0,0.0,151607.0,0,
2026-02-12,151607.0,0.0,151607.0,0,
2026-02-13,151607.0,0.0,151607.0,0,
2026-02-15,151607.0,0.0,151607.0,0,
2026-02-16,151607.0,0.0,151607.0,0,
2026-02-17,151607.0,0.0,151607.0,0,
2026-02-18,151607.0,0.0,151607.0,0,
2026-02-19,151607.0,0.0,151607.0,0,
2026-02-20,151607.0,0.0,151607.0,0,
2026-02-22,151607.0,0.0,151607.0,0,
2026-02-23,151607.0,0.0,151607.0,0,
2026-02-24,151607.0,0.0,151607.0,0,
2026-02-25,151607.0,0.0,151607.0,0,
2026-02-26,151607.0,0.0,151607.0,0,
2026-02-27,151607.0,0.0,151607.0,0,
2026-03-01,151607.0,0.0,151607.0,0,
2026-03-02,151607.0,0.0,151607.0,0,
2026-03-03,151607.0,0.0,151607.0,0,
2026-03-04,151607.0,0.0,151607.0,0,
2026-03-05,151607.0,0.0,151607.0,0,
2026-03-06,151607.0,0.0,151607.0,0,
2026-03-08,151607.0,0.0,151607.0,0,
