date,realized_points,open_unrealized_points,total_equity_points,open_units,direction
2019-05-05,0.0,0.0,0.0,0,
2019-05-06,0.0,0.0,0.0,0,
2019-05-07,0.0,0.0,0.0,0,
2019-05-08,0.0,0.0,0.0,0,
2019-05-09,0.0,0.0,0.0,0,
2019-05-10,0.0,0.0,0.0,0,
2019-05-12,0.0,0.0,0.0,0,
2019-05-13,0.0,0.0,0.0,0,
2019-05-14,0.0,0.0,0.0,0,
2019-05-15,0.0,0.0,0.0,0,
2019-05-16,0.0,0.0,0.0,0,
2019-05-17,0.0,0.0,0.0,0,
2019-05-19,0.0,0.0,0.0,0,
2019-05-20,0.0,0.0,0.0,0,
2019-05-21,0.0,0.0,0.0,0,
2019-05-22,0.0,0.0,0.0,0,
2019-05-23,0.0,0.0,0.0,0,
2019-05-24,0.0,0.0,0.0,0,
2019-05-26,0.0,0.0,0.0,0,
2019-05-27,0.0,0.0,0.0,0,
2019-05-28,0.0,0.0,0.0,0,
2019-05-29,0.0,0.0,0.0,0,
2019-05-30,0.0,0.0,0.0,0,
2019-05-31,0.0,0.0,0.0,0,
2019-06-02,0.0,0.0,0.0,0,
2019-06-03,0.0,0.0,0.0,0,
2019-06-04,0.0,0.0,0.0,0,
2019-06-05,0.0,0.0,0.0,0,
2019-06-06,0.0,0.0,0.0,0,
2019-06-07,0.0,0.0,0.0,0,
2019-06-09,0.0,-5.25,-5.25,1,Long
2019-06-10,-5.25,0.0,-5.25,0,
2019-06-11,-5.25,6.25,1.0,1,Long
2019-06-12,-5.25,-18.0,-23.25,1,Long
2019-06-13,-5.25,-12.25,-17.5,1,Long
2019-06-14,-5.25,-23.75,-29.0,1,Long
2019-06-16,-5.25,18.25,13.0,1,Long
2019-06-17,-5.25,55.0,49.75,1,Long
2019-06-18,-5.25,177.25,172.0,1,Long
2019-06-19,-5.25,219.5,214.25,1,Long
2019-06-20,-5.25,256.0,250.75,1,Long
2019-06-21,-5.25,238.5,233.25,2,Long
2019-06-23,-5.25,286.0,280.75,2,Long
2019-06-24,-5.25,263.5,258.25,2,Long
2019-06-25,-5.25,-2.0,-7.25,2,Long
2019-06-26,-5.25,53.0,47.75,2,Long
2019-06-27,-5.25,137.0,131.75,2,Long
2019-06-28,-5.25,193.5,188.25,2,Long
2019-06-30,-5.25,350.5,345.25,2,Long
2019-07-01,-5.25,300.5,295.25,2,Long
2019-07-02,-5.25,416.5,411.25,2,Long
2019-07-03,-5.25,525.5,520.25,2,Long
2019-07-04,-5.25,554.0,548.75,2,Long
2019-07-05,-5.25,455.0,449.75,3,Long
2019-07-07,-5.25,419.0,413.75,3,Long
2019-07-08,-5.25,272.75,267.5,3,Long
2019-07-09,-5.25,431.75,426.5,3,Long
2019-07-10,-5.25,672.5,667.25,3,Long
2019-07-11,-5.25,656.0,650.75,3,Long
2019-07-12,-5.25,764.75,759.5,3,Long
2019-07-14,-5.25,746.75,741.5,3,Long
2019-07-15,-5.25,874.25,869.0,3,Long
2019-07-16,-5.25,715.25,710.0,3,Long
2019-07-17,-5.25,509.75,504.5,3,Long
2019-07-18,-5.25,728.0,722.75,3,Long
2019-07-19,-5.25,347.75,342.5,4,Long
2019-07-21,-5.25,475.75,470.5,4,Long
2019-07-22,-5.25,786.75,781.5,4,Long
2019-07-23,-5.25,885.75,880.5,4,Long
2019-07-24,-5.25,1138.75,1133.5,4,Long
2019-07-25,-5.25,1042.75,1037.5,4,Long
2019-07-26,-5.25,1131.75,1126.5,4,Long
2019-07-28,-5.25,1143.75,1138.5,4,Long
2019-07-29,-5.25,1111.75,1106.5,4,Long
2019-07-30,-5.25,1029.75,1024.5,4,Long
2019-07-31,-5.25,421.75,416.5,4,Long
2019-08-01,-5.25,214.75,209.5,4,Long
2019-08-02,213.5,0.0,213.5,0,
2019-08-04,213.5,0.0,213.5,0,
2019-08-05,213.5,0.0,213.5,0,
2019-08-06,213.5,0.0,213.5,0,
2019-08-07,213.5,0.0,213.5,0,
2019-08-08,213.5,0.0,213.5,0,
2019-08-09,213.5,0.0,213.5,0,
2019-08-11,213.5,0.0,213.5,0,
2019-08-12,213.5,0.0,213.5,0,
2019-08-13,213.5,0.0,213.5,0,
2019-08-14,213.5,0.0,213.5,0,
2019-08-15,213.5,0.0,213.5,0,
2019-08-16,213.5,0.0,213.5,0,
2019-08-18,213.5,0.0,213.5,0,
2019-08-19,213.5,0.0,213.5,0,
2019-08-20,213.5,0.0,213.5,0,
2019-08-21,213.5,0.0,213.5,0,
2019-08-22,213.5,0.0,213.5,0,
2019-08-23,213.5,0.0,213.5,0,
2019-08-25,213.5,0.0,213.5,0,
2019-08-26,213.5,0.0,213.5,0,
2019-08-27,213.5,0.0,213.5,0,
2019-08-28,213.5,0.0,213.5,0,
2019-08-29,213.5,0.0,213.5,0,
2019-08-30,213.5,0.0,213.5,0,
2019-09-01,213.5,0.0,213.5,0,
2019-09-02,213.5,0.0,213.5,0,
2019-09-03,213.5,0.0,213.5,0,
2019-09-04,213.5,0.0,213.5,0,
2019-09-05,213.5,0.0,213.5,0,
2019-09-06,213.5,-8.0,205.5,1,Long
2019-09-08,198.0,0.0,198.0,0,
2019-09-09,198.0,0.0,198.0,0,
2019-09-10,198.0,0.0,198.0,0,
2019-09-11,198.0,0.0,198.0,0,
2019-09-12,198.0,-18.75,179.25,1,Long
2019-09-13,198.0,-40.75,157.25,1,Long
2019-09-15,198.0,-112.75,85.25,1,Long
2019-09-16,85.25,0.0,85.25,0,
2019-09-17,85.25,26.0,111.25,1,Long
2019-09-18,85.25,20.75,106.0,1,Long
2019-09-19,85.25,41.75,127.0,1,Long
2019-09-20,85.25,-53.5,31.75,1,Long
2019-09-22,33.75,0.0,33.75,0,
2019-09-23,33.75,9.0,42.75,1,Long
2019-09-24,33.75,-123.5,-89.75,1,Long
2019-09-25,-89.75,0.0,-89.75,0,
2019-09-26,-89.75,0.0,-89.75,0,
2019-09-27,-89.75,0.0,-89.75,0,
2019-09-29,-89.75,0.0,-89.75,0,
2019-09-30,-89.75,0.0,-89.75,0,
2019-10-01,-89.75,0.0,-89.75,0,
2019-10-02,-89.75,0.0,-89.75,0,
2019-10-03,-89.75,0.0,-89.75,0,
2019-10-04,-89.75,0.0,-89.75,0,
2019-10-06,-89.75,0.0,-89.75,0,
2019-10-07,-89.75,0.0,-89.75,0,
2019-10-08,-89.75,0.0,-89.75,0,
2019-10-09,-89.75,0.0,-89.75,0,
2019-10-10,-89.75,0.0,-89.75,0,
2019-10-11,-89.75,0.0,-89.75,0,
2019-10-13,-89.75,0.0,-89.75,0,
2019-10-14,-89.75,0.0,-89.75,0,
2019-10-15,-89.75,0.0,-89.75,0,
2019-10-16,-89.75,0.0,-89.75,0,
2019-10-17,-89.75,0.0,-89.75,0,
2019-10-18,-89.75,0.0,-89.75,0,
2019-10-20,-89.75,0.0,-89.75,0,
2019-10-21,-89.75,0.0,-89.75,0,
2019-10-22,-89.75,0.0,-89.75,0,
2019-10-23,-89.75,0.0,-89.75,0,
2019-10-24,-89.75,0.0,-89.75,0,
2019-10-25,-89.75,0.0,-89.75,0,
2019-10-27,-89.75,9.0,-80.75,1,Long
2019-10-28,-89.75,64.75,-25.0,1,Long
2019-10-29,-89.75,11.0,-78.75,1,Long
2019-10-30,-89.75,75.25,-14.5,1,Long
2019-10-31,-89.75,41.5,-48.25,1,Long
2019-11-01,-89.75,115.0,25.25,1,Long
2019-11-03,-89.75,128.75,39.0,1,Long
2019-11-04,-89.75,191.75,102.0,1,Long
2019-11-05,-89.75,165.25,75.5,1,Long
2019-11-06,-89.75,155.25,65.5,1,Long
2019-11-07,-89.75,189.25,99.5,1,Long
2019-11-08,-89.75,212.0,122.25,2,Long
2019-11-10,-89.75,196.5,106.75,2,Long
2019-11-11,-89.75,180.0,90.25,2,Long
2019-11-12,-89.75,221.0,131.25,2,Long
2019-11-13,-89.75,220.5,130.75,2,Long
2019-11-14,-89.75,235.0,145.25,2,Long
2019-11-15,-89.75,339.5,249.75,2,Long
2019-11-17,-89.75,312.5,222.75,2,Long
2019-11-18,-89.75,347.5,257.75,2,Long
2019-11-19,-89.75,327.5,237.75,2,Long
2019-11-20,-89.75,232.5,142.75,2,Long
2019-11-21,-89.75,232.0,142.25,2,Long
2019-11-22,-89.75,256.0,166.25,3,Long
2019-11-24,-89.75,330.25,240.5,3,Long
2019-11-25,-89.75,536.5,446.75,3,Long
2019-11-26,-89.75,614.5,524.75,3,Long
2019-11-27,-89.75,686.5,596.75,3,Long
2019-11-28,-89.75,757.75,668.0,3,Long
2019-11-29,-89.75,673.75,584.0,3,Long
2019-12-01,-89.75,703.0,613.25,3,Long
2019-12-02,-89.75,322.75,233.0,3,Long
2019-12-03,-89.75,195.25,105.5,3,Long
2019-12-04,-89.75,282.25,192.5,3,Long
2019-12-05,-89.75,354.25,264.5,3,Long
2019-12-06,-89.75,619.75,530.0,4,Long
2019-12-08,-89.75,624.75,535.0,4,Long
2019-12-09,-89.75,439.75,350.0,4,Long
2019-12-10,-89.75,450.75,361.0,4,Long
2019-12-11,-89.75,665.75,576.0,4,Long
2019-12-12,-89.75,1014.75,925.0,4,Long
2019-12-13,-89.75,1095.75,1006.0,4,Long
2019-12-15,-89.75,1148.75,1059.0,4,Long
2019-12-16,-89.75,1401.75,1312.0,4,Long
2019-12-17,-89.75,1419.75,1330.0,4,Long
2019-12-18,-89.75,1494.75,1405.0,4,Long
2019-12-19,-89.75,1726.75,1637.0,4,Long
2019-12-20,-89.75,1847.75,1758.0,5,Long
2019-12-22,-89.75,1907.75,1818.0,5,Long
2019-12-23,-89.75,1942.75,1853.0,5,Long
2019-12-24,-89.75,1946.5,1856.75,5,Long
2019-12-25,-89.75,1947.75,1858.0,5,Long
2019-12-26,-89.75,2336.5,2246.75,5,Long
2019-12-27,-89.75,2190.25,2100.5,5,Long
2019-12-29,-89.75,2285.25,2195.5,5,Long
2019-12-30,-89.75,1971.5,1881.75,5,Long
2019-12-31,-89.75,2154.0,2064.25,5,Long
2020-01-01,-89.75,2176.5,2086.75,5,Long
2020-01-02,-89.75,2790.25,2700.5,5,Long
2020-01-03,-89.75,2347.75,2258.0,6,Long
2020-01-05,-89.75,2154.25,2064.5,6,Long
2020-01-06,-89.75,2580.25,2490.5,6,Long
2020-01-07,-89.75,1998.25,1908.5,6,Long
2020-01-08,-89.75,3198.25,3108.5,6,Long
2020-01-09,-89.75,3579.25,3489.5,6,Long
2020-01-10,-89.75,3355.75,3266.0,6,Long
2020-01-12,-89.75,3411.25,3321.5,6,Long
2020-01-13,-89.75,4116.25,4026.5,6,Long
2020-01-14,-89.75,3672.25,3582.5,6,Long
2020-01-15,-89.75,3931.75,3842.0,6,Long
2020-01-16,-89.75,4360.75,4271.0,6,Long
2020-01-17,-89.75,4513.75,4424.0,7,Long
2020-01-19,-89.75,4608.25,4518.5,7,Long
2020-01-20,-89.75,4505.0,4415.25,7,Long
2020-01-21,-89.75,4562.75,4473.0,7,Long
2020-01-22,-89.75,4592.5,4502.75,7,Long
2020-01-23,-89.75,5205.0,5115.25,7,Long
2020-01-24,-89.75,4275.75,4186.0,7,Long
2020-01-26,-89.75,3416.5,3326.75,7,Long
2020-01-27,-89.75,3166.25,3076.5,7,Long
2020-01-28,-89.75,4015.0,3925.25,7,Long
2020-01-29,-89.75,4167.25,4077.5,7,Long
2020-01-30,-89.75,4841.0,4751.25,7,Long
2020-01-31,-89.75,3402.5,3312.75,8,Long
2020-02-02,-89.75,3464.5,3374.75,8,Long
2020-02-03,-89.75,4020.5,3930.75,8,Long
2020-02-04,-89.75,6006.5,5916.75,8,Long
2020-02-05,-89.75,6350.5,6260.75,8,Long
2020-02-06,-89.75,7036.5,6946.75,8,Long
2020-02-07,-89.75,6502.5,6412.75,8,Long
2020-02-09,-89.75,6152.5,6062.75,8,Long
2020-02-10,-89.75,7504.5,7414.75,8,Long
2020-02-11,-89.75,7632.5,7542.75,8,Long
2020-02-12,-89.75,7914.5,7824.75,8,Long
2020-02-13,-89.75,8180.5,8090.75,8,Long
2020-02-14,-89.75,8348.5,8258.75,9,Long
2020-02-16,-89.75,8647.75,8558.0,9,Long
2020-02-17,-89.75,8096.5,8006.75,9,Long
2020-02-18,-89.75,8650.0,8560.25,9,Long
2020-02-19,-89.75,9376.75,9287.0,9,Long
2020-02-20,-89.75,7826.5,7736.75,9,Long
2020-02-21,-89.75,6778.0,6688.25,9,Long
2020-02-23,5873.75,0.0,5873.75,0,
2020-02-24,5873.75,0.0,5873.75,0,
2020-02-25,5873.75,0.0,5873.75,0,
2020-02-26,5873.75,0.0,5873.75,0,
2020-02-27,5873.75,0.0,5873.75,0,
2020-02-28,5873.75,0.0,5873.75,0,
2020-03-01,5873.75,0.0,5873.75,0,
2020-03-02,5873.75,0.0,5873.75,0,
2020-03-03,5873.75,0.0,5873.75,0,
2020-03-04,5873.75,0.0,5873.75,0,
2020-03-05,5873.75,0.0,5873.75,0,
2020-03-06,5873.75,0.0,5873.75,0,
2020-03-08,5873.75,0.0,5873.75,0,
2020-03-09,5873.75,0.0,5873.75,0,
2020-03-10,5873.75,0.0,5873.75,0,
2020-03-11,5873.75,0.0,5873.75,0,
2020-03-12,5873.75,0.0,5873.75,0,
2020-03-13,5873.75,0.0,5873.75,0,
2020-03-15,5873.75,0.0,5873.75,0,
2020-03-16,5873.75,0.0,5873.75,0,
2020-03-17,5873.75,0.0,5873.75,0,
2020-03-18,5873.75,0.0,5873.75,0,
2020-03-19,5873.75,0.0,5873.75,0,
2020-03-20,5873.75,0.0,5873.75,0,
2020-03-22,5873.75,0.0,5873.75,0,
2020-03-23,5873.75,0.0,5873.75,0,
2020-03-24,5873.75,0.0,5873.75,0,
2020-03-25,5873.75,0.0,5873.75,0,
2020-03-26,5873.75,0.0,5873.75,0,
2020-03-27,5873.75,0.0,5873.75,0,
2020-03-29,5873.75,0.0,5873.75,0,
2020-03-30,5873.75,0.0,5873.75,0,
2020-03-31,5873.75,0.0,5873.75,0,
2020-04-01,5873.75,0.0,5873.75,0,
2020-04-02,5873.75,0.0,5873.75,0,
2020-04-03,5873.75,0.0,5873.75,0,
2020-04-05,5873.75,0.0,5873.75,0,
2020-04-06,5873.75,0.0,5873.75,0,
2020-04-07,5873.75,0.0,5873.75,0,
2020-04-08,5873.75,0.0,5873.75,0,
2020-04-09,5873.75,13.25,5887.0,1,Long
2020-04-12,5873.75,-108.25,5765.5,1,Long
2020-04-13,5765.5,0.0,5765.5,0,
2020-04-14,5765.5,307.25,6072.75,1,Long
2020-04-15,5765.5,166.5,5932.0,1,Long
2020-04-16,5765.5,567.0,6332.5,1,Long
2020-04-17,5765.5,441.75,6207.25,1,Long
2020-04-19,5765.5,380.75,6146.25,1,Long
2020-04-20,5765.5,364.0,6129.5,1,Long
2020-04-21,5765.5,91.75,5857.25,1,Long
2020-04-22,5765.5,250.25,6015.75,1,Long
2020-04-23,5765.5,186.0,5951.5,1,Long
2020-04-24,5765.5,401.0,6166.5,2,Long
2020-04-26,5765.5,373.5,6139.0,2,Long
2020-04-27,5765.5,513.5,6279.0,2,Long
2020-04-28,5765.5,402.0,6167.5,2,Long
2020-04-29,5765.5,1048.5,6814.0,2,Long
2020-04-30,5765.5,543.0,6308.5,2,Long
2020-05-01,5765.5,270.5,6036.0,2,Long
2020-05-03,5765.5,32.5,5798.0,2,Long
2020-05-04,5765.5,514.0,6279.5,2,Long
2020-05-05,5765.5,779.0,6544.5,2,Long
2020-05-06,5765.5,796.0,6561.5,2,Long
2020-05-07,5765.5,1149.0,6914.5,2,Long
2020-05-08,5765.5,1309.0,7074.5,3,Long
2020-05-10,5765.5,1405.75,7171.25,3,Long
2020-05-11,5765.5,1477.0,7242.5,3,Long
2020-05-12,5765.5,688.0,6453.5,3,Long
2020-05-13,5765.5,679.75,6445.25,3,Long
2020-05-14,5765.5,968.5,6734.0,3,Long
2020-05-15,5765.5,1004.5,6770.0,3,Long
2020-05-17,5765.5,1139.5,6905.0,3,Long
2020-05-18,5765.5,1678.0,7443.5,3,Long
2020-05-19,5765.5,1600.0,7365.5,3,Long
2020-05-20,5765.5,2102.5,7868.0,3,Long
2020-05-21,5765.5,1853.5,7619.0,3,Long
2020-05-22,5765.5,1913.5,7679.0,4,Long
2020-05-24,5765.5,2046.5,7812.0,4,Long
2020-05-25,5765.5,2263.5,8029.0,4,Long
2020-05-26,5765.5,1800.5,7566.0,4,Long
2020-05-27,5765.5,1991.5,7757.0,4,Long
2020-05-28,5765.5,1895.5,7661.0,4,Long
2020-05-29,5765.5,2578.5,8344.0,4,Long
2020-05-31,5765.5,2251.5,8017.0,4,Long
2020-06-01,5765.5,2485.5,8251.0,4,Long
2020-06-02,5765.5,2922.5,8688.0,4,Long
2020-06-03,5765.5,3009.5,8775.0,4,Long
2020-06-04,5765.5,2697.5,8463.0,4,Long
2020-06-05,5765.5,3452.5,9218.0,5,Long
2020-06-07,5765.5,3768.75,9534.25,5,Long
2020-06-08,5765.5,3815.0,9580.5,5,Long
2020-06-09,5765.5,4361.25,10126.75,5,Long
2020-06-10,5765.5,4632.5,10398.0,5,Long
2020-06-11,5765.5,2808.75,8574.25,5,Long
2020-06-12,5765.5,2626.25,8391.75,5,Long
2020-06-14,5765.5,2106.25,7871.75,5,Long
2020-06-15,5765.5,3741.25,9506.75,5,Long
2020-06-16,5765.5,4335.0,10100.5,5,Long
2020-06-17,5765.5,4162.5,9928.0,5,Long
2020-06-18,5765.5,4518.75,10284.25,5,Long
2020-06-19,5765.5,4037.5,9803.0,6,Long
2020-06-21,5765.5,3920.5,9686.0,6,Long
2020-06-22,5765.5,5389.0,11154.5,6,Long
2020-06-23,5765.5,5575.0,11340.5,6,Long
2020-06-24,5765.5,4331.5,10097.0,6,Long
2020-06-25,5765.5,5128.0,10893.5,6,Long
2020-06-26,5765.5,3554.5,9320.0,6,Long
2020-06-28,5765.5,3452.5,9218.0,6,Long
2020-06-29,5765.5,4447.0,10212.5,6,Long
2020-06-30,5765.5,4699.0,10464.5,6,Long
2020-07-01,5765.5,6107.5,11873.0,6,Long
2020-07-02,5765.5,6590.5,12356.0,6,Long
2020-07-03,5765.5,6442.0,12207.5,7,Long
2020-07-05,5765.5,6916.25,12681.75,7,Long
2020-07-06,5765.5,8645.25,14410.75,7,Long
2020-07-07,5765.5,8017.0,13782.5,7,Long
2020-07-08,5765.5,8942.75,14708.25,7,Long
2020-07-09,5765.5,9445.0,15210.5,7,Long
2020-07-10,5765.5,10064.5,15830.0,7,Long
2020-07-12,5765.5,10302.5,16068.0,7,Long
2020-07-13,5765.5,8683.75,14449.25,7,Long
2020-07-14,5765.5,9187.75,14953.25,7,Long
2020-07-15,5765.5,8696.0,14461.5,7,Long
2020-07-16,5765.5,8132.5,13898.0,7,Long
2020-07-17,5765.5,8529.75,14295.25,8,Long
2020-07-19,5765.5,8721.75,14487.25,8,Long
2020-07-20,5765.5,11139.75,16905.25,8,Long
2020-07-21,5765.5,10527.75,16293.25,8,Long
2020-07-22,5765.5,10125.75,15891.25,8,Long
2020-07-23,5765.5,8203.75,13969.25,8,Long
2020-07-24,5765.5,7245.75,13011.25,8,Long
2020-07-26,5765.5,7053.75,12819.25,8,Long
2020-07-27,5765.5,9129.75,14895.25,8,Long
2020-07-28,5765.5,8053.75,13819.25,8,Long
2020-07-29,5765.5,8977.75,14743.25,8,Long
2020-07-30,5765.5,10785.75,16551.25,8,Long
2020-07-31,5765.5,10865.75,16631.25,9,Long
2020-08-02,5765.5,10832.0,16597.5,9,Long
2020-08-03,5765.5,11954.75,17720.25,9,Long
2020-08-04,5765.5,12290.0,18055.5,9,Long
2020-08-05,5765.5,12429.5,18195.0,9,Long
2020-08-06,5765.5,13898.75,19664.25,9,Long
2020-08-07,5765.5,12805.25,18570.75,9,Long
2020-08-09,5765.5,12591.5,18357.0,9,Long
2020-08-10,5765.5,12292.25,18057.75,9,Long
2020-08-11,5765.5,10931.0,16696.5,9,Long
2020-08-12,5765.5,12812.0,18577.5,9,Long
2020-08-13,5765.5,13473.5,19239.0,9,Long
2020-08-14,5765.5,12938.0,18703.5,10,Long
2020-08-16,5765.5,13095.5,18861.0,10,Long
2020-08-17,5765.5,14530.5,20296.0,10,Long
2020-08-18,5765.5,15645.5,21411.0,10,Long
2020-08-19,5765.5,14385.5,20151.0,10,Long
2020-08-20,5765.5,16475.5,22241.0,10,Long
2020-08-21,5765.5,17110.5,22876.0,10,Long
2020-08-23,5765.5,17315.5,23081.0,10,Long
2020-08-24,5765.5,17948.0,23713.5,10,Long
2020-08-25,5765.5,18948.0,24713.5,10,Long
2020-08-26,5765.5,21158.0,26923.5,10,Long
2020-08-27,5765.5,21173.0,26938.5,10,Long
2020-08-28,5765.5,21518.0,27283.5,10,Long
2020-08-30,5765.5,21958.0,27723.5,10,Long
2020-08-31,5765.5,22733.0,28498.5,10,Long
2020-09-01,5765.5,25085.5,30851.0,10,Long
2020-09-02,5765.5,25698.0,31463.5,10,Long
2020-09-03,31461.0,0.0,31461.0,0,
2020-09-04,31461.0,0.0,31461.0,0,
2020-09-06,31461.0,0.0,31461.0,0,
2020-09-07,31461.0,0.0,31461.0,0,
2020-09-08,31461.0,0.0,31461.0,0,
2020-09-09,31461.0,0.0,31461.0,0,
2020-09-10,31461.0,0.0,31461.0,0,
2020-09-11,31461.0,0.0,31461.0,0,
2020-09-13,31461.0,0.0,31461.0,0,
2020-09-14,31461.0,0.0,31461.0,0,
2020-09-15,31461.0,0.0,31461.0,0,
2020-09-16,31461.0,0.0,31461.0,0,
2020-09-17,31461.0,0.0,31461.0,0,
2020-09-18,31461.0,0.0,31461.0,0,
2020-09-20,31461.0,0.0,31461.0,0,
2020-09-21,31461.0,0.0,31461.0,0,
2020-09-22,31461.0,0.0,31461.0,0,
2020-09-23,31461.0,0.0,31461.0,0,
2020-09-24,31461.0,0.0,31461.0,0,
2020-09-25,31461.0,0.0,31461.0,0,
2020-09-27,31461.0,0.0,31461.0,0,
2020-09-28,31461.0,0.0,31461.0,0,
2020-09-29,31461.0,0.0,31461.0,0,
2020-09-30,31461.0,0.0,31461.0,0,
2020-10-01,31461.0,0.0,31461.0,0,
2020-10-02,31461.0,0.0,31461.0,0,
2020-10-04,31461.0,0.0,31461.0,0,
2020-10-05,31461.0,0.0,31461.0,0,
2020-10-06,31461.0,0.0,31461.0,0,
2020-10-07,31461.0,0.0,31461.0,0,
2020-10-08,31461.0,0.0,31461.0,0,
2020-10-09,31461.0,0.0,31461.0,0,
2020-10-11,31461.0,0.0,31461.0,0,
2020-10-12,31461.0,365.75,31826.75,1,Long
2020-10-13,31461.0,371.25,31832.25,1,Long
2020-10-14,31461.0,217.5,31678.5,1,Long
2020-10-15,31461.0,172.0,31633.0,1,Long
2020-10-16,31461.0,49.75,31510.75,1,Long
2020-10-18,31461.0,129.5,31590.5,1,Long
2020-10-19,31461.0,-28.5,31432.5,1,Long
2020-10-20,31432.75,0.0,31432.75,0,
2020-10-21,31432.75,0.0,31432.75,0,
2020-10-22,31432.75,0.0,31432.75,0,
2020-10-23,31432.75,0.0,31432.75,0,
2020-10-25,31432.75,0.0,31432.75,0,
2020-10-26,31432.75,0.0,31432.75,0,
2020-10-27,31432.75,0.0,31432.75,0,
2020-10-28,31432.75,0.0,31432.75,0,
2020-10-29,31432.75,0.0,31432.75,0,
2020-10-30,31432.75,0.0,31432.75,0,
2020-11-01,31432.75,0.0,31432.75,0,
2020-11-02,31432.75,0.0,31432.75,0,
2020-11-03,31432.75,0.0,31432.75,0,
2020-11-04,31432.75,0.0,31432.75,0,
2020-11-05,31432.75,272.25,31705.0,1,Long
2020-11-06,31432.75,300.25,31733.0,1,Long
2020-11-08,31432.75,438.0,31870.75,1,Long
2020-11-09,31432.75,59.75,31492.5,1,Long
2020-11-10,31432.75,-197.0,31235.75,1,Long
2020-11-11,31235.25,0.0,31235.25,0,
2020-11-12,31235.25,-44.25,31191.0,1,Long
2020-11-13,31235.25,50.5,31285.75,1,Long
2020-11-15,31235.25,149.75,31385.0,1,Long
2020-11-16,31235.25,153.0,31388.25,1,Long
2020-11-17,31235.25,83.5,31318.75,1,Long
2020-11-18,31235.25,-15.25,31220.0,1,Long
2020-11-19,31235.25,41.75,31277.0,1,Long
2020-11-20,31235.25,15.5,31250.75,2,Long
2020-11-22,31235.25,56.0,31291.25,2,Long
2020-11-23,31235.25,97.0,31332.25,2,Long
2020-11-24,31235.25,445.5,31680.75,2,Long
2020-11-25,31235.25,552.5,31787.75,2,Long
2020-11-26,31235.25,502.5,31737.75,2,Long
2020-11-27,31235.25,740.5,31975.75,2,Long
2020-11-29,31235.25,827.0,32062.25,2,Long
2020-11-30,31235.25,891.0,32126.25,2,Long
2020-12-01,31235.25,1095.0,32330.25,2,Long
2020-12-02,31235.25,1125.5,32360.75,2,Long
2020-12-03,31235.25,1163.5,32398.75,2,Long
2020-12-04,31235.25,1213.5,32448.75,3,Long
2020-12-06,31235.25,1317.0,32552.25,3,Long
2020-12-07,31235.25,1408.5,32643.75,3,Long
2020-12-08,31235.25,1624.5,32859.75,3,Long
2020-12-09,31235.25,772.5,32007.75,3,Long
2020-12-10,31235.25,892.5,32127.75,3,Long
2020-12-11,31235.25,782.25,32017.5,3,Long
2020-12-13,31235.25,932.25,32167.5,3,Long
2020-12-14,31235.25,1121.25,32356.5,3,Long
2020-12-15,31235.25,1467.75,32703.0,3,Long
2020-12-16,31235.25,1731.0,32966.25,3,Long
2020-12-17,31235.25,1932.75,33168.0,3,Long
2020-12-18,31235.25,1927.5,33162.75,4,Long
2020-12-20,31235.25,1930.5,33165.75,4,Long
2020-12-21,31235.25,1739.5,32974.75,4,Long
2020-12-22,31235.25,1815.5,33050.75,4,Long
2020-12-23,31235.25,1553.5,32788.75,4,Long
2020-12-24,31235.25,1750.5,32985.75,4,Long
2020-12-27,31235.25,1871.5,33106.75,4,Long
2020-12-28,31235.25,2341.5,33576.75,4,Long
2020-12-29,31235.25,2312.5,33547.75,4,Long
2020-12-30,31235.25,2328.5,33563.75,4,Long
2020-12-31,31235.25,2471.5,33706.75,4,Long
2021-01-03,31235.25,2389.5,33624.75,4,Long
2021-01-04,31235.25,1633.5,32868.75,4,Long
2021-01-05,31235.25,2113.5,33348.75,4,Long
2021-01-06,31235.25,1625.5,32860.75,4,Long
2021-01-07,31235.25,2687.5,33922.75,4,Long
2021-01-08,31235.25,3432.5,34667.75,4,Long
2021-01-10,31235.25,3264.5,34499.75,4,Long
2021-01-11,31235.25,2622.5,33857.75,4,Long
2021-01-12,31235.25,2521.5,33756.75,4,Long
2021-01-13,31235.25,2814.5,34049.75,4,Long
2021-01-14,31235.25,2602.5,33837.75,4,Long
2021-01-15,31235.25,1989.5,33224.75,5,Long
2021-01-17,31235.25,1900.75,33136.0,5,Long
2021-01-18,31235.25,2328.25,33563.5,5,Long
2021-01-19,31235.25,3419.5,34654.75,5,Long
2021-01-20,31235.25,4743.25,35978.5,5,Long
2021-01-21,31235.25,5089.5,36324.75,5,Long
2021-01-22,31235.25,4929.5,36164.75,5,Long
2021-01-24,31235.25,5160.75,36396.0,5,Long
2021-01-25,31235.25,5480.75,36716.0,5,Long
2021-01-26,31235.25,5967.0,37202.25,5,Long
2021-01-27,31235.25,3060.75,34296.0,5,Long
2021-01-28,31235.25,3854.5,35089.75,5,Long
2021-01-29,35091.0,0.0,35091.0,0,
2021-01-31,35091.0,0.0,35091.0,0,
2021-02-01,35091.0,0.0,35091.0,0,
2021-02-02,35091.0,0.0,35091.0,0,
2021-02-03,35091.0,0.0,35091.0,0,
2021-02-04,35091.0,0.0,35091.0,0,
2021-02-05,35091.0,50.75,35141.75,1,Long
2021-02-07,35091.0,85.75,35176.75,1,Long
2021-02-08,35091.0,128.5,35219.5,1,Long
2021-02-09,35091.0,134.5,35225.5,1,Long
2021-02-10,35091.0,100.75,35191.75,1,Long
2021-02-11,35091.0,178.0,35269.0,1,Long
2021-02-12,35091.0,268.75,35359.75,1,Long
2021-02-14,35091.0,272.75,35363.75,1,Long
2021-02-15,35091.0,305.0,35396.0,1,Long
2021-02-16,35091.0,178.5,35269.5,1,Long
2021-02-17,35091.0,150.0,35241.0,1,Long
2021-02-18,35091.0,62.5,35153.5,1,Long
2021-02-19,35091.0,19.0,35110.0,2,Long
2021-02-21,35091.0,59.0,35150.0,2,Long
2021-02-22,35150.0,0.0,35150.0,0,
2021-02-23,35150.0,0.0,35150.0,0,
2021-02-24,35150.0,0.0,35150.0,0,
2021-02-25,35150.0,0.0,35150.0,0,
2021-02-26,35150.0,0.0,35150.0,0,
2021-02-28,35150.0,0.0,35150.0,0,
2021-03-01,35150.0,0.0,35150.0,0,
2021-03-02,35150.0,0.0,35150.0,0,
2021-03-03,35150.0,0.0,35150.0,0,
2021-03-04,35150.0,0.0,35150.0,0,
2021-03-05,35150.0,0.0,35150.0,0,
2021-03-07,35150.0,0.0,35150.0,0,
2021-03-08,35150.0,0.0,35150.0,0,
2021-03-09,35150.0,0.0,35150.0,0,
2021-03-10,35150.0,0.0,35150.0,0,
2021-03-11,35150.0,0.0,35150.0,0,
2021-03-12,35150.0,0.0,35150.0,0,
2021-03-14,35150.0,0.0,35150.0,0,
2021-03-15,35150.0,0.0,35150.0,0,
2021-03-16,35150.0,0.0,35150.0,0,
2021-03-17,35150.0,0.0,35150.0,0,
2021-03-18,35150.0,0.0,35150.0,0,
2021-03-19,35150.0,0.0,35150.0,0,
2021-03-21,35150.0,0.0,35150.0,0,
2021-03-22,35150.0,0.0,35150.0,0,
2021-03-23,35150.0,0.0,35150.0,0,
2021-03-24,35150.0,0.0,35150.0,0,
2021-03-25,35150.0,0.0,35150.0,0,
2021-03-26,35150.0,0.0,35150.0,0,
2021-03-28,35150.0,0.0,35150.0,0,
2021-03-29,35150.0,0.0,35150.0,0,
2021-03-30,35150.0,0.0,35150.0,0,
2021-03-31,35150.0,0.0,35150.0,0,
2021-04-01,35150.0,0.0,35150.0,0,
2021-04-02,35150.0,0.0,35150.0,0,
2021-04-04,35150.0,0.0,35150.0,0,
2021-04-05,35150.0,0.0,35150.0,0,
2021-04-06,35150.0,-21.5,35128.5,1,Long
2021-04-07,35128.0,0.0,35128.0,0,
2021-04-08,35128.0,163.5,35291.5,1,Long
2021-04-09,35128.0,170.25,35298.25,1,Long
2021-04-11,35128.0,140.25,35268.25,1,Long
2021-04-12,35128.0,178.75,35306.75,1,Long
2021-04-13,35128.0,328.25,35456.25,1,Long
2021-04-14,35128.0,173.0,35301.0,1,Long
2021-04-15,35128.0,371.75,35499.75,1,Long
2021-04-16,35128.0,379.75,35507.75,2,Long
2021-04-18,35128.0,317.25,35445.25,2,Long
2021-04-19,35128.0,169.75,35297.75,2,Long
2021-04-20,35128.0,-172.75,34955.25,2,Long
2021-04-21,35128.0,101.75,35229.75,2,Long
2021-04-22,35128.0,-145.75,34982.25,2,Long
2021-04-23,35128.0,146.25,35274.25,2,Long
2021-04-25,35128.0,155.75,35283.75,2,Long
2021-04-26,35128.0,390.25,35518.25,2,Long
2021-04-27,35128.0,261.25,35389.25,2,Long
2021-04-28,35128.0,279.25,35407.25,2,Long
2021-04-29,35128.0,166.75,35294.75,2,Long
2021-04-30,35128.0,75.25,35203.25,3,Long
2021-05-02,35128.0,118.0,35246.0,3,Long
2021-05-03,35128.0,-214.25,34913.75,3,Long
2021-05-04,35128.0,-947.75,34180.25,3,Long
2021-05-05,34180.25,0.0,34180.25,0,
2021-05-06,34180.25,0.0,34180.25,0,
2021-05-07,34180.25,0.0,34180.25,0,
2021-05-09,34180.25,20.5,34200.75,1,Long
2021-05-10,34201.0,0.0,34201.0,0,
2021-05-11,34201.0,0.0,34201.0,0,
2021-05-12,34201.0,0.0,34201.0,0,
2021-05-13,34201.0,0.0,34201.0,0,
2021-05-14,34201.0,0.0,34201.0,0,
2021-05-16,34201.0,0.0,34201.0,0,
2021-05-17,34201.0,0.0,34201.0,0,
2021-05-18,34201.0,0.0,34201.0,0,
2021-05-19,34201.0,0.0,34201.0,0,
2021-05-20,34201.0,0.0,34201.0,0,
2021-05-21,34201.0,0.0,34201.0,0,
2021-05-23,34201.0,0.0,34201.0,0,
2021-05-24,34201.0,0.0,34201.0,0,
2021-05-25,34201.0,0.0,34201.0,0,
2021-05-26,34201.0,0.0,34201.0,0,
2021-05-27,34201.0,0.0,34201.0,0,
2021-05-28,34201.0,0.0,34201.0,0,
2021-05-30,34201.0,0.0,34201.0,0,
2021-05-31,34201.0,0.0,34201.0,0,
2021-06-01,34201.0,0.0,34201.0,0,
2021-06-02,34201.0,0.0,34201.0,0,
2021-06-03,34201.0,0.0,34201.0,0,
2021-06-04,34201.0,0.0,34201.0,0,
2021-06-06,34201.0,-4.5,34196.5,1,Long
2021-06-07,34196.25,0.0,34196.25,0,
2021-06-08,34196.25,-5.5,34190.75,1,Long
2021-06-09,34196.25,-7.5,34188.75,1,Long
2021-06-10,34196.25,145.25,34341.5,1,Long
2021-06-11,34196.25,162.25,34358.5,1,Long
2021-06-13,34196.25,187.0,34383.25,1,Long
2021-06-14,34196.25,283.75,34480.0,1,Long
2021-06-15,34196.25,208.75,34405.0,1,Long
2021-06-16,34196.25,64.0,34260.25,1,Long
2021-06-17,34196.25,353.0,34549.25,1,Long
2021-06-18,34196.25,151.0,34347.25,2,Long
2021-06-20,34196.25,191.5,34387.75,2,Long
2021-06-21,34196.25,385.0,34581.25,2,Long
2021-06-22,34196.25,660.0,34856.25,2,Long
2021-06-23,34196.25,687.5,34883.75,2,Long
2021-06-24,34196.25,808.0,35004.25,2,Long
2021-06-25,34196.25,777.5,34973.75,2,Long
2021-06-27,34196.25,824.5,35020.75,2,Long
2021-06-28,34196.25,1098.5,35294.75,2,Long
2021-06-29,34196.25,1290.5,35486.75,2,Long
2021-06-30,34196.25,1236.0,35432.25,2,Long
2021-07-01,34196.25,1181.0,35377.25,2,Long
2021-07-02,34196.25,1501.0,35697.25,3,Long
2021-07-04,34196.25,1543.0,35739.25,3,Long
2021-07-05,34196.25,1542.25,35738.5,3,Long
2021-07-06,34196.25,1693.75,35890.0,3,Long
2021-07-07,34196.25,1830.25,36026.5,3,Long
2021-07-08,34196.25,1475.5,35671.75,3,Long
2021-07-09,34196.25,1843.0,36039.25,3,Long
2021-07-11,34196.25,1888.0,36084.25,3,Long
2021-07-12,34196.25,2038.75,36235.0,3,Long
2021-07-13,34196.25,1934.5,36130.75,3,Long
2021-07-14,34196.25,2112.25,36308.5,3,Long
2021-07-15,34196.25,1670.5,35866.75,3,Long
2021-07-16,34196.25,1420.5,35616.75,4,Long
2021-07-18,34196.25,1310.5,35506.75,4,Long
2021-07-19,34196.25,1097.5,35293.75,4,Long
2021-07-20,34196.25,1711.5,35907.75,4,Long
2021-07-21,34196.25,2081.5,36277.75,4,Long
2021-07-22,34196.25,2622.5,36818.75,4,Long
2021-07-23,34196.25,3109.5,37305.75,4,Long
2021-07-25,34196.25,3223.5,37419.75,4,Long
2021-07-26,34196.25,3185.5,37381.75,4,Long
2021-07-27,34196.25,2420.5,36616.75,4,Long
2021-07-28,34196.25,2692.5,36888.75,4,Long
2021-07-29,34196.25,2219.5,36415.75,4,Long
2021-07-30,34196.25,2629.5,36825.75,5,Long
2021-08-01,34196.25,2802.0,36998.25,5,Long
2021-08-02,34196.25,2599.5,36795.75,5,Long
2021-08-03,34196.25,2948.25,37144.5,5,Long
2021-08-04,34196.25,3212.0,37408.25,5,Long
2021-08-05,34196.25,3595.75,37792.0,5,Long
2021-08-06,34196.25,3257.0,37453.25,5,Long
2021-08-08,34196.25,2903.25,37099.5,5,Long
2021-08-09,34196.25,3387.0,37583.25,5,Long
2021-08-10,34196.25,2970.75,37167.0,5,Long
2021-08-11,34196.25,2772.0,36968.25,5,Long
2021-08-12,34196.25,3132.0,37328.25,5,Long
2021-08-13,34196.25,3420.0,37616.25,6,Long
2021-08-15,34196.25,3361.5,37557.75,6,Long
2021-08-16,34196.25,3460.5,37656.75,6,Long
2021-08-17,34196.25,2419.5,36615.75,6,Long
2021-08-18,34196.25,1750.5,35946.75,6,Long
2021-08-19,34196.25,2178.0,36374.25,6,Long
2021-08-20,34196.25,3247.5,37443.75,6,Long
2021-08-22,34196.25,3321.0,37517.25,6,Long
2021-08-23,34196.25,4654.5,38850.75,6,Long
2021-08-24,34196.25,4824.0,39020.25,6,Long
2021-08-25,34196.25,4848.0,39044.25,6,Long
2021-08-26,34196.25,4347.0,38543.25,6,Long
2021-08-27,34196.25,5240.75,39437.0,7,Long
2021-08-29,34196.25,5412.25,39608.5,7,Long
2021-08-30,34196.25,6432.5,40628.75,7,Long
2021-08-31,34196.25,6423.75,40620.0,7,Long
2021-09-01,34196.25,6574.25,40770.5,7,Long
2021-09-02,34196.25,6423.75,40620.0,7,Long
2021-09-03,34196.25,6819.25,41015.5,7,Long
2021-09-05,34196.25,6796.5,40992.75,7,Long
2021-09-06,34196.25,7069.5,41265.75,7,Long
2021-09-07,34196.25,6878.75,41075.0,7,Long
2021-09-08,34196.25,6444.75,40641.0,7,Long
2021-09-09,34196.25,6192.75,40389.0,7,Long
2021-09-10,34196.25,5302.0,39498.25,8,Long
2021-09-12,34196.25,5676.0,39872.25,8,Long
2021-09-13,34196.25,5362.0,39558.25,8,Long
2021-09-14,34196.25,5056.0,39252.25,8,Long
2021-09-15,34196.25,5814.0,40010.25,8,Long
2021-09-16,34196.25,5652.0,39848.25,8,Long
2021-09-17,39848.25,0.0,39848.25,0,
2021-09-19,39848.25,0.0,39848.25,0,
2021-09-20,39848.25,0.0,39848.25,0,
2021-09-21,39848.25,0.0,39848.25,0,
2021-09-22,39848.25,0.0,39848.25,0,
2021-09-23,39848.25,0.0,39848.25,0,
2021-09-24,39848.25,0.0,39848.25,0,
2021-09-26,39848.25,0.0,39848.25,0,
2021-09-27,39848.25,0.0,39848.25,0,
2021-09-28,39848.25,0.0,39848.25,0,
2021-09-29,39848.25,0.0,39848.25,0,
2021-09-30,39848.25,0.0,39848.25,0,
2021-10-01,39848.25,0.0,39848.25,0,
2021-10-03,39848.25,0.0,39848.25,0,
2021-10-04,39848.25,0.0,39848.25,0,
2021-10-05,39848.25,0.0,39848.25,0,
2021-10-06,39848.25,0.0,39848.25,0,
2021-10-07,39848.25,0.0,39848.25,0,
2021-10-08,39848.25,0.0,39848.25,0,
2021-10-10,39848.25,0.0,39848.25,0,
2021-10-11,39848.25,0.0,39848.25,0,
2021-10-12,39848.25,0.0,39848.25,0,
2021-10-13,39848.25,0.0,39848.25,0,
2021-10-14,39848.25,0.0,39848.25,0,
2021-10-15,39848.25,0.0,39848.25,0,
2021-10-17,39848.25,0.0,39848.25,0,
2021-10-18,39848.25,0.0,39848.25,0,
2021-10-19,39848.25,117.0,39965.25,1,Long
2021-10-20,39848.25,43.0,39891.25,1,Long
2021-10-21,39848.25,99.5,39947.75,1,Long
2021-10-22,39848.25,31.75,39880.0,1,Long
2021-10-24,39848.25,14.0,39862.25,1,Long
2021-10-25,39848.25,246.75,40095.0,1,Long
2021-10-26,39848.25,267.75,40116.0,1,Long
2021-10-27,39848.25,334.0,40182.25,1,Long
2021-10-28,39848.25,380.0,40228.25,1,Long
2021-10-29,39848.25,644.5,40492.75,2,Long
2021-10-31,39848.25,667.5,40515.75,2,Long
2021-11-01,39848.25,659.0,40507.25,2,Long
2021-11-02,39848.25,792.0,40640.25,2,Long
2021-11-03,39848.25,1278.5,41126.75,2,Long
2021-11-04,39848.25,1587.0,41435.25,2,Long
2021-11-05,39848.25,1593.0,41441.25,2,Long
2021-11-07,39848.25,1531.0,41379.25,2,Long
2021-11-08,39848.25,1528.0,41376.25,2,Long
2021-11-09,39848.25,1278.0,41126.25,2,Long
2021-11-10,39848.25,887.5,40735.75,2,Long
2021-11-11,39848.25,1035.5,40883.75,2,Long
2021-11-12,39848.25,1330.5,41178.75,3,Long
2021-11-14,39848.25,1404.0,41252.25,3,Long
2021-11-15,39848.25,1294.5,41142.75,3,Long
2021-11-16,39848.25,1641.0,41489.25,3,Long
2021-11-17,39848.25,1713.75,41562.0,3,Long
2021-11-18,39848.25,2213.25,42061.5,3,Long
2021-11-19,39848.25,2490.0,42338.25,3,Long
2021-11-21,39848.25,2491.5,42339.75,3,Long
2021-11-22,39848.25,1915.5,41763.75,3,Long
2021-11-23,39848.25,1584.75,41433.0,3,Long
2021-11-24,39848.25,1798.5,41646.75,3,Long
2021-11-25,39848.25,1838.25,41686.5,3,Long
2021-11-26,41684.25,0.0,41684.25,0,
2021-11-28,41684.25,0.0,41684.25,0,
2021-11-29,41684.25,0.0,41684.25,0,
2021-11-30,41684.25,0.0,41684.25,0,
2021-12-01,41684.25,0.0,41684.25,0,
2021-12-02,41684.25,0.0,41684.25,0,
2021-12-03,41684.25,0.0,41684.25,0,
2021-12-05,41684.25,0.0,41684.25,0,
2021-12-06,41684.25,0.0,41684.25,0,
2021-12-07,41684.25,0.0,41684.25,0,
2021-12-08,41684.25,0.0,41684.25,0,
2021-12-09,41684.25,0.0,41684.25,0,
2021-12-10,41684.25,0.0,41684.25,0,
2021-12-12,41684.25,0.0,41684.25,0,
2021-12-13,41684.25,0.0,41684.25,0,
2021-12-14,41684.25,0.0,41684.25,0,
2021-12-15,41684.25,0.0,41684.25,0,
2021-12-16,41684.25,0.0,41684.25,0,
2021-12-17,41684.25,0.0,41684.25,0,
2021-12-19,41684.25,0.0,41684.25,0,
2021-12-20,41684.25,0.0,41684.25,0,
2021-12-21,41684.25,0.0,41684.25,0,
2021-12-22,41684.25,0.0,41684.25,0,
2021-12-23,41684.25,0.0,41684.25,0,
2021-12-26,41684.25,0.0,41684.25,0,
2021-12-27,41684.25,0.0,41684.25,0,
2021-12-28,41684.25,-15.75,41668.5,1,Long
2021-12-29,41668.0,0.0,41668.0,0,
2021-12-30,41668.0,0.0,41668.0,0,
2021-12-31,41668.0,0.0,41668.0,0,
2022-01-02,41668.0,0.0,41668.0,0,
2022-01-03,41668.0,0.0,41668.0,0,
2022-01-04,41668.0,0.0,41668.0,0,
2022-01-05,41668.0,0.0,41668.0,0,
2022-01-06,41668.0,0.0,41668.0,0,
2022-01-07,41668.0,0.0,41668.0,0,
2022-01-09,41668.0,0.0,41668.0,0,
2022-01-10,41668.0,0.0,41668.0,0,
2022-01-11,41668.0,0.0,41668.0,0,
2022-01-12,41668.0,0.0,41668.0,0,
2022-01-13,41668.0,0.0,41668.0,0,
2022-01-14,41668.0,0.0,41668.0,0,
2022-01-16,41668.0,0.0,41668.0,0,
2022-01-17,41668.0,0.0,41668.0,0,
2022-01-18,41668.0,0.0,41668.0,0,
2022-01-19,41668.0,0.0,41668.0,0,
2022-01-20,41668.0,0.0,41668.0,0,
2022-01-21,41668.0,0.0,41668.0,0,
2022-01-23,41668.0,0.0,41668.0,0,
2022-01-24,41668.0,0.0,41668.0,0,
2022-01-25,41668.0,0.0,41668.0,0,
2022-01-26,41668.0,0.0,41668.0,0,
2022-01-27,41668.0,0.0,41668.0,0,
2022-01-28,41668.0,0.0,41668.0,0,
2022-01-30,41668.0,0.0,41668.0,0,
2022-01-31,41668.0,0.0,41668.0,0,
2022-02-01,41668.0,0.0,41668.0,0,
2022-02-02,41668.0,0.0,41668.0,0,
2022-02-03,41668.0,0.0,41668.0,0,
2022-02-04,41668.0,0.0,41668.0,0,
2022-02-06,41668.0,0.0,41668.0,0,
2022-02-07,41668.0,0.0,41668.0,0,
2022-02-08,41668.0,0.0,41668.0,0,
2022-02-09,41668.0,0.0,41668.0,0,
2022-02-10,41668.0,0.0,41668.0,0,
2022-02-11,41668.0,0.0,41668.0,0,
2022-02-13,41668.0,0.0,41668.0,0,
2022-02-14,41668.0,0.0,41668.0,0,
2022-02-15,41668.0,0.0,41668.0,0,
2022-02-16,41668.0,0.0,41668.0,0,
2022-02-17,41668.0,0.0,41668.0,0,
2022-02-18,41668.0,0.0,41668.0,0,
2022-02-20,41668.0,0.0,41668.0,0,
2022-02-21,41668.0,0.0,41668.0,0,
2022-02-22,41668.0,0.0,41668.0,0,
2022-02-23,41668.0,0.0,41668.0,0,
2022-02-24,41668.0,0.0,41668.0,0,
2022-02-25,41668.0,0.0,41668.0,0,
2022-02-27,41668.0,0.0,41668.0,0,
2022-02-28,41668.0,0.0,41668.0,0,
2022-03-01,41668.0,0.0,41668.0,0,
2022-03-02,41668.0,0.0,41668.0,0,
2022-03-03,41668.0,0.0,41668.0,0,
2022-03-04,41668.0,0.0,41668.0,0,
2022-03-06,41668.0,0.0,41668.0,0,
2022-03-07,41668.0,0.0,41668.0,0,
2022-03-08,41668.0,0.0,41668.0,0,
2022-03-09,41668.0,0.0,41668.0,0,
2022-03-10,41668.0,0.0,41668.0,0,
2022-03-11,41668.0,0.0,41668.0,0,
2022-03-13,41668.0,0.0,41668.0,0,
2022-03-14,41668.0,0.0,41668.0,0,
2022-03-15,41668.0,0.0,41668.0,0,
2022-03-16,41668.0,0.0,41668.0,0,
2022-03-17,41668.0,0.0,41668.0,0,
2022-03-18,41668.0,0.0,41668.0,0,
2022-03-20,41668.0,0.0,41668.0,0,
2022-03-21,41668.0,0.0,41668.0,0,
2022-03-22,41668.0,0.0,41668.0,0,
2022-03-23,41668.0,-192.0,41476.0,1,Long
2022-03-24,41476.5,0.0,41476.5,0,
2022-03-25,41476.5,2.25,41478.75,1,Long
2022-03-27,41476.5,-29.25,41447.25,1,Long
2022-03-28,41476.5,222.75,41699.25,1,Long
2022-03-29,41476.5,471.25,41947.75,1,Long
2022-03-30,41476.5,353.5,41830.0,1,Long
2022-03-31,41476.5,162.25,41638.75,1,Long
2022-04-01,41476.5,103.0,41579.5,1,Long
2022-04-03,41476.5,68.5,41545.0,1,Long
2022-04-04,41476.5,401.75,41878.25,1,Long
2022-04-05,41476.5,84.5,41561.0,1,Long
2022-04-06,41476.5,-301.75,41174.75,1,Long
2022-04-07,41174.5,0.0,41174.5,0,
2022-04-08,41174.5,0.0,41174.5,0,
2022-04-10,41174.5,0.0,41174.5,0,
2022-04-11,41174.5,0.0,41174.5,0,
2022-04-12,41174.5,0.0,41174.5,0,
2022-04-13,41174.5,0.0,41174.5,0,
2022-04-14,41174.5,0.0,41174.5,0,
2022-04-17,41174.5,0.0,41174.5,0,
2022-04-18,41174.5,0.0,41174.5,0,
2022-04-19,41174.5,0.0,41174.5,0,
2022-04-20,41174.5,0.0,41174.5,0,
2022-04-21,41174.5,0.0,41174.5,0,
2022-04-22,41174.5,0.0,41174.5,0,
2022-04-24,41174.5,0.0,41174.5,0,
2022-04-25,41174.5,0.0,41174.5,0,
2022-04-26,41174.5,0.0,41174.5,0,
2022-04-27,41174.5,0.0,41174.5,0,
2022-04-28,41174.5,0.0,41174.5,0,
2022-04-29,41174.5,0.0,41174.5,0,
2022-05-01,41174.5,0.0,41174.5,0,
2022-05-02,41174.5,0.0,41174.5,0,
2022-05-03,41174.5,0.0,41174.5,0,
2022-05-04,41174.5,0.0,41174.5,0,
2022-05-05,41174.5,0.0,41174.5,0,
2022-05-06,41174.5,0.0,41174.5,0,
2022-05-08,41174.5,0.0,41174.5,0,
2022-05-09,41174.5,0.0,41174.5,0,
2022-05-10,41174.5,0.0,41174.5,0,
2022-05-11,41174.5,0.0,41174.5,0,
2022-05-12,41174.5,0.0,41174.5,0,
2022-05-13,41174.5,0.0,41174.5,0,
2022-05-15,41174.5,0.0,41174.5,0,
2022-05-16,41174.5,0.0,41174.5,0,
2022-05-17,41174.5,0.0,41174.5,0,
2022-05-18,41174.5,0.0,41174.5,0,
2022-05-19,41174.5,0.0,41174.5,0,
2022-05-20,41174.5,0.0,41174.5,0,
2022-05-22,41174.5,0.0,41174.5,0,
2022-05-23,41174.5,0.0,41174.5,0,
2022-05-24,41174.5,0.0,41174.5,0,
2022-05-25,41174.5,0.0,41174.5,0,
2022-05-26,41174.5,0.0,41174.5,0,
2022-05-27,41174.5,0.0,41174.5,0,
2022-05-29,41174.5,0.0,41174.5,0,
2022-05-30,41174.5,0.0,41174.5,0,
2022-05-31,41174.5,0.0,41174.5,0,
2022-06-01,41174.5,0.0,41174.5,0,
2022-06-02,41174.5,0.0,41174.5,0,
2022-06-03,41174.5,-371.5,40803.0,1,Long
2022-06-05,40801.0,0.0,40801.0,0,
2022-06-06,40801.0,0.0,40801.0,0,
2022-06-07,40801.0,0.0,40801.0,0,
2022-06-08,40801.0,0.0,40801.0,0,
2022-06-09,40801.0,0.0,40801.0,0,
2022-06-10,40801.0,0.0,40801.0,0,
2022-06-12,40801.0,0.0,40801.0,0,
2022-06-13,40801.0,0.0,40801.0,0,
2022-06-14,40801.0,0.0,40801.0,0,
2022-06-15,40801.0,0.0,40801.0,0,
2022-06-16,40801.0,0.0,40801.0,0,
2022-06-17,40801.0,0.0,40801.0,0,
2022-06-19,40801.0,0.0,40801.0,0,
2022-06-20,40801.0,0.0,40801.0,0,
2022-06-21,40801.0,0.0,40801.0,0,
2022-06-22,40801.0,0.0,40801.0,0,
2022-06-23,40801.0,0.0,40801.0,0,
2022-06-24,40801.0,0.0,40801.0,0,
2022-06-26,40801.0,0.0,40801.0,0,
2022-06-27,40801.0,0.0,40801.0,0,
2022-06-28,40801.0,0.0,40801.0,0,
2022-06-29,40801.0,0.0,40801.0,0,
2022-06-30,40801.0,0.0,40801.0,0,
2022-07-01,40801.0,0.0,40801.0,0,
2022-07-03,40801.0,0.0,40801.0,0,
2022-07-04,40801.0,0.0,40801.0,0,
2022-07-05,40801.0,0.0,40801.0,0,
2022-07-06,40801.0,0.0,40801.0,0,
2022-07-07,40801.0,0.0,40801.0,0,
2022-07-08,40801.0,0.0,40801.0,0,
2022-07-10,40801.0,0.0,40801.0,0,
2022-07-11,40801.0,0.0,40801.0,0,
2022-07-12,40801.0,0.0,40801.0,0,
2022-07-13,40801.0,0.0,40801.0,0,
2022-07-14,40801.0,0.0,40801.0,0,
2022-07-15,40801.0,0.0,40801.0,0,
2022-07-17,40801.0,0.0,40801.0,0,
2022-07-18,40801.0,0.0,40801.0,0,
2022-07-19,40801.0,0.0,40801.0,0,
2022-07-20,40801.0,0.0,40801.0,0,
2022-07-21,40801.0,112.25,40913.25,1,Long
2022-07-22,40801.0,-8.5,40792.5,1,Long
2022-07-24,40805.5,0.0,40805.5,0,
2022-07-25,40805.5,0.0,40805.5,0,
2022-07-26,40805.5,0.0,40805.5,0,
2022-07-27,40805.5,0.0,40805.5,0,
2022-07-28,40805.5,316.0,41121.5,1,Long
2022-07-29,40805.5,397.75,41203.25,1,Long
2022-07-31,40805.5,342.5,41148.0,1,Long
2022-08-01,40805.5,374.0,41179.5,1,Long
2022-08-02,40805.5,326.25,41131.75,1,Long
2022-08-03,40805.5,657.5,41463.0,1,Long
2022-08-04,40805.5,756.5,41562.0,1,Long
2022-08-05,40805.5,632.25,41437.75,2,Long
2022-08-07,40805.5,558.25,41363.75,2,Long
2022-08-08,40805.5,644.25,41449.75,2,Long
2022-08-09,40805.5,308.25,41113.75,2,Long
2022-08-10,40805.5,1000.75,41806.25,2,Long
2022-08-11,40805.5,874.25,41679.75,2,Long
2022-08-12,40805.5,1363.75,42169.25,2,Long
2022-08-14,40805.5,1283.25,42088.75,2,Long
2022-08-15,40805.5,1565.25,42370.75,2,Long
2022-08-16,40805.5,1506.75,42312.25,2,Long
2022-08-17,40805.5,1113.75,41919.25,2,Long
2022-08-18,40805.5,1257.25,42062.75,2,Long
2022-08-19,40805.5,685.25,41490.75,3,Long
2022-08-21,40805.5,498.5,41304.0,3,Long
2022-08-22,40805.5,-196.75,40608.75,3,Long
2022-08-23,40805.5,-377.5,40428.0,3,Long
2022-08-24,40805.5,-260.5,40545.0,3,Long
2022-08-25,40805.5,369.5,41175.0,3,Long
2022-08-26,41176.5,0.0,41176.5,0,
2022-08-28,41176.5,0.0,41176.5,0,
2022-08-29,41176.5,0.0,41176.5,0,
2022-08-30,41176.5,0.0,41176.5,0,
2022-08-31,41176.5,0.0,41176.5,0,
2022-09-01,41176.5,0.0,41176.5,0,
2022-09-02,41176.5,0.0,41176.5,0,
2022-09-04,41176.5,0.0,41176.5,0,
2022-09-05,41176.5,0.0,41176.5,0,
2022-09-06,41176.5,0.0,41176.5,0,
2022-09-07,41176.5,0.0,41176.5,0,
2022-09-08,41176.5,0.0,41176.5,0,
2022-09-09,41176.5,0.0,41176.5,0,
2022-09-11,41176.5,0.0,41176.5,0,
2022-09-12,41176.5,0.0,41176.5,0,
2022-09-13,41176.5,0.0,41176.5,0,
2022-09-14,41176.5,0.0,41176.5,0,
2022-09-15,41176.5,0.0,41176.5,0,
2022-09-16,41176.5,0.0,41176.5,0,
2022-09-18,41176.5,0.0,41176.5,0,
2022-09-19,41176.5,0.0,41176.5,0,
2022-09-20,41176.5,0.0,41176.5,0,
2022-09-21,41176.5,0.0,41176.5,0,
2022-09-22,41176.5,0.0,41176.5,0,
2022-09-23,41176.5,0.0,41176.5,0,
2022-09-25,41176.5,0.0,41176.5,0,
2022-09-26,41176.5,0.0,41176.5,0,
2022-09-27,41176.5,0.0,41176.5,0,
2022-09-28,41176.5,0.0,41176.5,0,
2022-09-29,41176.5,0.0,41176.5,0,
2022-09-30,41176.5,0.0,41176.5,0,
2022-10-02,41176.5,0.0,41176.5,0,
2022-10-03,41176.5,0.0,41176.5,0,
2022-10-04,41176.5,0.0,41176.5,0,
2022-10-05,41176.5,0.0,41176.5,0,
2022-10-06,41176.5,0.0,41176.5,0,
2022-10-07,41176.5,0.0,41176.5,0,
2022-10-09,41176.5,0.0,41176.5,0,
2022-10-10,41176.5,0.0,41176.5,0,
2022-10-11,41176.5,0.0,41176.5,0,
2022-10-12,41176.5,0.0,41176.5,0,
2022-10-13,41176.5,0.0,41176.5,0,
2022-10-14,41176.5,0.0,41176.5,0,
2022-10-16,41176.5,0.0,41176.5,0,
2022-10-17,41176.5,0.0,41176.5,0,
2022-10-18,41176.5,0.0,41176.5,0,
2022-10-19,41176.5,0.0,41176.5,0,
2022-10-20,41176.5,0.0,41176.5,0,
2022-10-21,41176.5,0.0,41176.5,0,
2022-10-23,41176.5,0.0,41176.5,0,
2022-10-24,41176.5,0.0,41176.5,0,
2022-10-25,41176.5,0.0,41176.5,0,
2022-10-26,41176.5,0.0,41176.5,0,
2022-10-27,41176.5,0.0,41176.5,0,
2022-10-28,41176.5,0.0,41176.5,0,
2022-10-30,41176.5,0.0,41176.5,0,
2022-10-31,41176.5,0.0,41176.5,0,
2022-11-01,41176.5,0.0,41176.5,0,
2022-11-02,41176.5,0.0,41176.5,0,
2022-11-03,41176.5,0.0,41176.5,0,
2022-11-04,41176.5,0.0,41176.5,0,
2022-11-06,41176.5,0.0,41176.5,0,
2022-11-07,41176.5,0.0,41176.5,0,
2022-11-08,41176.5,0.0,41176.5,0,
2022-11-09,41176.5,0.0,41176.5,0,
2022-11-10,41176.5,0.0,41176.5,0,
2022-11-11,41176.5,0.0,41176.5,0,
2022-11-13,41176.5,15.25,41191.75,1,Long
2022-11-14,41176.5,-29.0,41147.5,1,Long
2022-11-15,41147.5,0.0,41147.5,0,
2022-11-16,41147.5,-118.5,41029.0,1,Long
2022-11-17,41028.75,0.0,41028.75,0,
2022-11-18,41028.75,0.0,41028.75,0,
2022-11-20,41028.75,0.0,41028.75,0,
2022-11-21,41028.75,0.0,41028.75,0,
2022-11-22,41028.75,0.0,41028.75,0,
2022-11-23,41028.75,0.0,41028.75,0,
2022-11-24,41028.75,29.25,41058.0,1,Long
2022-11-25,41028.75,-104.5,40924.25,1,Long
2022-11-27,40875.5,0.0,40875.5,0,
2022-11-28,40875.5,0.0,40875.5,0,
2022-11-29,40875.5,0.0,40875.5,0,
2022-11-30,40875.5,0.0,40875.5,0,
2022-12-01,40875.5,-33.0,40842.5,1,Long
2022-12-02,40875.5,-93.25,40782.25,1,Long
2022-12-04,40875.5,-71.5,40804.0,1,Long
2022-12-05,40875.5,-253.75,40621.75,1,Long
2022-12-06,40875.5,-494.75,40380.75,1,Long
2022-12-07,40381.25,0.0,40381.25,0,
2022-12-08,40381.25,0.0,40381.25,0,
2022-12-09,40381.25,0.0,40381.25,0,
2022-12-11,40381.25,0.0,40381.25,0,
2022-12-12,40381.25,0.0,40381.25,0,
2022-12-13,40381.25,132.0,40513.25,1,Long
2022-12-14,40381.25,55.25,40436.5,1,Long
2022-12-15,40381.25,-369.0,40012.25,1,Long
2022-12-16,40012.25,0.0,40012.25,0,
2022-12-18,40012.25,0.0,40012.25,0,
2022-12-19,40012.25,0.0,40012.25,0,
2022-12-20,40012.25,0.0,40012.25,0,
2022-12-21,40012.25,0.0,40012.25,0,
2022-12-22,40012.25,0.0,40012.25,0,
2022-12-23,40012.25,0.0,40012.25,0,
2022-12-26,40012.25,0.0,40012.25,0,
2022-12-27,40012.25,0.0,40012.25,0,
2022-12-28,40012.25,0.0,40012.25,0,
2022-12-29,40012.25,0.0,40012.25,0,
2022-12-30,40012.25,0.0,40012.25,0,
2023-01-02,40012.25,0.0,40012.25,0,
2023-01-03,40012.25,0.0,40012.25,0,
2023-01-04,40012.25,0.0,40012.25,0,
2023-01-05,40012.25,0.0,40012.25,0,
2023-01-06,40012.25,0.0,40012.25,0,
2023-01-08,40012.25,0.0,40012.25,0,
2023-01-09,40012.25,0.0,40012.25,0,
2023-01-10,40012.25,0.0,40012.25,0,
2023-01-11,40012.25,0.0,40012.25,0,
2023-01-12,40012.25,0.0,40012.25,0,
2023-01-13,40012.25,0.0,40012.25,0,
2023-01-15,40012.25,0.0,40012.25,0,
2023-01-16,40012.25,0.0,40012.25,0,
2023-01-17,40012.25,0.0,40012.25,0,
2023-01-18,40012.25,0.0,40012.25,0,
2023-01-19,40012.25,0.0,40012.25,0,
2023-01-20,40012.25,0.0,40012.25,0,
2023-01-22,40012.25,-19.5,39992.75,1,Long
2023-01-23,39992.5,0.0,39992.5,0,
2023-01-24,39992.5,-78.5,39914.0,1,Long
2023-01-25,39992.5,-11.25,39981.25,1,Long
2023-01-26,39992.5,121.25,40113.75,1,Long
2023-01-27,39992.5,301.25,40293.75,1,Long
2023-01-29,39992.5,287.0,40279.5,1,Long
2023-01-30,39992.5,83.75,40076.25,1,Long
2023-01-31,39992.5,184.75,40177.25,1,Long
2023-02-01,39992.5,626.75,40619.25,1,Long
2023-02-02,39992.5,745.0,40737.5,1,Long
2023-02-03,39992.5,706.25,40698.75,2,Long
2023-02-05,39992.5,654.75,40647.25,2,Long
2023-02-06,39992.5,545.25,40537.75,2,Long
2023-02-07,39992.5,973.25,40965.75,2,Long
2023-02-08,39992.5,595.25,40587.75,2,Long
2023-02-09,39992.5,342.75,40335.25,2,Long
2023-02-10,39992.5,146.25,40138.75,2,Long
2023-02-12,39992.5,86.75,40079.25,2,Long
2023-02-13,39992.5,550.75,40543.25,2,Long
2023-02-14,39992.5,688.75,40681.25,2,Long
2023-02-15,39992.5,966.25,40958.75,2,Long
2023-02-16,39992.5,328.25,40320.75,2,Long
2023-02-17,39992.5,254.25,40246.75,3,Long
2023-02-19,39992.5,183.0,40175.5,3,Long
2023-02-20,39992.5,240.75,40233.25,3,Long
2023-02-21,39992.5,-552.75,39439.75,3,Long
2023-02-22,39992.5,-393.0,39599.5,3,Long
2023-02-23,39992.5,-374.25,39618.25,3,Long
2023-02-24,39992.5,-899.25,39093.25,3,Long
2023-02-26,39992.5,-843.75,39148.75,3,Long
2023-02-27,39992.5,-615.75,39376.75,3,Long
2023-02-28,39992.5,-829.5,39163.0,3,Long
2023-03-01,39992.5,-981.75,39010.75,3,Long
2023-03-02,39992.5,-784.5,39208.0,3,Long
2023-03-03,39992.5,113.75,40106.25,4,Long
2023-03-05,39992.5,-23.25,39969.25,4,Long
2023-03-06,39992.5,129.75,40122.25,4,Long
2023-03-07,39992.5,-486.25,39506.25,4,Long
2023-03-08,39992.5,-292.25,39700.25,4,Long
2023-03-09,39992.5,-1249.25,38743.25,4,Long
2023-03-10,38743.25,0.0,38743.25,0,
2023-03-12,38743.25,0.0,38743.25,0,
2023-03-13,38743.25,0.0,38743.25,0,
2023-03-14,38743.25,0.0,38743.25,0,
2023-03-15,38743.25,0.0,38743.25,0,
2023-03-16,38743.25,0.0,38743.25,0,
2023-03-17,38743.25,-73.25,38670.0,1,Long
2023-03-19,38709.5,0.0,38709.5,0,
2023-03-20,38709.5,0.0,38709.5,0,
2023-03-21,38709.5,0.0,38709.5,0,
2023-03-22,38709.5,-149.5,38560.0,1,Long
2023-03-23,38560.0,0.0,38560.0,0,
2023-03-24,38560.0,58.25,38618.25,1,Long
2023-03-26,38560.0,81.75,38641.75,1,Long
2023-03-27,38560.0,-43.5,38516.5,1,Long
2023-03-28,38560.0,-106.5,38453.5,1,Long
2023-03-29,38560.0,77.0,38637.0,1,Long
2023-03-30,38560.0,230.0,38790.0,1,Long
2023-03-31,38560.0,442.5,39002.5,1,Long
2023-04-02,38560.0,374.0,38934.0,1,Long
2023-04-03,38560.0,381.0,38941.0,1,Long
2023-04-04,38560.0,374.75,38934.75,1,Long
2023-04-05,38560.0,191.0,38751.0,1,Long
2023-04-06,38560.0,293.5,38853.5,1,Long
2023-04-07,38560.0,314.75,38874.75,2,Long
2023-04-09,38560.0,265.75,38825.75,2,Long
2023-04-10,38560.0,297.75,38857.75,2,Long
2023-04-11,38560.0,132.25,38692.25,2,Long
2023-04-12,38560.0,-183.75,38376.25,2,Long
2023-04-13,38560.0,336.75,38896.75,2,Long
2023-04-14,38560.0,351.75,38911.75,2,Long
2023-04-16,38560.0,326.25,38886.25,2,Long
2023-04-17,38560.0,310.75,38870.75,2,Long
2023-04-18,38560.0,303.25,38863.25,2,Long
2023-04-19,38560.0,209.25,38769.25,2,Long
2023-04-20,38560.0,117.75,38677.75,2,Long
2023-04-21,38560.0,108.75,38668.75,3,Long
2023-04-23,38560.0,87.75,38647.75,3,Long
2023-04-24,38560.0,31.5,38591.5,3,Long
2023-04-25,38560.0,-237.0,38323.0,3,Long
2023-04-26,38560.0,-246.0,38314.0,3,Long
2023-04-27,38560.0,513.75,39073.75,3,Long
2023-04-28,38560.0,864.0,39424.0,3,Long
2023-04-30,38560.0,804.75,39364.75,3,Long
2023-05-01,38560.0,740.25,39300.25,3,Long
2023-05-02,38560.0,429.75,38989.75,3,Long
2023-05-03,38560.0,176.25,38736.25,3,Long
2023-05-04,38560.0,164.25,38724.25,3,Long
2023-05-05,38560.0,791.25,39351.25,4,Long
2023-05-07,38560.0,766.25,39326.25,4,Long
2023-05-08,38560.0,897.25,39457.25,4,Long
2023-05-09,38560.0,651.25,39211.25,4,Long
2023-05-10,38560.0,1236.25,39796.25,4,Long
2023-05-11,38560.0,1368.25,39928.25,4,Long
2023-05-12,38560.0,1027.25,39587.25,4,Long
2023-05-14,38560.0,1014.25,39574.25,4,Long
2023-05-15,38560.0,1382.25,39942.25,4,Long
2023-05-16,38560.0,1547.25,40107.25,4,Long
2023-05-17,38560.0,2122.25,40682.25,4,Long
2023-05-18,38560.0,3267.25,41827.25,4,Long
2023-05-19,38560.0,2902.0,41462.0,5,Long
2023-05-21,38560.0,2963.25,41523.25,5,Long
2023-05-22,38560.0,3410.75,41970.75,5,Long
2023-05-23,38560.0,2437.0,40997.0,5,Long
2023-05-24,38560.0,2930.75,41490.75,5,Long
2023-05-25,38560.0,3520.75,42080.75,5,Long
2023-05-26,38560.0,5550.75,44110.75,5,Long
2023-05-28,38560.0,5778.25,44338.25,5,Long
2023-05-29,38560.0,5625.75,44185.75,5,Long
2023-05-30,38560.0,5804.5,44364.5,5,Long
2023-05-31,38560.0,5245.75,43805.75,5,Long
2023-06-01,38560.0,6112.0,44672.0,5,Long
2023-06-02,38560.0,6629.25,45189.25,6,Long
2023-06-04,38560.0,6329.25,44889.25,6,Long
2023-06-05,38560.0,6504.75,45064.75,6,Long
2023-06-06,38560.0,6680.25,45240.25,6,Long
2023-06-07,38560.0,5091.75,43651.75,6,Long
2023-06-08,38560.0,6110.25,44670.25,6,Long
2023-06-09,38560.0,6488.25,45048.25,6,Long
2023-06-11,38560.0,6657.75,45217.75,6,Long
2023-06-12,38560.0,9126.75,47686.75,6,Long
2023-06-13,38560.0,9741.75,48301.75,6,Long
2023-06-14,38560.0,10395.75,48955.75,6,Long
2023-06-15,38560.0,11265.75,49825.75,6,Long
2023-06-16,38560.0,10907.75,49467.75,7,Long
2023-06-18,38560.0,10920.0,49480.0,7,Long
2023-06-19,38560.0,10538.5,49098.5,7,Long
2023-06-20,38560.0,10631.25,49191.25,7,Long
2023-06-21,38560.0,9084.25,47644.25,7,Long
2023-06-22,38560.0,10349.5,48909.5,7,Long
2023-06-23,38560.0,9185.75,47745.75,7,Long
2023-06-25,38560.0,9502.5,48062.5,7,Long
2023-06-26,38560.0,8048.25,46608.25,7,Long
2023-06-27,38560.0,9212.0,47772.0,7,Long
2023-06-28,38560.0,10003.0,48563.0,7,Long
2023-06-29,38560.0,9614.5,48174.5,7,Long
2023-06-30,38560.0,10986.5,49546.5,8,Long
2023-07-02,38560.0,11254.5,49814.5,8,Long
2023-07-03,38560.0,11148.5,49708.5,8,Long
2023-07-04,38560.0,11170.5,49730.5,8,Long
2023-07-05,38560.0,11310.5,49870.5,8,Long
2023-07-06,38560.0,10258.5,48818.5,8,Long
2023-07-07,38560.0,9980.5,48540.5,8,Long
2023-07-09,38560.0,9894.5,48454.5,8,Long
2023-07-10,38560.0,9986.5,48546.5,8,Long
2023-07-11,38560.0,10564.5,49124.5,8,Long
2023-07-12,38560.0,12222.5,50782.5,8,Long
2023-07-13,38560.0,14146.5,52706.5,8,Long
2023-07-14,38560.0,14004.25,52564.25,9,Long
2023-07-16,38560.0,13774.75,52334.75,9,Long
2023-07-17,38560.0,15136.0,53696.0,9,Long
2023-07-18,38560.0,16423.0,54983.0,9,Long
2023-07-19,38560.0,15484.75,54044.75,9,Long
2023-07-20,38560.0,12991.75,51551.75,9,Long
2023-07-21,38560.0,12766.75,51326.75,9,Long
2023-07-23,38560.0,12715.0,51275.0,9,Long
2023-07-24,38560.0,12879.25,51439.25,9,Long
2023-07-25,38560.0,13511.5,52071.5,9,Long
2023-07-26,38560.0,13651.0,52211.0,9,Long
2023-07-27,38560.0,13050.25,51610.25,9,Long
2023-07-28,38560.0,15388.75,53948.75,10,Long
2023-07-30,38560.0,15806.25,54366.25,10,Long
2023-07-31,38560.0,15536.25,54096.25,10,Long
2023-08-01,38560.0,14463.75,53023.75,10,Long
2023-08-02,38560.0,11853.75,50413.75,10,Long
2023-08-03,38560.0,11746.25,50306.25,10,Long
2023-08-04,50303.75,0.0,50303.75,0,
2023-08-06,50303.75,0.0,50303.75,0,
2023-08-07,50303.75,0.0,50303.75,0,
2023-08-08,50303.75,0.0,50303.75,0,
2023-08-09,50303.75,0.0,50303.75,0,
2023-08-10,50303.75,0.0,50303.75,0,
2023-08-11,50303.75,0.0,50303.75,0,
2023-08-13,50303.75,0.0,50303.75,0,
2023-08-14,50303.75,0.0,50303.75,0,
2023-08-15,50303.75,0.0,50303.75,0,
2023-08-16,50303.75,0.0,50303.75,0,
2023-08-17,50303.75,0.0,50303.75,0,
2023-08-18,50303.75,0.0,50303.75,0,
2023-08-20,50303.75,0.0,50303.75,0,
2023-08-21,50303.75,0.0,50303.75,0,
2023-08-22,50303.75,0.0,50303.75,0,
2023-08-23,50303.75,0.0,50303.75,0,
2023-08-24,50303.75,0.0,50303.75,0,
2023-08-25,50303.75,0.0,50303.75,0,
2023-08-27,50303.75,0.0,50303.75,0,
2023-08-28,50303.75,0.0,50303.75,0,
2023-08-29,50303.75,0.0,50303.75,0,
2023-08-30,50303.75,68.25,50372.0,1,Long
2023-08-31,50303.75,101.75,50405.5,1,Long
2023-09-01,50303.75,77.75,50381.5,1,Long
2023-09-03,50303.75,82.0,50385.75,1,Long
2023-09-04,50303.75,91.5,50395.25,1,Long
2023-09-05,50303.75,87.25,50391.0,1,Long
2023-09-06,50303.75,-43.5,50260.25,1,Long
2023-09-07,50259.5,0.0,50259.5,0,
2023-09-08,50259.5,0.0,50259.5,0,
2023-09-10,50259.5,0.0,50259.5,0,
2023-09-11,50259.5,0.0,50259.5,0,
2023-09-12,50259.5,-152.25,50107.25,1,Long
2023-09-13,50259.5,-78.25,50181.25,1,Long
2023-09-14,50259.5,19.25,50278.75,1,Long
2023-09-15,50259.5,-274.75,49984.75,1,Long
2023-09-17,49985.25,0.0,49985.25,0,
2023-09-18,49985.25,0.0,49985.25,0,
2023-09-19,49985.25,0.0,49985.25,0,
2023-09-20,49985.25,0.0,49985.25,0,
2023-09-21,49985.25,0.0,49985.25,0,
2023-09-22,49985.25,0.0,49985.25,0,
2023-09-24,49985.25,0.0,49985.25,0,
2023-09-25,49985.25,0.0,49985.25,0,
2023-09-26,49985.25,0.0,49985.25,0,
2023-09-27,49985.25,0.0,49985.25,0,
2023-09-28,49985.25,0.0,49985.25,0,
2023-09-29,49985.25,0.0,49985.25,0,
2023-10-01,49985.25,0.0,49985.25,0,
2023-10-02,49985.25,0.0,49985.25,0,
2023-10-03,49985.25,0.0,49985.25,0,
2023-10-04,49985.25,0.0,49985.25,0,
2023-10-05,49985.25,0.0,49985.25,0,
2023-10-06,49985.25,0.0,49985.25,0,
2023-10-08,49985.25,0.0,49985.25,0,
2023-10-09,49985.25,0.0,49985.25,0,
2023-10-10,49985.25,0.0,49985.25,0,
2023-10-11,49985.25,0.0,49985.25,0,
2023-10-12,49985.25,-84.75,49900.5,1,Long
2023-10-13,49900.5,0.0,49900.5,0,
2023-10-15,49900.5,0.0,49900.5,0,
2023-10-16,49900.5,0.0,49900.5,0,
2023-10-17,49900.5,0.0,49900.5,0,
2023-10-18,49900.5,0.0,49900.5,0,
2023-10-19,49900.5,0.0,49900.5,0,
2023-10-20,49900.5,0.0,49900.5,0,
2023-10-22,49900.5,0.0,49900.5,0,
2023-10-23,49900.5,0.0,49900.5,0,
2023-10-24,49900.5,0.0,49900.5,0,
2023-10-25,49900.5,0.0,49900.5,0,
2023-10-26,49900.5,0.0,49900.5,0,
2023-10-27,49900.5,0.0,49900.5,0,
2023-10-29,49900.5,0.0,49900.5,0,
2023-10-30,49900.5,0.0,49900.5,0,
2023-10-31,49900.5,0.0,49900.5,0,
2023-11-01,49900.5,0.0,49900.5,0,
2023-11-02,49900.5,0.0,49900.5,0,
2023-11-03,49900.5,0.0,49900.5,0,
2023-11-05,49900.5,-11.25,49889.25,1,Long
2023-11-06,49889.25,0.0,49889.25,0,
2023-11-07,49889.25,159.5,50048.75,1,Long
2023-11-08,49889.25,149.25,50038.5,1,Long
2023-11-09,49889.25,24.0,49913.25,1,Long
2023-11-10,49889.25,372.5,50261.75,1,Long
2023-11-12,49889.25,351.5,50240.75,1,Long
2023-11-13,49889.25,349.75,50239.0,1,Long
2023-11-14,49889.25,696.0,50585.25,1,Long
2023-11-15,49889.25,656.25,50545.5,1,Long
2023-11-16,49889.25,677.0,50566.25,1,Long
2023-11-17,49889.25,666.0,50555.25,2,Long
2023-11-19,49889.25,645.5,50534.75,2,Long
2023-11-20,49889.25,1119.5,51008.75,2,Long
2023-11-21,49889.25,826.5,50715.75,2,Long
2023-11-22,49889.25,1009.5,50898.75,2,Long
2023-11-23,49889.25,1047.0,50936.25,2,Long
2023-11-24,49889.25,939.5,50828.75,2,Long
2023-11-26,49889.25,890.5,50779.75,2,Long
2023-11-27,49889.25,937.5,50826.75,2,Long
2023-11-28,49889.25,1024.5,50913.75,2,Long
2023-11-29,49889.25,1012.0,50901.25,2,Long
2023-11-30,49889.25,847.0,50736.25,2,Long
2023-12-01,49889.25,992.75,50882.0,3,Long
2023-12-03,49889.25,875.75,50765.0,3,Long
2023-12-04,49889.25,448.25,50337.5,3,Long
2023-12-05,49889.25,683.75,50573.0,3,Long
2023-12-06,49889.25,349.25,50238.5,3,Long
2023-12-07,49889.25,959.75,50849.0,3,Long
2023-12-08,49889.25,1177.25,51066.5,3,Long
2023-12-10,49889.25,1213.25,51102.5,3,Long
2023-12-11,49889.25,2264.0,52153.25,3,Long
2023-12-12,49889.25,2728.25,52617.5,3,Long
2023-12-13,49889.25,3347.75,53237.0,3,Long
2023-12-14,49889.25,3181.25,53070.5,3,Long
2023-12-15,49889.25,3328.75,53218.0,4,Long
2023-12-17,49889.25,3359.75,53249.0,4,Long
2023-12-18,49889.25,3761.75,53651.0,4,Long
2023-12-19,49889.25,4175.75,54065.0,4,Long
2023-12-20,49889.25,3311.75,53201.0,4,Long
2023-12-21,49889.25,3832.75,53722.0,4,Long
2023-12-22,49889.25,3914.75,53804.0,4,Long
2023-12-25,49889.25,4080.75,53970.0,4,Long
2023-12-26,49889.25,4422.75,54312.0,4,Long
2023-12-27,49889.25,4551.75,54441.0,4,Long
2023-12-28,49889.25,4467.75,54357.0,4,Long
2023-12-29,49889.25,4067.25,53956.5,5,Long
2024-01-01,49889.25,4196.0,54085.25,5,Long
2024-01-02,49889.25,2669.75,52559.0,5,Long
2024-01-03,52560.25,0.0,52560.25,0,
2024-01-04,52560.25,0.0,52560.25,0,
2024-01-05,52560.25,0.0,52560.25,0,
2024-01-07,52560.25,0.0,52560.25,0,
2024-01-08,52560.25,0.0,52560.25,0,
2024-01-09,52560.25,0.0,52560.25,0,
2024-01-10,52560.25,0.0,52560.25,0,
2024-01-11,52560.25,0.0,52560.25,0,
2024-01-12,52560.25,0.0,52560.25,0,
2024-01-14,52560.25,0.0,52560.25,0,
2024-01-15,52560.25,0.0,52560.25,0,
2024-01-16,52560.25,0.0,52560.25,0,
2024-01-17,52560.25,-125.5,52434.75,1,Long
2024-01-18,52434.75,0.0,52434.75,0,
2024-01-19,52434.75,315.0,52749.75,1,Long
2024-01-21,52434.75,335.5,52770.25,1,Long
2024-01-22,52434.75,316.25,52751.0,1,Long
2024-01-23,52434.75,427.75,52862.5,1,Long
2024-01-24,52434.75,468.75,52903.5,1,Long
2024-01-25,52434.75,394.25,52829.0,1,Long
2024-01-26,52434.75,356.5,52791.25,1,Long
2024-01-28,52434.75,331.5,52766.25,1,Long
2024-01-29,52434.75,573.75,53008.5,1,Long
2024-01-30,52434.75,300.0,52734.75,1,Long
2024-01-31,52434.75,134.25,52569.0,1,Long
2024-02-01,52434.75,445.25,52880.0,1,Long
2024-02-02,52434.75,472.5,52907.25,2,Long
2024-02-04,52434.75,515.5,52950.25,2,Long
2024-02-05,52434.75,493.0,52927.75,2,Long
2024-02-06,52434.75,404.5,52839.25,2,Long
2024-02-07,52434.75,785.5,53220.25,2,Long
2024-02-08,52434.75,835.0,53269.75,2,Long
2024-02-09,52434.75,1176.0,53610.75,2,Long
2024-02-11,52434.75,1170.5,53605.25,2,Long
2024-02-12,52434.75,975.0,53409.75,2,Long
2024-02-13,52434.75,481.0,52915.75,2,Long
2024-02-14,52434.75,858.0,53292.75,2,Long
2024-02-15,52434.75,1005.5,53440.25,2,Long
2024-02-16,52434.75,533.25,52968.0,3,Long
2024-02-18,52434.75,702.0,53136.75,3,Long
2024-02-19,52434.75,614.25,53049.0,3,Long
2024-02-20,52434.75,74.25,52509.0,3,Long
2024-02-21,52434.75,481.5,52916.25,3,Long
2024-02-22,52434.75,1494.0,53928.75,3,Long
2024-02-23,52434.75,1252.5,53687.25,3,Long
2024-02-25,52434.75,1317.0,53751.75,3,Long
2024-02-26,52434.75,1258.5,53693.25,3,Long
2024-02-27,52434.75,1384.5,53819.25,3,Long
2024-02-28,52434.75,978.75,53413.5,3,Long
2024-02-29,52434.75,1548.0,53982.75,3,Long
2024-03-01,52434.75,2310.25,54745.0,4,Long
2024-03-03,52434.75,2398.25,54833.0,4,Long
2024-03-04,52434.75,1917.25,54352.0,4,Long
2024-03-05,52434.75,874.25,53309.0,4,Long
2024-03-06,52434.75,1098.25,53533.0,4,Long
2024-03-07,52434.75,2089.25,54524.0,4,Long
2024-03-08,52434.75,1245.25,53680.0,4,Long
2024-03-10,52434.75,1195.25,53630.0,4,Long
2024-03-11,52434.75,2200.25,54635.0,4,Long
2024-03-12,52434.75,2938.25,55373.0,4,Long
2024-03-13,52434.75,2516.25,54951.0,4,Long
2024-03-14,52434.75,1978.25,54413.0,4,Long
2024-03-15,52434.75,1272.25,53707.0,5,Long
2024-03-17,52434.75,1349.75,53784.5,5,Long
2024-03-18,52434.75,1912.25,54347.0,5,Long
2024-03-19,52434.75,2297.25,54732.0,5,Long
2024-03-20,52434.75,3848.5,56283.25,5,Long
2024-03-21,52434.75,3899.75,56334.5,5,Long
2024-03-22,52434.75,3774.75,56209.5,5,Long
2024-03-24,52434.75,3884.75,56319.5,5,Long
2024-03-25,52434.75,3657.25,56092.0,5,Long
2024-03-26,52434.75,3401.0,55835.75,5,Long
2024-03-27,52434.75,3356.0,55790.75,5,Long
2024-03-28,52434.75,3281.0,55715.75,5,Long
2024-03-31,52434.75,3997.25,56432.0,5,Long
2024-04-01,52434.75,3306.0,55740.75,5,Long
2024-04-02,52434.75,2597.25,55032.0,5,Long
2024-04-03,52434.75,3183.5,55618.25,5,Long
2024-04-04,52434.75,1412.25,53847.0,5,Long
2024-04-05,52434.75,2522.75,54957.5,6,Long
2024-04-07,52434.75,2573.75,55008.5,6,Long
2024-04-08,52434.75,2470.25,54905.0,6,Long
2024-04-09,52434.75,2867.75,55302.5,6,Long
2024-04-10,52434.75,1610.75,54045.5,6,Long
2024-04-11,52434.75,3601.25,56036.0,6,Long
2024-04-12,52434.75,1688.75,54123.5,6,Long
2024-04-14,52434.75,2086.25,54521.0,6,Long
2024-04-15,54522.5,0.0,54522.5,0,
2024-04-16,54522.5,0.0,54522.5,0,
2024-04-17,54522.5,0.0,54522.5,0,
2024-04-18,54522.5,0.0,54522.5,0,
2024-04-19,54522.5,0.0,54522.5,0,
2024-04-21,54522.5,0.0,54522.5,0,
2024-04-22,54522.5,0.0,54522.5,0,
2024-04-23,54522.5,0.0,54522.5,0,
2024-04-24,54522.5,0.0,54522.5,0,
2024-04-25,54522.5,0.0,54522.5,0,
2024-04-26,54522.5,0.0,54522.5,0,
2024-04-28,54522.5,0.0,54522.5,0,
2024-04-29,54522.5,0.0,54522.5,0,
2024-04-30,54522.5,0.0,54522.5,0,
2024-05-01,54522.5,0.0,54522.5,0,
2024-05-02,54522.5,0.0,54522.5,0,
2024-05-03,54522.5,0.0,54522.5,0,
2024-05-05,54522.5,0.0,54522.5,0,
2024-05-06,54522.5,0.0,54522.5,0,
2024-05-07,54522.5,20.5,54543.0,1,Long
2024-05-08,54522.5,-22.0,54500.5,1,Long
2024-05-09,54500.25,0.0,54500.25,0,
2024-05-10,54500.25,7.75,54508.0,1,Long
2024-05-12,54500.25,13.75,54514.0,1,Long
2024-05-13,54500.25,52.0,54552.25,1,Long
2024-05-14,54500.25,185.25,54685.5,1,Long
2024-05-15,54500.25,489.25,54989.5,1,Long
2024-05-16,54500.25,419.5,54919.75,1,Long
2024-05-17,54500.25,402.0,54902.25,1,Long
2024-05-19,54500.25,435.25,54935.5,1,Long
2024-05-20,54500.25,520.0,55020.25,1,Long
2024-05-21,54500.25,581.75,55082.0,1,Long
2024-05-22,54500.25,643.0,55143.25,1,Long
2024-05-23,54500.25,469.25,54969.5,1,Long
2024-05-24,54500.25,653.25,55153.5,2,Long
2024-05-26,54500.25,582.75,55083.0,2,Long
2024-05-27,54500.25,726.25,55226.5,2,Long
2024-05-28,54500.25,769.75,55270.0,2,Long
2024-05-29,54500.25,356.75,54857.0,2,Long
2024-05-30,54500.25,27.75,54528.0,2,Long
2024-05-31,54500.25,53.25,54553.5,2,Long
2024-06-02,54500.25,93.75,54594.0,2,Long
2024-06-03,54500.25,210.75,54711.0,2,Long
2024-06-04,54500.25,385.25,54885.5,2,Long
2024-06-05,54500.25,1092.25,55592.5,2,Long
2024-06-06,54500.25,1059.75,55560.0,2,Long
2024-06-07,54500.25,965.75,55466.0,3,Long
2024-06-09,54500.25,953.75,55454.0,3,Long
2024-06-10,54500.25,1127.0,55627.25,3,Long
2024-06-11,54500.25,1643.0,56143.25,3,Long
2024-06-12,54500.25,2673.5,57173.75,3,Long
2024-06-13,54500.25,2728.25,57228.5,3,Long
2024-06-14,54500.25,2961.5,57461.75,3,Long
2024-06-16,54500.25,3007.25,57507.5,3,Long
2024-06-17,54500.25,4487.75,58988.0,3,Long
2024-06-18,54500.25,4542.5,59042.75,3,Long
2024-06-19,54500.25,4580.75,59081.0,3,Long
2024-06-20,54500.25,4081.25,58581.5,3,Long
2024-06-21,54500.25,3919.25,58419.5,4,Long
2024-06-23,54500.25,3916.25,58416.5,4,Long
2024-06-24,54500.25,2970.25,57470.5,4,Long
2024-06-25,54500.25,3746.25,58246.5,4,Long
2024-06-26,54500.25,3558.25,58058.5,4,Long
2024-06-27,54500.25,4265.25,58765.5,4,Long
2024-06-28,54500.25,3751.25,58251.5,4,Long
2024-06-30,54500.25,3667.25,58167.5,4,Long
2024-07-01,54500.25,3959.25,58459.5,4,Long
2024-07-02,54500.25,4834.25,59334.5,4,Long
2024-07-03,54500.25,5492.25,59992.5,4,Long
2024-07-04,54500.25,5445.25,59945.5,4,Long
2024-07-05,54500.25,6207.5,60707.75,5,Long
2024-07-07,54500.25,6208.75,60709.0,5,Long
2024-07-08,54500.25,6947.5,61447.75,5,Long
2024-07-09,54500.25,6743.75,61244.0,5,Long
2024-07-10,54500.25,7662.5,62162.75,5,Long
2024-07-11,54500.25,5328.75,59829.0,5,Long
2024-07-12,54500.25,5955.0,60455.25,5,Long
2024-07-14,54500.25,6056.25,60556.5,5,Long
2024-07-15,54500.25,6415.0,60915.25,5,Long
2024-07-16,54500.25,6082.5,60582.75,5,Long
2024-07-17,60582.75,0.0,60582.75,0,
2024-07-18,60582.75,0.0,60582.75,0,
2024-07-19,60582.75,0.0,60582.75,0,
2024-07-21,60582.75,0.0,60582.75,0,
2024-07-22,60582.75,0.0,60582.75,0,
2024-07-23,60582.75,0.0,60582.75,0,
2024-07-24,60582.75,0.0,60582.75,0,
2024-07-25,60582.75,0.0,60582.75,0,
2024-07-26,60582.75,0.0,60582.75,0,
2024-07-28,60582.75,0.0,60582.75,0,
2024-07-29,60582.75,0.0,60582.75,0,
2024-07-30,60582.75,0.0,60582.75,0,
2024-07-31,60582.75,0.0,60582.75,0,
2024-08-01,60582.75,0.0,60582.75,0,
2024-08-02,60582.75,0.0,60582.75,0,
2024-08-04,60582.75,0.0,60582.75,0,
2024-08-05,60582.75,0.0,60582.75,0,
2024-08-06,60582.75,0.0,60582.75,0,
2024-08-07,60582.75,0.0,60582.75,0,
2024-08-08,60582.75,0.0,60582.75,0,
2024-08-09,60582.75,0.0,60582.75,0,
2024-08-11,60582.75,0.0,60582.75,0,
2024-08-12,60582.75,0.0,60582.75,0,
2024-08-13,60582.75,0.0,60582.75,0,
2024-08-14,60582.75,-10.0,60572.75,1,Long
2024-08-15,60572.5,0.0,60572.5,0,
2024-08-16,60572.5,-9.5,60563.0,1,Long
2024-08-18,60572.5,34.5,60607.0,1,Long
2024-08-19,60572.5,247.0,60819.5,1,Long
2024-08-20,60572.5,176.0,60748.5,1,Long
2024-08-21,60572.5,322.5,60895.0,1,Long
2024-08-22,60572.5,24.75,60597.25,1,Long
2024-08-23,60572.5,163.75,60736.25,1,Long
2024-08-25,60572.5,149.0,60721.5,1,Long
2024-08-26,60572.5,-42.75,60529.75,1,Long
2024-08-27,60572.5,-27.0,60545.5,1,Long
2024-08-28,60572.5,-421.25,60151.25,1,Long
2024-08-29,60572.5,-184.0,60388.5,1,Long
2024-08-30,60572.5,37.0,60609.5,2,Long
2024-09-01,60572.5,21.0,60593.5,2,Long
2024-09-02,60572.5,10.0,60582.5,2,Long
2024-09-03,60572.5,-1236.0,59336.5,2,Long
2024-09-04,59337.5,0.0,59337.5,0,
2024-09-05,59337.5,0.0,59337.5,0,
2024-09-06,59337.5,0.0,59337.5,0,
2024-09-08,59337.5,0.0,59337.5,0,
2024-09-09,59337.5,0.0,59337.5,0,
2024-09-10,59337.5,0.0,59337.5,0,
2024-09-11,59337.5,0.0,59337.5,0,
2024-09-12,59337.5,0.0,59337.5,0,
2024-09-13,59337.5,0.0,59337.5,0,
2024-09-15,59337.5,40.25,59377.75,1,Long
2024-09-16,59337.5,174.75,59512.25,1,Long
2024-09-17,59337.5,207.25,59544.75,1,Long
2024-09-18,59337.5,265.25,59602.75,1,Long
2024-09-19,59337.5,551.0,59888.5,1,Long
2024-09-20,59337.5,516.25,59853.75,1,Long
2024-09-22,59337.5,564.0,59901.5,1,Long
2024-09-23,59337.5,570.25,59907.75,1,Long
2024-09-24,59337.5,681.5,60019.0,1,Long
2024-09-25,59337.5,779.5,60117.0,1,Long
2024-09-26,59337.5,845.75,60183.25,1,Long
2024-09-27,59337.5,674.5,60012.0,2,Long
2024-09-29,59337.5,832.5,60170.0,2,Long
2024-09-30,59337.5,782.5,60120.0,2,Long
2024-10-01,59337.5,152.5,59490.0,2,Long
2024-10-02,59337.5,397.0,59734.5,2,Long
2024-10-03,59337.5,253.5,59591.0,2,Long
2024-10-04,59337.5,694.0,60031.5,2,Long
2024-10-06,59337.5,748.5,60086.0,2,Long
2024-10-07,59337.5,253.5,59591.0,2,Long
2024-10-08,59337.5,833.5,60171.0,2,Long
2024-10-09,59337.5,1188.0,60525.5,2,Long
2024-10-10,59337.5,1190.5,60528.0,2,Long
2024-10-11,59337.5,1051.5,60389.0,3,Long
2024-10-13,59337.5,1095.75,60433.25,3,Long
2024-10-14,59337.5,1710.0,61047.5,3,Long
2024-10-15,59337.5,870.0,60207.5,3,Long
2024-10-16,59337.5,756.0,60093.5,3,Long
2024-10-17,59337.5,1029.75,60367.25,3,Long
2024-10-18,59337.5,1267.5,60605.0,3,Long
2024-10-20,59337.5,1355.25,60692.75,3,Long
2024-10-21,59337.5,1362.0,60699.5,3,Long
2024-10-22,59337.5,1403.25,60740.75,3,Long
2024-10-23,59337.5,684.75,60022.25,3,Long
2024-10-24,59337.5,957.75,60295.25,3,Long
2024-10-25,59337.5,1204.0,60541.5,4,Long
2024-10-27,59337.5,1689.0,61026.5,4,Long
2024-10-28,59337.5,1327.0,60664.5,4,Long
2024-10-29,59337.5,2287.0,61624.5,4,Long
2024-10-30,59337.5,1001.0,60338.5,4,Long
2024-10-31,59337.5,-409.0,58928.5,4,Long
2024-11-01,59337.5,-27.0,59310.5,4,Long
2024-11-03,59337.5,-165.0,59172.5,4,Long
2024-11-04,59337.5,-352.0,58985.5,4,Long
2024-11-05,59337.5,671.0,60008.5,4,Long
2024-11-06,59337.5,2859.0,62196.5,4,Long
2024-11-07,59337.5,4202.0,63539.5,4,Long
2024-11-08,59337.5,4211.5,63549.0,5,Long
2024-11-10,59337.5,4596.5,63934.0,5,Long
2024-11-11,59337.5,4156.5,63494.0,5,Long
2024-11-12,59337.5,3876.5,63214.0,5,Long
2024-11-13,59337.5,3906.5,63244.0,5,Long
2024-11-14,59337.5,2824.0,62161.5,5,Long
2024-11-15,59337.5,594.0,59931.5,5,Long
2024-11-17,59337.5,917.75,60255.25,5,Long
2024-11-18,59337.5,1187.75,60525.25,5,Long
2024-11-19,59337.5,1991.5,61329.0,5,Long
2024-11-20,59337.5,1839.0,61176.5,5,Long
2024-11-21,59337.5,1944.0,61281.5,5,Long
2024-11-22,59337.5,2511.5,61849.0,6,Long
2024-11-24,59337.5,2855.0,62192.5,6,Long
2024-11-25,59337.5,2246.0,61583.5,6,Long
2024-11-26,59337.5,3155.0,62492.5,6,Long
2024-11-27,59337.5,2180.0,61517.5,6,Long
2024-11-28,59337.5,2567.0,61904.5,6,Long
2024-11-29,59337.5,3189.5,62527.0,6,Long
2024-12-01,59337.5,3027.5,62365.0,6,Long
2024-12-02,59337.5,4523.0,63860.5,6,Long
2024-12-03,59337.5,5237.0,64574.5,6,Long
2024-12-04,59337.5,6302.0,65639.5,6,Long
2024-12-05,59337.5,5975.0,65312.5,6,Long
2024-12-06,59337.5,7035.5,66373.0,7,Long
2024-12-08,59337.5,7201.75,66539.25,7,Long
2024-12-09,59337.5,5856.0,65193.5,7,Long
2024-12-10,59337.5,5597.0,64934.5,7,Long
2024-12-11,59337.5,7905.25,67242.75,7,Long
2024-12-12,59337.5,7809.0,67146.5,7,Long
2024-12-13,59337.5,7921.0,67258.5,7,Long
2024-12-15,59337.5,8122.25,67459.75,7,Long
2024-12-16,59337.5,10290.5,69628.0,7,Long
2024-12-17,59337.5,11517.25,70854.75,7,Long
2024-12-18,70854.75,0.0,70854.75,0,
2024-12-19,70854.75,0.0,70854.75,0,
2024-12-20,70854.75,0.0,70854.75,0,
2024-12-22,70854.75,0.0,70854.75,0,
2024-12-23,70854.75,0.0,70854.75,0,
2024-12-24,70854.75,0.0,70854.75,0,
2024-12-25,70854.75,0.0,70854.75,0,
2024-12-26,70854.75,0.0,70854.75,0,
2024-12-27,70854.75,0.0,70854.75,0,
2024-12-29,70854.75,0.0,70854.75,0,
2024-12-30,70854.75,0.0,70854.75,0,
2024-12-31,70854.75,0.0,70854.75,0,
2025-01-01,70854.75,0.0,70854.75,0,
2025-01-02,70854.75,0.0,70854.75,0,
2025-01-03,70854.75,0.0,70854.75,0,
2025-01-05,70854.75,0.0,70854.75,0,
2025-01-06,70854.75,0.0,70854.75,0,
2025-01-07,70854.75,0.0,70854.75,0,
2025-01-08,70854.75,0.0,70854.75,0,
2025-01-09,70854.75,0.0,70854.75,0,
2025-01-10,70854.75,0.0,70854.75,0,
2025-01-12,70854.75,0.0,70854.75,0,
2025-01-13,70854.75,0.0,70854.75,0,
2025-01-14,70854.75,0.0,70854.75,0,
2025-01-15,70854.75,0.0,70854.75,0,
2025-01-16,70854.75,0.0,70854.75,0,
2025-01-17,70854.75,0.0,70854.75,0,
2025-01-19,70854.75,0.0,70854.75,0,
2025-01-20,70854.75,0.0,70854.75,0,
2025-01-21,70854.75,0.0,70854.75,0,
2025-01-22,70854.75,0.0,70854.75,0,
2025-01-23,70854.75,45.25,70900.0,1,Long
2025-01-24,70854.75,-57.0,70797.75,1,Long
2025-01-26,70663.0,0.0,70663.0,0,
2025-01-27,70663.0,0.0,70663.0,0,
2025-01-28,70663.0,0.0,70663.0,0,
2025-01-29,70663.0,0.0,70663.0,0,
2025-01-30,70663.0,0.0,70663.0,0,
2025-01-31,70663.0,0.0,70663.0,0,
2025-02-02,70663.0,0.0,70663.0,0,
2025-02-03,70663.0,0.0,70663.0,0,
2025-02-04,70663.0,0.0,70663.0,0,
2025-02-05,70663.0,0.0,70663.0,0,
2025-02-06,70663.0,0.0,70663.0,0,
2025-02-07,70663.0,0.0,70663.0,0,
2025-02-09,70663.0,0.0,70663.0,0,
2025-02-10,70663.0,0.0,70663.0,0,
2025-02-11,70663.0,0.0,70663.0,0,
2025-02-12,70663.0,0.0,70663.0,0,
2025-02-13,70663.0,0.0,70663.0,0,
2025-02-14,70663.0,118.25,70781.25,1,Long
2025-02-16,70663.0,126.75,70789.75,1,Long
2025-02-17,70663.0,135.75,70798.75,1,Long
2025-02-18,70663.0,165.75,70828.75,1,Long
2025-02-19,70663.0,132.75,70795.75,1,Long
2025-02-20,70663.0,76.75,70739.75,1,Long
2025-02-21,70663.0,-425.25,70237.75,1,Long
2025-02-23,70279.0,0.0,70279.0,0,
2025-02-24,70279.0,0.0,70279.0,0,
2025-02-25,70279.0,0.0,70279.0,0,
2025-02-26,70279.0,0.0,70279.0,0,
2025-02-27,70279.0,0.0,70279.0,0,
2025-02-28,70279.0,0.0,70279.0,0,
2025-03-02,70279.0,0.0,70279.0,0,
2025-03-03,70279.0,0.0,70279.0,0,
2025-03-04,70279.0,0.0,70279.0,0,
2025-03-05,70279.0,0.0,70279.0,0,
2025-03-06,70279.0,0.0,70279.0,0,
2025-03-07,70279.0,0.0,70279.0,0,
2025-03-09,70279.0,0.0,70279.0,0,
2025-03-10,70279.0,0.0,70279.0,0,
2025-03-11,70279.0,0.0,70279.0,0,
2025-03-12,70279.0,0.0,70279.0,0,
2025-03-13,70279.0,0.0,70279.0,0,
2025-03-14,70279.0,0.0,70279.0,0,
2025-03-16,70279.0,0.0,70279.0,0,
2025-03-17,70279.0,0.0,70279.0,0,
2025-03-18,70279.0,0.0,70279.0,0,
2025-03-19,70279.0,0.0,70279.0,0,
2025-03-20,70279.0,0.0,70279.0,0,
2025-03-21,70279.0,0.0,70279.0,0,
2025-03-23,70279.0,0.0,70279.0,0,
2025-03-24,70279.0,0.0,70279.0,0,
2025-03-25,70279.0,0.0,70279.0,0,
2025-03-26,70279.0,0.0,70279.0,0,
2025-03-27,70279.0,0.0,70279.0,0,
2025-03-28,70279.0,0.0,70279.0,0,
2025-03-30,70279.0,0.0,70279.0,0,
2025-03-31,70279.0,0.0,70279.0,0,
2025-04-01,70279.0,0.0,70279.0,0,
2025-04-02,70279.0,0.0,70279.0,0,
2025-04-03,70279.0,0.0,70279.0,0,
2025-04-04,70279.0,0.0,70279.0,0,
2025-04-06,70279.0,0.0,70279.0,0,
2025-04-07,70279.0,0.0,70279.0,0,
2025-04-08,70279.0,0.0,70279.0,0,
2025-04-09,70279.0,0.0,70279.0,0,
2025-04-10,70279.0,-956.0,69323.0,1,Long
2025-04-11,69321.5,0.0,69321.5,0,
2025-04-13,69321.5,0.0,69321.5,0,
2025-04-14,69321.5,0.0,69321.5,0,
2025-04-15,69321.5,0.0,69321.5,0,
2025-04-16,69321.5,0.0,69321.5,0,
2025-04-17,69321.5,0.0,69321.5,0,
2025-04-20,69321.5,0.0,69321.5,0,
2025-04-21,69321.5,0.0,69321.5,0,
2025-04-22,69321.5,0.0,69321.5,0,
2025-04-23,69321.5,0.0,69321.5,0,
2025-04-24,69321.5,0.0,69321.5,0,
2025-04-25,69321.5,142.0,69463.5,1,Long
2025-04-27,69321.5,41.5,69363.0,1,Long
2025-04-28,69321.5,115.75,69437.25,1,Long
2025-04-29,69321.5,150.5,69472.0,1,Long
2025-04-30,69321.5,504.25,69825.75,1,Long
2025-05-01,69321.5,377.5,69699.0,1,Long
2025-05-02,69321.5,787.75,70109.25,1,Long
2025-05-04,69321.5,672.5,69994.0,1,Long
2025-05-05,69321.5,595.75,69917.25,1,Long
2025-05-06,69321.5,654.75,69976.25,1,Long
2025-05-07,69321.5,539.5,69861.0,1,Long
2025-05-08,69321.5,726.5,70048.0,1,Long
2025-05-09,69321.5,737.75,70059.25,2,Long
2025-05-11,69321.5,1350.75,70672.25,2,Long
2025-05-12,69321.5,2261.75,71583.25,2,Long
2025-05-13,69321.5,3029.25,72350.75,2,Long
2025-05-14,69321.5,3195.75,72517.25,2,Long
2025-05-15,69321.5,3274.25,72595.75,2,Long
2025-05-16,69321.5,3253.25,72574.75,2,Long
2025-05-18,69321.5,3207.75,72529.25,2,Long
2025-05-19,69321.5,3524.25,72845.75,2,Long
2025-05-20,69321.5,3308.25,72629.75,2,Long
2025-05-21,69321.5,2739.25,72060.75,2,Long
2025-05-22,69321.5,2802.25,72123.75,2,Long
2025-05-23,69321.5,2288.75,71610.25,3,Long
2025-05-25,69321.5,2995.25,72316.75,3,Long
2025-05-26,69321.5,3137.0,72458.5,3,Long
2025-05-27,69321.5,3840.5,73162.0,3,Long
2025-05-28,69321.5,4727.0,74048.5,3,Long
2025-05-29,69321.5,3380.0,72701.5,3,Long
2025-05-30,69321.5,3536.0,72857.5,3,Long
2025-06-01,69321.5,3339.5,72661.0,3,Long
2025-06-02,69321.5,3913.25,73234.75,3,Long
2025-06-03,69321.5,4544.75,73866.25,3,Long
2025-06-04,69321.5,4652.75,73974.25,3,Long
2025-06-05,69321.5,4067.0,73388.5,3,Long
2025-06-06,69321.5,4868.0,74189.5,4,Long
2025-06-08,69321.5,4676.0,73997.5,4,Long
2025-06-09,69321.5,4957.0,74278.5,4,Long
2025-06-10,69321.5,5448.0,74769.5,4,Long
2025-06-11,69321.5,4983.0,74304.5,4,Long
2025-06-12,69321.5,4765.0,74086.5,4,Long
2025-06-13,69321.5,4245.0,73566.5,4,Long
2025-06-15,69321.5,4378.0,73699.5,4,Long
2025-06-16,69321.5,5692.0,75013.5,4,Long
2025-06-17,69321.5,5251.0,74572.5,4,Long
2025-06-18,69321.5,5424.0,74745.5,4,Long
2025-06-19,69321.5,5177.0,74498.5,4,Long
2025-06-20,69321.5,5191.5,74513.0,5,Long
2025-06-22,69321.5,4625.25,73946.75,5,Long
2025-06-23,69321.5,7002.75,76324.25,5,Long
2025-06-24,69321.5,7942.75,77264.25,5,Long
2025-06-25,69321.5,8146.5,77468.0,5,Long
2025-06-26,69321.5,9210.25,78531.75,5,Long
2025-06-27,69321.5,9522.75,78844.25,5,Long
2025-06-29,69321.5,9907.75,79229.25,5,Long
2025-06-30,69321.5,10229.0,79550.5,5,Long
2025-07-01,69321.5,9362.75,78684.25,5,Long
2025-07-02,69321.5,10064.0,79385.5,5,Long
2025-07-03,69321.5,10995.25,80316.75,5,Long
2025-07-04,69321.5,10344.0,79665.5,6,Long
2025-07-06,69321.5,10819.5,80141.0,6,Long
2025-07-07,69321.5,10161.0,79482.5,6,Long
2025-07-08,69321.5,10324.5,79646.0,6,Long
2025-07-09,69321.5,11127.0,80448.5,6,Long
2025-07-10,69321.5,11184.0,80505.5,6,Long
2025-07-11,69321.5,10540.5,79862.0,6,Long
2025-07-13,69321.5,10116.0,79437.5,6,Long
2025-07-14,69321.5,10986.0,80307.5,6,Long
2025-07-15,69321.5,11002.5,80324.0,6,Long
2025-07-16,69321.5,11160.0,80481.5,6,Long
2025-07-17,69321.5,12598.5,81920.0,6,Long
2025-07-18,69321.5,12304.75,81626.25,7,Long
2025-07-20,69321.5,12523.5,81845.0,7,Long
2025-07-21,69321.5,13129.0,82450.5,7,Long
2025-07-22,69321.5,12535.75,81857.25,7,Long
2025-07-23,69321.5,13510.5,82832.0,7,Long
2025-07-24,69321.5,13547.25,82868.75,7,Long
2025-07-25,69321.5,13834.25,83155.75,7,Long
2025-07-27,69321.5,14443.25,83764.75,7,Long
2025-07-28,69321.5,14403.0,83724.5,7,Long
2025-07-29,69321.5,14026.75,83348.25,7,Long
2025-07-30,69321.5,15778.5,85100.0,7,Long
2025-07-31,69321.5,12786.0,82107.5,7,Long
2025-08-01,82112.75,0.0,82112.75,0,
2025-08-03,82112.75,0.0,82112.75,0,
2025-08-04,82112.75,0.0,82112.75,0,
2025-08-05,82112.75,0.0,82112.75,0,
2025-08-06,82112.75,0.0,82112.75,0,
2025-08-07,82112.75,0.0,82112.75,0,
2025-08-08,82112.75,0.0,82112.75,0,
2025-08-10,82112.75,-59.5,82053.25,1,Long
2025-08-11,82052.5,0.0,82052.5,0,
2025-08-12,82052.5,0.0,82052.5,0,
2025-08-13,82052.5,-10.5,82042.0,1,Long
2025-08-14,82052.5,-71.0,81981.5,1,Long
2025-08-15,82052.5,-163.25,81889.25,1,Long
2025-08-17,82052.5,-108.75,81943.75,1,Long
2025-08-18,82052.5,-155.0,81897.5,1,Long
2025-08-19,82052.5,-537.75,81514.75,1,Long
2025-08-20,81515.5,0.0,81515.5,0,
2025-08-21,81515.5,0.0,81515.5,0,
2025-08-22,81515.5,0.0,81515.5,0,
2025-08-24,81515.5,0.0,81515.5,0,
2025-08-25,81515.5,0.0,81515.5,0,
2025-08-26,81515.5,0.0,81515.5,0,
2025-08-27,81515.5,0.0,81515.5,0,
2025-08-28,81515.5,0.0,81515.5,0,
2025-08-29,81515.5,0.0,81515.5,0,
2025-08-31,81515.5,0.0,81515.5,0,
2025-09-01,81515.5,0.0,81515.5,0,
2025-09-02,81515.5,0.0,81515.5,0,
2025-09-03,81515.5,0.0,81515.5,0,
2025-09-04,81515.5,0.0,81515.5,0,
2025-09-05,81515.5,0.0,81515.5,0,
2025-09-07,81515.5,0.0,81515.5,0,
2025-09-08,81515.5,29.25,81544.75,1,Long
2025-09-09,81515.5,107.75,81623.25,1,Long
2025-09-10,81515.5,122.75,81638.25,1,Long
2025-09-11,81515.5,241.25,81756.75,1,Long
2025-09-12,81515.5,336.5,81852.0,1,Long
2025-09-14,81515.5,333.0,81848.5,1,Long
2025-09-15,81515.5,527.0,82042.5,1,Long
2025-09-16,81515.5,765.0,82280.5,1,Long
2025-09-17,81515.5,806.0,82321.5,1,Long
2025-09-18,81515.5,962.0,82477.5,1,Long
2025-09-19,81515.5,1100.5,82616.0,2,Long
2025-09-21,81515.5,1080.5,82596.0,2,Long
2025-09-22,81515.5,1373.0,82888.5,2,Long
2025-09-23,81515.5,1059.5,82575.0,2,Long
2025-09-24,81515.5,889.5,82405.0,2,Long
2025-09-25,81515.5,611.5,82127.0,2,Long
2025-09-26,81515.5,833.0,82348.5,2,Long
2025-09-28,81515.5,922.5,82438.0,2,Long
2025-09-29,81515.5,1026.0,82541.5,2,Long
2025-09-30,81515.5,1038.5,82554.0,2,Long
2025-10-01,81515.5,1423.0,82938.5,2,Long
2025-10-02,81515.5,1626.5,83142.0,2,Long
2025-10-03,81515.5,1303.75,82819.25,3,Long
2025-10-05,81515.5,1559.5,83075.0,3,Long
2025-10-06,81515.5,1785.25,83300.75,3,Long
2025-10-07,81515.5,1459.75,82975.25,3,Long
2025-10-08,81515.5,2496.25,84011.75,3,Long
2025-10-09,81515.5,2364.25,83879.75,3,Long
2025-10-10,83881.25,0.0,83881.25,0,
2025-10-12,83881.25,0.0,83881.25,0,
2025-10-13,83881.25,0.0,83881.25,0,
2025-10-14,83881.25,0.0,83881.25,0,
2025-10-15,83881.25,0.0,83881.25,0,
2025-10-16,83881.25,0.0,83881.25,0,
2025-10-17,83881.25,0.0,83881.25,0,
2025-10-19,83881.25,0.0,83881.25,0,
2025-10-20,83881.25,0.0,83881.25,0,
2025-10-21,83881.25,0.0,83881.25,0,
2025-10-22,83881.25,0.0,83881.25,0,
2025-10-23,83881.25,0.0,83881.25,0,
2025-10-24,83881.25,0.0,83881.25,0,
2025-10-26,83881.25,0.0,83881.25,0,
2025-10-27,83881.25,277.75,84159.0,1,Long
2025-10-28,83881.25,467.0,84348.25,1,Long
2025-10-29,83881.25,518.75,84400.0,1,Long
2025-10-30,83881.25,453.5,84334.75,1,Long
2025-10-31,83881.25,266.75,84148.0,1,Long
2025-11-02,83881.25,363.75,84245.0,1,Long
2025-11-03,83881.25,352.0,84233.25,1,Long
2025-11-04,83881.25,-213.25,83668.0,1,Long
2025-11-05,83668.5,0.0,83668.5,0,
2025-11-06,83668.5,-456.0,83212.5,1,Long
2025-11-07,83212.5,0.0,83212.5,0,
2025-11-09,83212.5,0.0,83212.5,0,
2025-11-10,83212.5,0.0,83212.5,0,
2025-11-11,83212.5,-91.75,83120.75,1,Long
2025-11-12,83121.0,0.0,83121.0,0,
2025-11-13,83121.0,0.0,83121.0,0,
2025-11-14,83121.0,0.0,83121.0,0,
2025-11-16,83121.0,0.0,83121.0,0,
2025-11-17,83121.0,0.0,83121.0,0,
2025-11-18,83121.0,0.0,83121.0,0,
2025-11-19,83121.0,0.0,83121.0,0,
2025-11-20,83121.0,0.0,83121.0,0,
2025-11-21,83121.0,0.0,83121.0,0,
2025-11-23,83121.0,0.0,83121.0,0,
2025-11-24,83121.0,0.0,83121.0,0,
2025-11-25,83121.0,0.0,83121.0,0,
2025-11-26,83121.0,0.0,83121.0,0,
2025-11-27,83121.0,0.0,83121.0,0,
2025-11-28,83121.0,0.0,83121.0,0,
2025-11-30,83121.0,0.0,83121.0,0,
2025-12-01,83121.0,0.0,83121.0,0,
2025-12-02,83121.0,0.0,83121.0,0,
2025-12-03,83121.0,0.0,83121.0,0,
2025-12-04,83121.0,0.0,83121.0,0,
2025-12-05,83121.0,0.0,83121.0,0,
2025-12-07,83121.0,0.0,83121.0,0,
2025-12-08,83121.0,0.0,83121.0,0,
2025-12-09,83121.0,0.0,83121.0,0,
2025-12-10,83121.0,0.0,83121.0,0,
2025-12-11,83121.0,0.0,83121.0,0,
2025-12-12,83121.0,0.0,83121.0,0,
2025-12-14,83121.0,0.0,83121.0,0,
2025-12-15,83121.0,0.0,83121.0,0,
2025-12-16,83121.0,0.0,83121.0,0,
2025-12-17,83121.0,0.0,83121.0,0,
2025-12-18,83121.0,0.0,83121.0,0,
2025-12-19,83121.0,0.0,83121.0,0,
2025-12-21,83121.0,0.0,83121.0,0,
2025-12-22,83121.0,0.0,83121.0,0,
2025-12-23,83121.0,0.0,83121.0,0,
2025-12-24,83121.0,0.0,83121.0,0,
2025-12-25,83121.0,17.25,83138.25,1,Long
2025-12-26,83121.0,-13.0,83108.0,1,Long
2025-12-28,83120.0,0.0,83120.0,0,
2025-12-29,83120.0,0.0,83120.0,0,
2025-12-30,83120.0,0.0,83120.0,0,
2025-12-31,83120.0,0.0,83120.0,0,
2026-01-01,83120.0,0.0,83120.0,0,
2026-01-02,83120.0,0.0,83120.0,0,
2026-01-04,83120.0,0.0,83120.0,0,
2026-01-05,83120.0,0.0,83120.0,0,
2026-01-06,83120.0,0.0,83120.0,0,
2026-01-07,83120.0,0.0,83120.0,0,
2026-01-08,83120.0,0.0,83120.0,0,
2026-01-09,83120.0,0.0,83120.0,0,
2026-01-11,83120.0,-52.5,83067.5,1,Long
2026-01-12,83120.0,-50.75,83069.25,1,Long
2026-01-13,83120.0,-55.5,83064.5,1,Long
2026-01-14,83120.0,-341.0,82779.0,1,Long
2026-01-15,82779.0,0.0,82779.0,0,
2026-01-16,82779.0,0.0,82779.0,0,
2026-01-18,82779.0,0.0,82779.0,0,
2026-01-19,82779.0,0.0,82779.0,0,
2026-01-20,82779.0,0.0,82779.0,0,
2026-01-21,82779.0,0.0,82779.0,0,
2026-01-22,82779.0,0.0,82779.0,0,
2026-01-23,82779.0,0.0,82779.0,0,
2026-01-25,82779.0,0.0,82779.0,0,
2026-01-26,82779.0,0.0,82779.0,0,
2026-01-27,82779.0,0.0,82779.0,0,
2026-01-28,82779.0,32.0,82811.0,1,Long
2026-01-29,82779.0,-166.0,82613.0,1,Long
2026-01-30,82612.5,0.0,82612.5,0,
2026-02-01,82612.5,0.0,82612.5,0,
2026-02-02,82612.5,0.0,82612.5,0,
2026-02-03,82612.5,0.0,82612.5,0,
2026-02-04,82612.5,0.0,82612.5,0,
2026-02-05,82612.5,0.0,82612.5,0,
2026-02-06,82612.5,0.0,82612.5,0,
2026-02-08,82612.5,0.0,82612.5,0,
2026-02-09,82612.5,0.0,82612.5,0,
2026-02-10,82612.5,0.0,82612.5,0,
2026-02-11,82612.5,0.0,82612.5,0,
2026-02-12,82612.5,0.0,82612.5,0,
2026-02-13,82612.5,0.0,82612.5,0,
2026-02-15,82612.5,0.0,82612.5,0,
2026-02-16,82612.5,0.0,82612.5,0,
2026-02-17,82612.5,0.0,82612.5,0,
2026-02-18,82612.5,0.0,82612.5,0,
2026-02-19,82612.5,0.0,82612.5,0,
2026-02-20,82612.5,0.0,82612.5,0,
2026-02-22,82612.5,0.0,82612.5,0,
2026-02-23,82612.5,0.0,82612.5,0,
2026-02-24,82612.5,0.0,82612.5,0,
2026-02-25,82612.5,0.0,82612.5,0,
2026-02-26,82612.5,0.0,82612.5,0,
2026-02-27,82612.5,0.0,82612.5,0,
2026-03-01,82612.5,0.0,82612.5,0,
2026-03-02,82612.5,0.0,82612.5,0,
2026-03-03,82612.5,0.0,82612.5,0,
2026-03-04,82612.5,0.0,82612.5,0,
2026-03-05,82612.5,0.0,82612.5,0,
2026-03-06,82612.5,0.0,82612.5,0,
2026-03-08,82612.5,0.0,82612.5,0,
