date,realized_points,open_unrealized_points,total_equity_points,open_units,direction
2019-05-05,0.0,0.0,0.0,0,
2019-05-06,0.0,0.0,0.0,0,
2019-05-07,0.0,0.0,0.0,0,
2019-05-08,0.0,0.0,0.0,0,
2019-05-09,0.0,0.0,0.0,0,
2019-05-10,0.0,0.0,0.0,0,
2019-05-12,0.0,0.0,0.0,0,
2019-05-13,0.0,0.0,0.0,0,
2019-05-14,0.0,0.0,0.0,0,
2019-05-15,0.0,0.0,0.0,0,
2019-05-16,0.0,0.0,0.0,0,
2019-05-17,0.0,0.0,0.0,0,
2019-05-19,0.0,0.0,0.0,0,
2019-05-20,0.0,0.0,0.0,0,
2019-05-21,0.0,0.0,0.0,0,
2019-05-22,0.0,0.0,0.0,0,
2019-05-23,0.0,0.0,0.0,0,
2019-05-24,0.0,0.0,0.0,0,
2019-05-26,0.0,0.0,0.0,0,
2019-05-27,0.0,0.0,0.0,0,
2019-05-28,0.0,0.0,0.0,0,
2019-05-29,0.0,0.0,0.0,0,
2019-05-30,0.0,0.0,0.0,0,
2019-05-31,0.0,0.0,0.0,0,
2019-06-02,0.0,0.0,0.0,0,
2019-06-03,0.0,0.0,0.0,0,
2019-06-04,0.0,0.0,0.0,0,
2019-06-05,0.0,0.0,0.0,0,
2019-06-06,0.0,0.0,0.0,0,
2019-06-07,0.0,0.0,0.0,0,
2019-06-09,0.0,-5.25,-5.25,1,Long
2019-06-10,0.0,46.5,46.5,1,Long
2019-06-11,0.0,53.0,53.0,1,Long
2019-06-12,0.0,28.75,28.75,1,Long
2019-06-13,0.0,34.5,34.5,1,Long
2019-06-14,0.0,23.0,23.0,1,Long
2019-06-16,0.0,65.0,65.0,1,Long
2019-06-17,0.0,101.75,101.75,1,Long
2019-06-18,0.0,224.0,224.0,1,Long
2019-06-19,0.0,266.25,266.25,1,Long
2019-06-20,0.0,302.75,302.75,1,Long
2019-06-21,0.0,285.25,285.25,2,Long
2019-06-23,0.0,332.75,332.75,2,Long
2019-06-24,0.0,310.25,310.25,2,Long
2019-06-25,0.0,44.75,44.75,2,Long
2019-06-26,0.0,99.75,99.75,2,Long
2019-06-27,0.0,183.75,183.75,2,Long
2019-06-28,0.0,240.25,240.25,2,Long
2019-06-30,0.0,397.25,397.25,2,Long
2019-07-01,0.0,347.25,347.25,2,Long
2019-07-02,0.0,463.25,463.25,2,Long
2019-07-03,0.0,572.25,572.25,2,Long
2019-07-04,0.0,600.75,600.75,2,Long
2019-07-05,0.0,501.75,501.75,3,Long
2019-07-07,0.0,465.75,465.75,3,Long
2019-07-08,0.0,319.5,319.5,3,Long
2019-07-09,0.0,478.5,478.5,3,Long
2019-07-10,0.0,719.25,719.25,3,Long
2019-07-11,0.0,702.75,702.75,3,Long
2019-07-12,0.0,811.5,811.5,3,Long
2019-07-14,0.0,793.5,793.5,3,Long
2019-07-15,0.0,921.0,921.0,3,Long
2019-07-16,0.0,762.0,762.0,3,Long
2019-07-17,0.0,556.5,556.5,3,Long
2019-07-18,0.0,774.75,774.75,3,Long
2019-07-19,0.0,394.5,394.5,4,Long
2019-07-21,0.0,522.5,522.5,4,Long
2019-07-22,0.0,833.5,833.5,4,Long
2019-07-23,0.0,932.5,932.5,4,Long
2019-07-24,0.0,1185.5,1185.5,4,Long
2019-07-25,0.0,1089.5,1089.5,4,Long
2019-07-26,0.0,1178.5,1178.5,4,Long
2019-07-28,0.0,1190.5,1190.5,4,Long
2019-07-29,0.0,1158.5,1158.5,4,Long
2019-07-30,0.0,1076.5,1076.5,4,Long
2019-07-31,0.0,468.5,468.5,4,Long
2019-08-01,0.0,261.5,261.5,4,Long
2019-08-02,265.5,0.0,265.5,0,
2019-08-04,265.5,0.0,265.5,0,
2019-08-05,265.5,0.0,265.5,0,
2019-08-06,265.5,0.0,265.5,0,
2019-08-07,265.5,0.0,265.5,0,
2019-08-08,265.5,0.0,265.5,0,
2019-08-09,265.5,0.0,265.5,0,
2019-08-11,265.5,0.0,265.5,0,
2019-08-12,265.5,0.0,265.5,0,
2019-08-13,265.5,0.0,265.5,0,
2019-08-14,265.5,0.0,265.5,0,
2019-08-15,265.5,0.0,265.5,0,
2019-08-16,265.5,0.0,265.5,0,
2019-08-18,265.5,0.0,265.5,0,
2019-08-19,265.5,0.0,265.5,0,
2019-08-20,265.5,0.0,265.5,0,
2019-08-21,265.5,0.0,265.5,0,
2019-08-22,265.5,0.0,265.5,0,
2019-08-23,265.5,0.0,265.5,0,
2019-08-25,265.5,0.0,265.5,0,
2019-08-26,265.5,0.0,265.5,0,
2019-08-27,265.5,0.0,265.5,0,
2019-08-28,265.5,0.0,265.5,0,
2019-08-29,265.5,0.0,265.5,0,
2019-08-30,265.5,0.0,265.5,0,
2019-09-01,265.5,0.0,265.5,0,
2019-09-02,265.5,0.0,265.5,0,
2019-09-03,265.5,0.0,265.5,0,
2019-09-04,265.5,0.0,265.5,0,
2019-09-05,265.5,0.0,265.5,0,
2019-09-06,265.5,-8.0,257.5,1,Long
2019-09-08,265.5,-9.25,256.25,1,Long
2019-09-09,265.5,-30.25,235.25,1,Long
2019-09-10,265.5,-62.25,203.25,1,Long
2019-09-11,265.5,78.75,344.25,1,Long
2019-09-12,265.5,60.25,325.75,1,Long
2019-09-13,265.5,38.25,303.75,1,Long
2019-09-15,265.5,-33.75,231.75,1,Long
2019-09-16,265.5,12.0,277.5,1,Long
2019-09-17,265.5,38.25,303.75,1,Long
2019-09-18,265.5,33.0,298.5,1,Long
2019-09-19,265.5,54.0,319.5,1,Long
2019-09-20,265.5,-41.25,224.25,2,Long
2019-09-22,265.5,47.25,312.75,2,Long
2019-09-23,265.5,64.75,330.25,2,Long
2019-09-24,265.5,-200.25,65.25,2,Long
2019-09-25,265.5,-73.25,192.25,2,Long
2019-09-26,265.5,-151.25,114.25,2,Long
2019-09-27,265.5,-274.75,-9.25,2,Long
2019-09-29,265.5,-259.25,6.25,2,Long
2019-09-30,265.5,-143.25,122.25,2,Long
2019-10-01,265.5,-261.75,3.75,2,Long
2019-10-02,1.75,0.0,1.75,0,
2019-10-03,1.75,0.0,1.75,0,
2019-10-04,1.75,0.0,1.75,0,
2019-10-06,1.75,0.0,1.75,0,
2019-10-07,1.75,0.0,1.75,0,
2019-10-08,1.75,0.0,1.75,0,
2019-10-09,1.75,0.0,1.75,0,
2019-10-10,1.75,0.0,1.75,0,
2019-10-11,1.75,0.0,1.75,0,
2019-10-13,1.75,0.0,1.75,0,
2019-10-14,1.75,0.0,1.75,0,
2019-10-15,1.75,0.0,1.75,0,
2019-10-16,1.75,0.0,1.75,0,
2019-10-17,1.75,0.0,1.75,0,
2019-10-18,1.75,0.0,1.75,0,
2019-10-20,1.75,0.0,1.75,0,
2019-10-21,1.75,0.0,1.75,0,
2019-10-22,1.75,0.0,1.75,0,
2019-10-23,1.75,0.0,1.75,0,
2019-10-24,1.75,0.0,1.75,0,
2019-10-25,1.75,0.0,1.75,0,
2019-10-27,1.75,9.0,10.75,1,Long
2019-10-28,1.75,64.75,66.5,1,Long
2019-10-29,1.75,11.0,12.75,1,Long
2019-10-30,1.75,75.25,77.0,1,Long
2019-10-31,1.75,41.5,43.25,1,Long
2019-11-01,1.75,115.0,116.75,1,Long
2019-11-03,1.75,128.75,130.5,1,Long
2019-11-04,1.75,191.75,193.5,1,Long
2019-11-05,1.75,165.25,167.0,1,Long
2019-11-06,1.75,155.25,157.0,1,Long
2019-11-07,1.75,189.25,191.0,1,Long
2019-11-08,1.75,212.0,213.75,2,Long
2019-11-10,1.75,196.5,198.25,2,Long
2019-11-11,1.75,180.0,181.75,2,Long
2019-11-12,1.75,221.0,222.75,2,Long
2019-11-13,1.75,220.5,222.25,2,Long
2019-11-14,1.75,235.0,236.75,2,Long
2019-11-15,1.75,339.5,341.25,2,Long
2019-11-17,1.75,312.5,314.25,2,Long
2019-11-18,1.75,347.5,349.25,2,Long
2019-11-19,1.75,327.5,329.25,2,Long
2019-11-20,1.75,232.5,234.25,2,Long
2019-11-21,1.75,232.0,233.75,2,Long
2019-11-22,1.75,256.0,257.75,3,Long
2019-11-24,1.75,330.25,332.0,3,Long
2019-11-25,1.75,536.5,538.25,3,Long
2019-11-26,1.75,614.5,616.25,3,Long
2019-11-27,1.75,686.5,688.25,3,Long
2019-11-28,1.75,757.75,759.5,3,Long
2019-11-29,1.75,673.75,675.5,3,Long
2019-12-01,1.75,703.0,704.75,3,Long
2019-12-02,1.75,322.75,324.5,3,Long
2019-12-03,1.75,195.25,197.0,3,Long
2019-12-04,1.75,282.25,284.0,3,Long
2019-12-05,1.75,354.25,356.0,3,Long
2019-12-06,1.75,619.75,621.5,4,Long
2019-12-08,1.75,624.75,626.5,4,Long
2019-12-09,1.75,439.75,441.5,4,Long
2019-12-10,1.75,450.75,452.5,4,Long
2019-12-11,1.75,665.75,667.5,4,Long
2019-12-12,1.75,1014.75,1016.5,4,Long
2019-12-13,1.75,1095.75,1097.5,4,Long
2019-12-15,1.75,1148.75,1150.5,4,Long
2019-12-16,1.75,1401.75,1403.5,4,Long
2019-12-17,1.75,1419.75,1421.5,4,Long
2019-12-18,1.75,1494.75,1496.5,4,Long
2019-12-19,1.75,1726.75,1728.5,4,Long
2019-12-20,1.75,1847.75,1849.5,5,Long
2019-12-22,1.75,1907.75,1909.5,5,Long
2019-12-23,1.75,1942.75,1944.5,5,Long
2019-12-24,1.75,1946.5,1948.25,5,Long
2019-12-25,1.75,1947.75,1949.5,5,Long
2019-12-26,1.75,2336.5,2338.25,5,Long
2019-12-27,1.75,2190.25,2192.0,5,Long
2019-12-29,1.75,2285.25,2287.0,5,Long
2019-12-30,1.75,1971.5,1973.25,5,Long
2019-12-31,1.75,2154.0,2155.75,5,Long
2020-01-01,1.75,2176.5,2178.25,5,Long
2020-01-02,1.75,2790.25,2792.0,5,Long
2020-01-03,1.75,2347.75,2349.5,6,Long
2020-01-05,1.75,2154.25,2156.0,6,Long
2020-01-06,1.75,2580.25,2582.0,6,Long
2020-01-07,1.75,1998.25,2000.0,6,Long
2020-01-08,1.75,3198.25,3200.0,6,Long
2020-01-09,1.75,3579.25,3581.0,6,Long
2020-01-10,1.75,3355.75,3357.5,6,Long
2020-01-12,1.75,3411.25,3413.0,6,Long
2020-01-13,1.75,4116.25,4118.0,6,Long
2020-01-14,1.75,3672.25,3674.0,6,Long
2020-01-15,1.75,3931.75,3933.5,6,Long
2020-01-16,1.75,4360.75,4362.5,6,Long
2020-01-17,1.75,4513.75,4515.5,7,Long
2020-01-19,1.75,4608.25,4610.0,7,Long
2020-01-20,1.75,4505.0,4506.75,7,Long
2020-01-21,1.75,4562.75,4564.5,7,Long
2020-01-22,1.75,4592.5,4594.25,7,Long
2020-01-23,1.75,5205.0,5206.75,7,Long
2020-01-24,1.75,4275.75,4277.5,7,Long
2020-01-26,1.75,3416.5,3418.25,7,Long
2020-01-27,1.75,3166.25,3168.0,7,Long
2020-01-28,1.75,4015.0,4016.75,7,Long
2020-01-29,1.75,4167.25,4169.0,7,Long
2020-01-30,1.75,4841.0,4842.75,7,Long
2020-01-31,1.75,3402.5,3404.25,8,Long
2020-02-02,1.75,3464.5,3466.25,8,Long
2020-02-03,1.75,4020.5,4022.25,8,Long
2020-02-04,1.75,6006.5,6008.25,8,Long
2020-02-05,1.75,6350.5,6352.25,8,Long
2020-02-06,1.75,7036.5,7038.25,8,Long
2020-02-07,1.75,6502.5,6504.25,8,Long
2020-02-09,1.75,6152.5,6154.25,8,Long
2020-02-10,1.75,7504.5,7506.25,8,Long
2020-02-11,1.75,7632.5,7634.25,8,Long
2020-02-12,1.75,7914.5,7916.25,8,Long
2020-02-13,1.75,8180.5,8182.25,8,Long
2020-02-14,1.75,8348.5,8350.25,9,Long
2020-02-16,1.75,8647.75,8649.5,9,Long
2020-02-17,1.75,8096.5,8098.25,9,Long
2020-02-18,1.75,8650.0,8651.75,9,Long
2020-02-19,1.75,9376.75,9378.5,9,Long
2020-02-20,1.75,7826.5,7828.25,9,Long
2020-02-21,1.75,6778.0,6779.75,9,Long
2020-02-23,5965.25,0.0,5965.25,0,
2020-02-24,5965.25,0.0,5965.25,0,
2020-02-25,5965.25,0.0,5965.25,0,
2020-02-26,5965.25,0.0,5965.25,0,
2020-02-27,5965.25,0.0,5965.25,0,
2020-02-28,5965.25,0.0,5965.25,0,
2020-03-01,5965.25,0.0,5965.25,0,
2020-03-02,5965.25,0.0,5965.25,0,
2020-03-03,5965.25,0.0,5965.25,0,
2020-03-04,5965.25,0.0,5965.25,0,
2020-03-05,5965.25,0.0,5965.25,0,
2020-03-06,5965.25,0.0,5965.25,0,
2020-03-08,5965.25,0.0,5965.25,0,
2020-03-09,5965.25,0.0,5965.25,0,
2020-03-10,5965.25,0.0,5965.25,0,
2020-03-11,5965.25,0.0,5965.25,0,
2020-03-12,5965.25,0.0,5965.25,0,
2020-03-13,5965.25,0.0,5965.25,0,
2020-03-15,5965.25,0.0,5965.25,0,
2020-03-16,5965.25,0.0,5965.25,0,
2020-03-17,5965.25,0.0,5965.25,0,
2020-03-18,5965.25,0.0,5965.25,0,
2020-03-19,5965.25,0.0,5965.25,0,
2020-03-20,5965.25,0.0,5965.25,0,
2020-03-22,5965.25,0.0,5965.25,0,
2020-03-23,5965.25,0.0,5965.25,0,
2020-03-24,5965.25,0.0,5965.25,0,
2020-03-25,5965.25,0.0,5965.25,0,
2020-03-26,5965.25,0.0,5965.25,0,
2020-03-27,5965.25,0.0,5965.25,0,
2020-03-29,5965.25,0.0,5965.25,0,
2020-03-30,5965.25,0.0,5965.25,0,
2020-03-31,5965.25,0.0,5965.25,0,
2020-04-01,5965.25,0.0,5965.25,0,
2020-04-02,5965.25,0.0,5965.25,0,
2020-04-03,5965.25,0.0,5965.25,0,
2020-04-05,5965.25,0.0,5965.25,0,
2020-04-06,5965.25,0.0,5965.25,0,
2020-04-07,5965.25,0.0,5965.25,0,
2020-04-08,5965.25,0.0,5965.25,0,
2020-04-09,5965.25,13.25,5978.5,1,Long
2020-04-12,5965.25,-108.25,5857.0,1,Long
2020-04-13,5965.25,139.0,6104.25,1,Long
2020-04-14,5965.25,447.0,6412.25,1,Long
2020-04-15,5965.25,306.25,6271.5,1,Long
2020-04-16,5965.25,706.75,6672.0,1,Long
2020-04-17,5965.25,581.5,6546.75,1,Long
2020-04-19,5965.25,520.5,6485.75,1,Long
2020-04-20,5965.25,503.75,6469.0,1,Long
2020-04-21,5965.25,231.5,6196.75,1,Long
2020-04-22,5965.25,390.0,6355.25,1,Long
2020-04-23,5965.25,325.75,6291.0,1,Long
2020-04-24,5965.25,540.75,6506.0,2,Long
2020-04-26,5965.25,513.25,6478.5,2,Long
2020-04-27,5965.25,653.25,6618.5,2,Long
2020-04-28,5965.25,541.75,6507.0,2,Long
2020-04-29,5965.25,1188.25,7153.5,2,Long
2020-04-30,5965.25,682.75,6648.0,2,Long
2020-05-01,5965.25,410.25,6375.5,2,Long
2020-05-03,5965.25,172.25,6137.5,2,Long
2020-05-04,5965.25,653.75,6619.0,2,Long
2020-05-05,5965.25,918.75,6884.0,2,Long
2020-05-06,5965.25,935.75,6901.0,2,Long
2020-05-07,5965.25,1288.75,7254.0,2,Long
2020-05-08,5965.25,1448.75,7414.0,3,Long
2020-05-10,5965.25,1545.5,7510.75,3,Long
2020-05-11,5965.25,1616.75,7582.0,3,Long
2020-05-12,5965.25,827.75,6793.0,3,Long
2020-05-13,5965.25,819.5,6784.75,3,Long
2020-05-14,5965.25,1108.25,7073.5,3,Long
2020-05-15,5965.25,1144.25,7109.5,3,Long
2020-05-17,5965.25,1279.25,7244.5,3,Long
2020-05-18,5965.25,1817.75,7783.0,3,Long
2020-05-19,5965.25,1739.75,7705.0,3,Long
2020-05-20,5965.25,2242.25,8207.5,3,Long
2020-05-21,5965.25,1993.25,7958.5,3,Long
2020-05-22,5965.25,2053.25,8018.5,4,Long
2020-05-24,5965.25,2186.25,8151.5,4,Long
2020-05-25,5965.25,2403.25,8368.5,4,Long
2020-05-26,5965.25,1940.25,7905.5,4,Long
2020-05-27,5965.25,2131.25,8096.5,4,Long
2020-05-28,5965.25,2035.25,8000.5,4,Long
2020-05-29,5965.25,2718.25,8683.5,4,Long
2020-05-31,5965.25,2391.25,8356.5,4,Long
2020-06-01,5965.25,2625.25,8590.5,4,Long
2020-06-02,5965.25,3062.25,9027.5,4,Long
2020-06-03,5965.25,3149.25,9114.5,4,Long
2020-06-04,5965.25,2837.25,8802.5,4,Long
2020-06-05,5965.25,3592.25,9557.5,5,Long
2020-06-07,5965.25,3908.5,9873.75,5,Long
2020-06-08,5965.25,3954.75,9920.0,5,Long
2020-06-09,5965.25,4501.0,10466.25,5,Long
2020-06-10,5965.25,4772.25,10737.5,5,Long
2020-06-11,5965.25,2948.5,8913.75,5,Long
2020-06-12,5965.25,2766.0,8731.25,5,Long
2020-06-14,5965.25,2246.0,8211.25,5,Long
2020-06-15,5965.25,3881.0,9846.25,5,Long
2020-06-16,5965.25,4474.75,10440.0,5,Long
2020-06-17,5965.25,4302.25,10267.5,5,Long
2020-06-18,5965.25,4658.5,10623.75,5,Long
2020-06-19,5965.25,4177.25,10142.5,6,Long
2020-06-21,5965.25,4060.25,10025.5,6,Long
2020-06-22,5965.25,5528.75,11494.0,6,Long
2020-06-23,5965.25,5714.75,11680.0,6,Long
2020-06-24,5965.25,4471.25,10436.5,6,Long
2020-06-25,5965.25,5267.75,11233.0,6,Long
2020-06-26,5965.25,3694.25,9659.5,6,Long
2020-06-28,5965.25,3592.25,9557.5,6,Long
2020-06-29,5965.25,4586.75,10552.0,6,Long
2020-06-30,5965.25,4838.75,10804.0,6,Long
2020-07-01,5965.25,6247.25,12212.5,6,Long
2020-07-02,5965.25,6730.25,12695.5,6,Long
2020-07-03,5965.25,6581.75,12547.0,7,Long
2020-07-05,5965.25,7056.0,13021.25,7,Long
2020-07-06,5965.25,8785.0,14750.25,7,Long
2020-07-07,5965.25,8156.75,14122.0,7,Long
2020-07-08,5965.25,9082.5,15047.75,7,Long
2020-07-09,5965.25,9584.75,15550.0,7,Long
2020-07-10,5965.25,10204.25,16169.5,7,Long
2020-07-12,5965.25,10442.25,16407.5,7,Long
2020-07-13,5965.25,8823.5,14788.75,7,Long
2020-07-14,5965.25,9327.5,15292.75,7,Long
2020-07-15,5965.25,8835.75,14801.0,7,Long
2020-07-16,5965.25,8272.25,14237.5,7,Long
2020-07-17,5965.25,8669.5,14634.75,8,Long
2020-07-19,5965.25,8861.5,14826.75,8,Long
2020-07-20,5965.25,11279.5,17244.75,8,Long
2020-07-21,5965.25,10667.5,16632.75,8,Long
2020-07-22,5965.25,10265.5,16230.75,8,Long
2020-07-23,5965.25,8343.5,14308.75,8,Long
2020-07-24,5965.25,7385.5,13350.75,8,Long
2020-07-26,5965.25,7193.5,13158.75,8,Long
2020-07-27,5965.25,9269.5,15234.75,8,Long
2020-07-28,5965.25,8193.5,14158.75,8,Long
2020-07-29,5965.25,9117.5,15082.75,8,Long
2020-07-30,5965.25,10925.5,16890.75,8,Long
2020-07-31,5965.25,11005.5,16970.75,9,Long
2020-08-02,5965.25,10971.75,16937.0,9,Long
2020-08-03,5965.25,12094.5,18059.75,9,Long
2020-08-04,5965.25,12429.75,18395.0,9,Long
2020-08-05,5965.25,12569.25,18534.5,9,Long
2020-08-06,5965.25,14038.5,20003.75,9,Long
2020-08-07,5965.25,12945.0,18910.25,9,Long
2020-08-09,5965.25,12731.25,18696.5,9,Long
2020-08-10,5965.25,12432.0,18397.25,9,Long
2020-08-11,5965.25,11070.75,17036.0,9,Long
2020-08-12,5965.25,12951.75,18917.0,9,Long
2020-08-13,5965.25,13613.25,19578.5,9,Long
2020-08-14,5965.25,13077.75,19043.0,10,Long
2020-08-16,5965.25,13235.25,19200.5,10,Long
2020-08-17,5965.25,14670.25,20635.5,10,Long
2020-08-18,5965.25,15785.25,21750.5,10,Long
2020-08-19,5965.25,14525.25,20490.5,10,Long
2020-08-20,5965.25,16615.25,22580.5,10,Long
2020-08-21,5965.25,17250.25,23215.5,10,Long
2020-08-23,5965.25,17455.25,23420.5,10,Long
2020-08-24,5965.25,18087.75,24053.0,10,Long
2020-08-25,5965.25,19087.75,25053.0,10,Long
2020-08-26,5965.25,21297.75,27263.0,10,Long
2020-08-27,5965.25,21312.75,27278.0,10,Long
2020-08-28,5965.25,21657.75,27623.0,11,Long
2020-08-30,5965.25,22141.75,28107.0,11,Long
2020-08-31,5965.25,22994.25,28959.5,11,Long
2020-09-01,5965.25,25582.0,31547.25,11,Long
2020-09-02,5965.25,26255.75,32221.0,11,Long
2020-09-03,32218.25,0.0,32218.25,0,
2020-09-04,32218.25,0.0,32218.25,0,
2020-09-06,32218.25,0.0,32218.25,0,
2020-09-07,32218.25,0.0,32218.25,0,
2020-09-08,32218.25,0.0,32218.25,0,
2020-09-09,32218.25,0.0,32218.25,0,
2020-09-10,32218.25,0.0,32218.25,0,
2020-09-11,32218.25,0.0,32218.25,0,
2020-09-13,32218.25,0.0,32218.25,0,
2020-09-14,32218.25,0.0,32218.25,0,
2020-09-15,32218.25,0.0,32218.25,0,
2020-09-16,32218.25,0.0,32218.25,0,
2020-09-17,32218.25,0.0,32218.25,0,
2020-09-18,32218.25,0.0,32218.25,0,
2020-09-20,32218.25,0.0,32218.25,0,
2020-09-21,32218.25,0.0,32218.25,0,
2020-09-22,32218.25,0.0,32218.25,0,
2020-09-23,32218.25,0.0,32218.25,0,
2020-09-24,32218.25,0.0,32218.25,0,
2020-09-25,32218.25,0.0,32218.25,0,
2020-09-27,32218.25,0.0,32218.25,0,
2020-09-28,32218.25,0.0,32218.25,0,
2020-09-29,32218.25,0.0,32218.25,0,
2020-09-30,32218.25,0.0,32218.25,0,
2020-10-01,32218.25,0.0,32218.25,0,
2020-10-02,32218.25,0.0,32218.25,0,
2020-10-04,32218.25,0.0,32218.25,0,
2020-10-05,32218.25,0.0,32218.25,0,
2020-10-06,32218.25,0.0,32218.25,0,
2020-10-07,32218.25,0.0,32218.25,0,
2020-10-08,32218.25,0.0,32218.25,0,
2020-10-09,32218.25,0.0,32218.25,0,
2020-10-11,32218.25,0.0,32218.25,0,
2020-10-12,32218.25,365.75,32584.0,1,Long
2020-10-13,32218.25,371.25,32589.5,1,Long
2020-10-14,32218.25,217.5,32435.75,1,Long
2020-10-15,32218.25,172.0,32390.25,1,Long
2020-10-16,32218.25,49.75,32268.0,1,Long
2020-10-18,32218.25,129.5,32347.75,1,Long
2020-10-19,32218.25,-28.5,32189.75,1,Long
2020-10-20,32218.25,-39.75,32178.5,1,Long
2020-10-21,32218.25,-118.25,32100.0,1,Long
2020-10-22,32218.25,-78.75,32139.5,1,Long
2020-10-23,32218.25,-74.0,32144.25,2,Long
2020-10-25,32218.25,-158.5,32059.75,2,Long
2020-10-26,32218.25,-434.5,31783.75,2,Long
2020-10-27,32218.25,-337.5,31880.75,2,Long
2020-10-28,31881.75,0.0,31881.75,0,
2020-10-29,31881.75,0.0,31881.75,0,
2020-10-30,31881.75,0.0,31881.75,0,
2020-11-01,31881.75,0.0,31881.75,0,
2020-11-02,31881.75,0.0,31881.75,0,
2020-11-03,31881.75,0.0,31881.75,0,
2020-11-04,31881.75,0.0,31881.75,0,
2020-11-05,31881.75,272.25,32154.0,1,Long
2020-11-06,31881.75,300.25,32182.0,1,Long
2020-11-08,31881.75,438.0,32319.75,1,Long
2020-11-09,31881.75,59.75,31941.5,1,Long
2020-11-10,31881.75,-197.0,31684.75,1,Long
2020-11-11,31881.75,102.0,31983.75,1,Long
2020-11-12,31881.75,57.0,31938.75,1,Long
2020-11-13,31881.75,151.75,32033.5,2,Long
2020-11-15,31881.75,350.25,32232.0,2,Long
2020-11-16,31881.75,356.75,32238.5,2,Long
2020-11-17,31881.75,217.75,32099.5,2,Long
2020-11-18,31881.75,20.25,31902.0,2,Long
2020-11-19,31881.75,134.25,32016.0,2,Long
2020-11-20,31881.75,81.75,31963.5,2,Long
2020-11-22,31881.75,122.25,32004.0,2,Long
2020-11-23,31881.75,163.25,32045.0,2,Long
2020-11-24,31881.75,511.75,32393.5,2,Long
2020-11-25,31881.75,618.75,32500.5,2,Long
2020-11-26,31881.75,568.75,32450.5,2,Long
2020-11-27,31881.75,806.75,32688.5,3,Long
2020-11-29,31881.75,936.5,32818.25,3,Long
2020-11-30,31881.75,1032.5,32914.25,3,Long
2020-12-01,31881.75,1338.5,33220.25,3,Long
2020-12-02,31881.75,1384.25,33266.0,3,Long
2020-12-03,31881.75,1441.25,33323.0,3,Long
2020-12-04,31881.75,1516.25,33398.0,3,Long
2020-12-06,31881.75,1619.75,33501.5,3,Long
2020-12-07,31881.75,1711.25,33593.0,3,Long
2020-12-08,31881.75,1927.25,33809.0,3,Long
2020-12-09,31881.75,1075.25,32957.0,3,Long
2020-12-10,31881.75,1195.25,33077.0,3,Long
2020-12-11,31881.75,1085.0,32966.75,4,Long
2020-12-13,31881.75,1285.0,33166.75,4,Long
2020-12-14,31881.75,1537.0,33418.75,4,Long
2020-12-15,31881.75,1999.0,33880.75,4,Long
2020-12-16,31881.75,2350.0,34231.75,4,Long
2020-12-17,31881.75,2619.0,34500.75,4,Long
2020-12-18,31881.75,2612.0,34493.75,4,Long
2020-12-20,31881.75,2615.0,34496.75,4,Long
2020-12-21,31881.75,2424.0,34305.75,4,Long
2020-12-22,31881.75,2500.0,34381.75,4,Long
2020-12-23,31881.75,2238.0,34119.75,4,Long
2020-12-24,31881.75,2435.0,34316.75,4,Long
2020-12-27,31881.75,2556.0,34437.75,4,Long
2020-12-28,31881.75,3026.0,34907.75,4,Long
2020-12-29,31881.75,2997.0,34878.75,4,Long
2020-12-30,31881.75,3013.0,34894.75,4,Long
2020-12-31,31881.75,3156.0,35037.75,4,Long
2021-01-03,31881.75,3074.0,34955.75,4,Long
2021-01-04,31881.75,2318.0,34199.75,4,Long
2021-01-05,31881.75,2798.0,34679.75,4,Long
2021-01-06,31881.75,2310.0,34191.75,4,Long
2021-01-07,31881.75,3372.0,35253.75,4,Long
2021-01-08,31881.75,4117.0,35998.75,5,Long
2021-01-10,31881.75,3907.0,35788.75,5,Long
2021-01-11,31881.75,3104.5,34986.25,5,Long
2021-01-12,31881.75,2978.25,34860.0,5,Long
2021-01-13,31881.75,3344.5,35226.25,5,Long
2021-01-14,31881.75,3079.5,34961.25,5,Long
2021-01-15,31881.75,2313.25,34195.0,5,Long
2021-01-17,31881.75,2224.5,34106.25,5,Long
2021-01-18,31881.75,2652.0,34533.75,5,Long
2021-01-19,31881.75,3743.25,35625.0,5,Long
2021-01-20,31881.75,5067.0,36948.75,5,Long
2021-01-21,31881.75,5413.25,37295.0,5,Long
2021-01-22,31881.75,5253.25,37135.0,6,Long
2021-01-24,31881.75,5530.75,37412.5,6,Long
2021-01-25,31881.75,5914.75,37796.5,6,Long
2021-01-26,31881.75,6498.25,38380.0,6,Long
2021-01-27,31881.75,3010.75,34892.5,6,Long
2021-01-28,31881.75,3963.25,35845.0,6,Long
2021-01-29,35846.5,0.0,35846.5,0,
2021-01-31,35846.5,0.0,35846.5,0,
2021-02-01,35846.5,0.0,35846.5,0,
2021-02-02,35846.5,0.0,35846.5,0,
2021-02-03,35846.5,0.0,35846.5,0,
2021-02-04,35846.5,0.0,35846.5,0,
2021-02-05,35846.5,50.75,35897.25,1,Long
2021-02-07,35846.5,85.75,35932.25,1,Long
2021-02-08,35846.5,128.5,35975.0,1,Long
2021-02-09,35846.5,134.5,35981.0,1,Long
2021-02-10,35846.5,100.75,35947.25,1,Long
2021-02-11,35846.5,178.0,36024.5,1,Long
2021-02-12,35846.5,268.75,36115.25,1,Long
2021-02-14,35846.5,272.75,36119.25,1,Long
2021-02-15,35846.5,305.0,36151.5,1,Long
2021-02-16,35846.5,178.5,36025.0,1,Long
2021-02-17,35846.5,150.0,35996.5,1,Long
2021-02-18,35846.5,62.5,35909.0,1,Long
2021-02-19,35846.5,19.0,35865.5,2,Long
2021-02-21,35846.5,59.0,35905.5,2,Long
2021-02-22,35905.5,0.0,35905.5,0,
2021-02-23,35905.5,0.0,35905.5,0,
2021-02-24,35905.5,0.0,35905.5,0,
2021-02-25,35905.5,0.0,35905.5,0,
2021-02-26,35905.5,0.0,35905.5,0,
2021-02-28,35905.5,0.0,35905.5,0,
2021-03-01,35905.5,0.0,35905.5,0,
2021-03-02,35905.5,0.0,35905.5,0,
2021-03-03,35905.5,0.0,35905.5,0,
2021-03-04,35905.5,0.0,35905.5,0,
2021-03-05,35905.5,0.0,35905.5,0,
2021-03-07,35905.5,0.0,35905.5,0,
2021-03-08,35905.5,0.0,35905.5,0,
2021-03-09,35905.5,0.0,35905.5,0,
2021-03-10,35905.5,0.0,35905.5,0,
2021-03-11,35905.5,0.0,35905.5,0,
2021-03-12,35905.5,0.0,35905.5,0,
2021-03-14,35905.5,0.0,35905.5,0,
2021-03-15,35905.5,0.0,35905.5,0,
2021-03-16,35905.5,0.0,35905.5,0,
2021-03-17,35905.5,0.0,35905.5,0,
2021-03-18,35905.5,0.0,35905.5,0,
2021-03-19,35905.5,0.0,35905.5,0,
2021-03-21,35905.5,0.0,35905.5,0,
2021-03-22,35905.5,0.0,35905.5,0,
2021-03-23,35905.5,0.0,35905.5,0,
2021-03-24,35905.5,0.0,35905.5,0,
2021-03-25,35905.5,0.0,35905.5,0,
2021-03-26,35905.5,0.0,35905.5,0,
2021-03-28,35905.5,0.0,35905.5,0,
2021-03-29,35905.5,0.0,35905.5,0,
2021-03-30,35905.5,0.0,35905.5,0,
2021-03-31,35905.5,0.0,35905.5,0,
2021-04-01,35905.5,0.0,35905.5,0,
2021-04-02,35905.5,0.0,35905.5,0,
2021-04-04,35905.5,0.0,35905.5,0,
2021-04-05,35905.5,0.0,35905.5,0,
2021-04-06,35905.5,-21.5,35884.0,1,Long
2021-04-07,35905.5,22.25,35927.75,1,Long
2021-04-08,35905.5,186.25,36091.75,1,Long
2021-04-09,35905.5,193.0,36098.5,1,Long
2021-04-11,35905.5,163.0,36068.5,1,Long
2021-04-12,35905.5,201.5,36107.0,1,Long
2021-04-13,35905.5,351.0,36256.5,1,Long
2021-04-14,35905.5,195.75,36101.25,1,Long
2021-04-15,35905.5,394.5,36300.0,1,Long
2021-04-16,35905.5,402.5,36308.0,2,Long
2021-04-18,35905.5,340.0,36245.5,2,Long
2021-04-19,35905.5,192.5,36098.0,2,Long
2021-04-20,35905.5,-150.0,35755.5,2,Long
2021-04-21,35905.5,124.5,36030.0,2,Long
2021-04-22,35905.5,-123.0,35782.5,2,Long
2021-04-23,35905.5,169.0,36074.5,2,Long
2021-04-25,35905.5,178.5,36084.0,2,Long
2021-04-26,35905.5,413.0,36318.5,2,Long
2021-04-27,35905.5,284.0,36189.5,2,Long
2021-04-28,35905.5,302.0,36207.5,2,Long
2021-04-29,35905.5,189.5,36095.0,2,Long
2021-04-30,35905.5,98.0,36003.5,3,Long
2021-05-02,35905.5,140.75,36046.25,3,Long
2021-05-03,35905.5,-191.5,35714.0,3,Long
2021-05-04,35905.5,-925.0,34980.5,3,Long
2021-05-05,35905.5,-997.75,34907.75,3,Long
2021-05-06,35905.5,-663.25,35242.25,3,Long
2021-05-07,35905.5,-346.75,35558.75,3,Long
2021-05-09,35905.5,-283.0,35622.5,3,Long
2021-05-10,35623.25,0.0,35623.25,0,
2021-05-11,35623.25,0.0,35623.25,0,
2021-05-12,35623.25,0.0,35623.25,0,
2021-05-13,35623.25,0.0,35623.25,0,
2021-05-14,35623.25,0.0,35623.25,0,
2021-05-16,35623.25,0.0,35623.25,0,
2021-05-17,35623.25,0.0,35623.25,0,
2021-05-18,35623.25,0.0,35623.25,0,
2021-05-19,35623.25,0.0,35623.25,0,
2021-05-20,35623.25,0.0,35623.25,0,
2021-05-21,35623.25,0.0,35623.25,0,
2021-05-23,35623.25,0.0,35623.25,0,
2021-05-24,35623.25,0.0,35623.25,0,
2021-05-25,35623.25,0.0,35623.25,0,
2021-05-26,35623.25,0.0,35623.25,0,
2021-05-27,35623.25,0.0,35623.25,0,
2021-05-28,35623.25,0.0,35623.25,0,
2021-05-30,35623.25,0.0,35623.25,0,
2021-05-31,35623.25,0.0,35623.25,0,
2021-06-01,35623.25,0.0,35623.25,0,
2021-06-02,35623.25,0.0,35623.25,0,
2021-06-03,35623.25,0.0,35623.25,0,
2021-06-04,35623.25,0.0,35623.25,0,
2021-06-06,35623.25,-4.5,35618.75,1,Long
2021-06-07,35623.25,50.75,35674.0,1,Long
2021-06-08,35623.25,45.0,35668.25,1,Long
2021-06-09,35623.25,43.0,35666.25,1,Long
2021-06-10,35623.25,195.75,35819.0,1,Long
2021-06-11,35623.25,212.75,35836.0,1,Long
2021-06-13,35623.25,237.5,35860.75,1,Long
2021-06-14,35623.25,334.25,35957.5,1,Long
2021-06-15,35623.25,259.25,35882.5,1,Long
2021-06-16,35623.25,114.5,35737.75,1,Long
2021-06-17,35623.25,403.5,36026.75,1,Long
2021-06-18,35623.25,201.5,35824.75,2,Long
2021-06-20,35623.25,242.0,35865.25,2,Long
2021-06-21,35623.25,435.5,36058.75,2,Long
2021-06-22,35623.25,710.5,36333.75,2,Long
2021-06-23,35623.25,738.0,36361.25,2,Long
2021-06-24,35623.25,858.5,36481.75,2,Long
2021-06-25,35623.25,828.0,36451.25,2,Long
2021-06-27,35623.25,875.0,36498.25,2,Long
2021-06-28,35623.25,1149.0,36772.25,2,Long
2021-06-29,35623.25,1341.0,36964.25,2,Long
2021-06-30,35623.25,1286.5,36909.75,2,Long
2021-07-01,35623.25,1231.5,36854.75,2,Long
2021-07-02,35623.25,1551.5,37174.75,3,Long
2021-07-04,35623.25,1593.5,37216.75,3,Long
2021-07-05,35623.25,1592.75,37216.0,3,Long
2021-07-06,35623.25,1744.25,37367.5,3,Long
2021-07-07,35623.25,1880.75,37504.0,3,Long
2021-07-08,35623.25,1526.0,37149.25,3,Long
2021-07-09,35623.25,1893.5,37516.75,3,Long
2021-07-11,35623.25,1938.5,37561.75,3,Long
2021-07-12,35623.25,2089.25,37712.5,3,Long
2021-07-13,35623.25,1985.0,37608.25,3,Long
2021-07-14,35623.25,2162.75,37786.0,3,Long
2021-07-15,35623.25,1721.0,37344.25,3,Long
2021-07-16,35623.25,1471.0,37094.25,4,Long
2021-07-18,35623.25,1361.0,36984.25,4,Long
2021-07-19,35623.25,1148.0,36771.25,4,Long
2021-07-20,35623.25,1762.0,37385.25,4,Long
2021-07-21,35623.25,2132.0,37755.25,4,Long
2021-07-22,35623.25,2673.0,38296.25,4,Long
2021-07-23,35623.25,3160.0,38783.25,4,Long
2021-07-25,35623.25,3274.0,38897.25,4,Long
2021-07-26,35623.25,3236.0,38859.25,4,Long
2021-07-27,35623.25,2471.0,38094.25,4,Long
2021-07-28,35623.25,2743.0,38366.25,4,Long
2021-07-29,35623.25,2270.0,37893.25,4,Long
2021-07-30,35623.25,2680.0,38303.25,5,Long
2021-08-01,35623.25,2852.5,38475.75,5,Long
2021-08-02,35623.25,2650.0,38273.25,5,Long
2021-08-03,35623.25,2998.75,38622.0,5,Long
2021-08-04,35623.25,3262.5,38885.75,5,Long
2021-08-05,35623.25,3646.25,39269.5,5,Long
2021-08-06,35623.25,3307.5,38930.75,5,Long
2021-08-08,35623.25,2953.75,38577.0,5,Long
2021-08-09,35623.25,3437.5,39060.75,5,Long
2021-08-10,35623.25,3021.25,38644.5,5,Long
2021-08-11,35623.25,2822.5,38445.75,5,Long
2021-08-12,35623.25,3182.5,38805.75,5,Long
2021-08-13,35623.25,3470.5,39093.75,6,Long
2021-08-15,35623.25,3412.0,39035.25,6,Long
2021-08-16,35623.25,3511.0,39134.25,6,Long
2021-08-17,35623.25,2470.0,38093.25,6,Long
2021-08-18,35623.25,1801.0,37424.25,6,Long
2021-08-19,35623.25,2228.5,37851.75,6,Long
2021-08-20,35623.25,3298.0,38921.25,6,Long
2021-08-22,35623.25,3371.5,38994.75,6,Long
2021-08-23,35623.25,4705.0,40328.25,6,Long
2021-08-24,35623.25,4874.5,40497.75,6,Long
2021-08-25,35623.25,4898.5,40521.75,6,Long
2021-08-26,35623.25,4397.5,40020.75,6,Long
2021-08-27,35623.25,5291.25,40914.5,7,Long
2021-08-29,35623.25,5462.75,41086.0,7,Long
2021-08-30,35623.25,6483.0,42106.25,7,Long
2021-08-31,35623.25,6474.25,42097.5,7,Long
2021-09-01,35623.25,6624.75,42248.0,7,Long
2021-09-02,35623.25,6474.25,42097.5,7,Long
2021-09-03,35623.25,6869.75,42493.0,7,Long
2021-09-05,35623.25,6847.0,42470.25,7,Long
2021-09-06,35623.25,7120.0,42743.25,7,Long
2021-09-07,35623.25,6929.25,42552.5,7,Long
2021-09-08,35623.25,6495.25,42118.5,7,Long
2021-09-09,35623.25,6243.25,41866.5,7,Long
2021-09-10,35623.25,5352.5,40975.75,8,Long
2021-09-12,35623.25,5726.5,41349.75,8,Long
2021-09-13,35623.25,5412.5,41035.75,8,Long
2021-09-14,35623.25,5106.5,40729.75,8,Long
2021-09-15,35623.25,5864.5,41487.75,8,Long
2021-09-16,35623.25,5702.5,41325.75,8,Long
2021-09-17,41325.75,0.0,41325.75,0,
2021-09-19,41325.75,0.0,41325.75,0,
2021-09-20,41325.75,0.0,41325.75,0,
2021-09-21,41325.75,0.0,41325.75,0,
2021-09-22,41325.75,0.0,41325.75,0,
2021-09-23,41325.75,0.0,41325.75,0,
2021-09-24,41325.75,0.0,41325.75,0,
2021-09-26,41325.75,0.0,41325.75,0,
2021-09-27,41325.75,0.0,41325.75,0,
2021-09-28,41325.75,0.0,41325.75,0,
2021-09-29,41325.75,0.0,41325.75,0,
2021-09-30,41325.75,0.0,41325.75,0,
2021-10-01,41325.75,0.0,41325.75,0,
2021-10-03,41325.75,0.0,41325.75,0,
2021-10-04,41325.75,0.0,41325.75,0,
2021-10-05,41325.75,0.0,41325.75,0,
2021-10-06,41325.75,0.0,41325.75,0,
2021-10-07,41325.75,0.0,41325.75,0,
2021-10-08,41325.75,0.0,41325.75,0,
2021-10-10,41325.75,0.0,41325.75,0,
2021-10-11,41325.75,0.0,41325.75,0,
2021-10-12,41325.75,0.0,41325.75,0,
2021-10-13,41325.75,0.0,41325.75,0,
2021-10-14,41325.75,0.0,41325.75,0,
2021-10-15,41325.75,0.0,41325.75,0,
2021-10-17,41325.75,0.0,41325.75,0,
2021-10-18,41325.75,0.0,41325.75,0,
2021-10-19,41325.75,117.0,41442.75,1,Long
2021-10-20,41325.75,43.0,41368.75,1,Long
2021-10-21,41325.75,99.5,41425.25,1,Long
2021-10-22,41325.75,31.75,41357.5,1,Long
2021-10-24,41325.75,14.0,41339.75,1,Long
2021-10-25,41325.75,246.75,41572.5,1,Long
2021-10-26,41325.75,267.75,41593.5,1,Long
2021-10-27,41325.75,334.0,41659.75,1,Long
2021-10-28,41325.75,380.0,41705.75,1,Long
2021-10-29,41325.75,644.5,41970.25,2,Long
2021-10-31,41325.75,667.5,41993.25,2,Long
2021-11-01,41325.75,659.0,41984.75,2,Long
2021-11-02,41325.75,792.0,42117.75,2,Long
2021-11-03,41325.75,1278.5,42604.25,2,Long
2021-11-04,41325.75,1587.0,42912.75,2,Long
2021-11-05,41325.75,1593.0,42918.75,2,Long
2021-11-07,41325.75,1531.0,42856.75,2,Long
2021-11-08,41325.75,1528.0,42853.75,2,Long
2021-11-09,41325.75,1278.0,42603.75,2,Long
2021-11-10,41325.75,887.5,42213.25,2,Long
2021-11-11,41325.75,1035.5,42361.25,2,Long
2021-11-12,41325.75,1330.5,42656.25,3,Long
2021-11-14,41325.75,1404.0,42729.75,3,Long
2021-11-15,41325.75,1294.5,42620.25,3,Long
2021-11-16,41325.75,1641.0,42966.75,3,Long
2021-11-17,41325.75,1713.75,43039.5,3,Long
2021-11-18,41325.75,2213.25,43539.0,3,Long
2021-11-19,41325.75,2490.0,43815.75,3,Long
2021-11-21,41325.75,2491.5,43817.25,3,Long
2021-11-22,41325.75,1915.5,43241.25,3,Long
2021-11-23,41325.75,1584.75,42910.5,3,Long
2021-11-24,41325.75,1798.5,43124.25,3,Long
2021-11-25,41325.75,1838.25,43164.0,3,Long
2021-11-26,43161.75,0.0,43161.75,0,
2021-11-28,43161.75,0.0,43161.75,0,
2021-11-29,43161.75,0.0,43161.75,0,
2021-11-30,43161.75,0.0,43161.75,0,
2021-12-01,43161.75,0.0,43161.75,0,
2021-12-02,43161.75,0.0,43161.75,0,
2021-12-03,43161.75,0.0,43161.75,0,
2021-12-05,43161.75,0.0,43161.75,0,
2021-12-06,43161.75,0.0,43161.75,0,
2021-12-07,43161.75,0.0,43161.75,0,
2021-12-08,43161.75,0.0,43161.75,0,
2021-12-09,43161.75,0.0,43161.75,0,
2021-12-10,43161.75,0.0,43161.75,0,
2021-12-12,43161.75,0.0,43161.75,0,
2021-12-13,43161.75,0.0,43161.75,0,
2021-12-14,43161.75,0.0,43161.75,0,
2021-12-15,43161.75,0.0,43161.75,0,
2021-12-16,43161.75,0.0,43161.75,0,
2021-12-17,43161.75,0.0,43161.75,0,
2021-12-19,43161.75,0.0,43161.75,0,
2021-12-20,43161.75,0.0,43161.75,0,
2021-12-21,43161.75,0.0,43161.75,0,
2021-12-22,43161.75,0.0,43161.75,0,
2021-12-23,43161.75,0.0,43161.75,0,
2021-12-26,43161.75,0.0,43161.75,0,
2021-12-27,43161.75,0.0,43161.75,0,
2021-12-28,43161.75,-15.75,43146.0,1,Long
2021-12-29,43161.75,-91.75,43070.0,1,Long
2021-12-30,43161.75,-116.75,43045.0,1,Long
2021-12-31,43161.75,-221.5,42940.25,1,Long
2022-01-02,43161.75,-170.75,42991.0,1,Long
2022-01-03,43161.75,-71.0,43090.75,1,Long
2022-01-04,43161.75,-322.0,42839.75,1,Long
2022-01-05,43161.75,-770.5,42391.25,1,Long
2022-01-06,43161.75,-737.5,42424.25,1,Long
2022-01-07,42424.0,0.0,42424.0,0,
2022-01-09,42424.0,0.0,42424.0,0,
2022-01-10,42424.0,0.0,42424.0,0,
2022-01-11,42424.0,0.0,42424.0,0,
2022-01-12,42424.0,0.0,42424.0,0,
2022-01-13,42424.0,0.0,42424.0,0,
2022-01-14,42424.0,0.0,42424.0,0,
2022-01-16,42424.0,0.0,42424.0,0,
2022-01-17,42424.0,0.0,42424.0,0,
2022-01-18,42424.0,0.0,42424.0,0,
2022-01-19,42424.0,0.0,42424.0,0,
2022-01-20,42424.0,0.0,42424.0,0,
2022-01-21,42424.0,0.0,42424.0,0,
2022-01-23,42424.0,0.0,42424.0,0,
2022-01-24,42424.0,0.0,42424.0,0,
2022-01-25,42424.0,0.0,42424.0,0,
2022-01-26,42424.0,0.0,42424.0,0,
2022-01-27,42424.0,0.0,42424.0,0,
2022-01-28,42424.0,0.0,42424.0,0,
2022-01-30,42424.0,0.0,42424.0,0,
2022-01-31,42424.0,0.0,42424.0,0,
2022-02-01,42424.0,0.0,42424.0,0,
2022-02-02,42424.0,0.0,42424.0,0,
2022-02-03,42424.0,0.0,42424.0,0,
2022-02-04,42424.0,0.0,42424.0,0,
2022-02-06,42424.0,0.0,42424.0,0,
2022-02-07,42424.0,0.0,42424.0,0,
2022-02-08,42424.0,0.0,42424.0,0,
2022-02-09,42424.0,0.0,42424.0,0,
2022-02-10,42424.0,0.0,42424.0,0,
2022-02-11,42424.0,0.0,42424.0,0,
2022-02-13,42424.0,0.0,42424.0,0,
2022-02-14,42424.0,0.0,42424.0,0,
2022-02-15,42424.0,0.0,42424.0,0,
2022-02-16,42424.0,0.0,42424.0,0,
2022-02-17,42424.0,0.0,42424.0,0,
2022-02-18,42424.0,0.0,42424.0,0,
2022-02-20,42424.0,0.0,42424.0,0,
2022-02-21,42424.0,0.0,42424.0,0,
2022-02-22,42424.0,0.0,42424.0,0,
2022-02-23,42424.0,0.0,42424.0,0,
2022-02-24,42424.0,0.0,42424.0,0,
2022-02-25,42424.0,0.0,42424.0,0,
2022-02-27,42424.0,0.0,42424.0,0,
2022-02-28,42424.0,0.0,42424.0,0,
2022-03-01,42424.0,0.0,42424.0,0,
2022-03-02,42424.0,0.0,42424.0,0,
2022-03-03,42424.0,0.0,42424.0,0,
2022-03-04,42424.0,0.0,42424.0,0,
2022-03-06,42424.0,0.0,42424.0,0,
2022-03-07,42424.0,0.0,42424.0,0,
2022-03-08,42424.0,0.0,42424.0,0,
2022-03-09,42424.0,0.0,42424.0,0,
2022-03-10,42424.0,0.0,42424.0,0,
2022-03-11,42424.0,0.0,42424.0,0,
2022-03-13,42424.0,0.0,42424.0,0,
2022-03-14,42424.0,0.0,42424.0,0,
2022-03-15,42424.0,0.0,42424.0,0,
2022-03-16,42424.0,0.0,42424.0,0,
2022-03-17,42424.0,0.0,42424.0,0,
2022-03-18,42424.0,0.0,42424.0,0,
2022-03-20,42424.0,0.0,42424.0,0,
2022-03-21,42424.0,0.0,42424.0,0,
2022-03-22,42424.0,0.0,42424.0,0,
2022-03-23,42424.0,-192.0,42232.0,1,Long
2022-03-24,42424.0,84.0,42508.0,1,Long
2022-03-25,42424.0,86.5,42510.5,1,Long
2022-03-27,42424.0,55.0,42479.0,1,Long
2022-03-28,42424.0,307.0,42731.0,1,Long
2022-03-29,42424.0,555.5,42979.5,1,Long
2022-03-30,42424.0,437.75,42861.75,1,Long
2022-03-31,42424.0,246.5,42670.5,1,Long
2022-04-01,42424.0,262.5,42686.5,2,Long
2022-04-03,42424.0,193.5,42617.5,2,Long
2022-04-04,42424.0,860.0,43284.0,2,Long
2022-04-05,42424.0,225.5,42649.5,2,Long
2022-04-06,42424.0,-547.0,41877.0,2,Long
2022-04-07,42424.0,-312.5,42111.5,2,Long
2022-04-08,42424.0,-787.5,41636.5,2,Long
2022-04-10,42424.0,-815.0,41609.0,2,Long
2022-04-11,41608.5,0.0,41608.5,0,
2022-04-12,41608.5,0.0,41608.5,0,
2022-04-13,41608.5,0.0,41608.5,0,
2022-04-14,41608.5,0.0,41608.5,0,
2022-04-17,41608.5,0.0,41608.5,0,
2022-04-18,41608.5,0.0,41608.5,0,
2022-04-19,41608.5,0.0,41608.5,0,
2022-04-20,41608.5,0.0,41608.5,0,
2022-04-21,41608.5,0.0,41608.5,0,
2022-04-22,41608.5,0.0,41608.5,0,
2022-04-24,41608.5,0.0,41608.5,0,
2022-04-25,41608.5,0.0,41608.5,0,
2022-04-26,41608.5,0.0,41608.5,0,
2022-04-27,41608.5,0.0,41608.5,0,
2022-04-28,41608.5,0.0,41608.5,0,
2022-04-29,41608.5,0.0,41608.5,0,
2022-05-01,41608.5,0.0,41608.5,0,
2022-05-02,41608.5,0.0,41608.5,0,
2022-05-03,41608.5,0.0,41608.5,0,
2022-05-04,41608.5,0.0,41608.5,0,
2022-05-05,41608.5,0.0,41608.5,0,
2022-05-06,41608.5,0.0,41608.5,0,
2022-05-08,41608.5,0.0,41608.5,0,
2022-05-09,41608.5,0.0,41608.5,0,
2022-05-10,41608.5,0.0,41608.5,0,
2022-05-11,41608.5,0.0,41608.5,0,
2022-05-12,41608.5,0.0,41608.5,0,
2022-05-13,41608.5,0.0,41608.5,0,
2022-05-15,41608.5,0.0,41608.5,0,
2022-05-16,41608.5,0.0,41608.5,0,
2022-05-17,41608.5,0.0,41608.5,0,
2022-05-18,41608.5,0.0,41608.5,0,
2022-05-19,41608.5,0.0,41608.5,0,
2022-05-20,41608.5,0.0,41608.5,0,
2022-05-22,41608.5,0.0,41608.5,0,
2022-05-23,41608.5,0.0,41608.5,0,
2022-05-24,41608.5,0.0,41608.5,0,
2022-05-25,41608.5,0.0,41608.5,0,
2022-05-26,41608.5,0.0,41608.5,0,
2022-05-27,41608.5,0.0,41608.5,0,
2022-05-29,41608.5,0.0,41608.5,0,
2022-05-30,41608.5,0.0,41608.5,0,
2022-05-31,41608.5,0.0,41608.5,0,
2022-06-01,41608.5,0.0,41608.5,0,
2022-06-02,41608.5,0.0,41608.5,0,
2022-06-03,41608.5,-371.5,41237.0,1,Long
2022-06-05,41608.5,-371.5,41237.0,1,Long
2022-06-06,41608.5,-318.25,41290.25,1,Long
2022-06-07,41608.5,-250.75,41357.75,1,Long
2022-06-08,41608.5,-297.0,41311.5,1,Long
2022-06-09,41608.5,-633.0,40975.5,1,Long
2022-06-10,41608.5,-1059.75,40548.75,1,Long
2022-06-12,40515.0,0.0,40515.0,0,
2022-06-13,40515.0,0.0,40515.0,0,
2022-06-14,40515.0,0.0,40515.0,0,
2022-06-15,40515.0,0.0,40515.0,0,
2022-06-16,40515.0,0.0,40515.0,0,
2022-06-17,40515.0,0.0,40515.0,0,
2022-06-19,40515.0,0.0,40515.0,0,
2022-06-20,40515.0,0.0,40515.0,0,
2022-06-21,40515.0,0.0,40515.0,0,
2022-06-22,40515.0,0.0,40515.0,0,
2022-06-23,40515.0,0.0,40515.0,0,
2022-06-24,40515.0,0.0,40515.0,0,
2022-06-26,40515.0,0.0,40515.0,0,
2022-06-27,40515.0,0.0,40515.0,0,
2022-06-28,40515.0,0.0,40515.0,0,
2022-06-29,40515.0,0.0,40515.0,0,
2022-06-30,40515.0,0.0,40515.0,0,
2022-07-01,40515.0,0.0,40515.0,0,
2022-07-03,40515.0,0.0,40515.0,0,
2022-07-04,40515.0,0.0,40515.0,0,
2022-07-05,40515.0,0.0,40515.0,0,
2022-07-06,40515.0,0.0,40515.0,0,
2022-07-07,40515.0,0.0,40515.0,0,
2022-07-08,40515.0,0.0,40515.0,0,
2022-07-10,40515.0,0.0,40515.0,0,
2022-07-11,40515.0,0.0,40515.0,0,
2022-07-12,40515.0,0.0,40515.0,0,
2022-07-13,40515.0,0.0,40515.0,0,
2022-07-14,40515.0,0.0,40515.0,0,
2022-07-15,40515.0,0.0,40515.0,0,
2022-07-17,40515.0,0.0,40515.0,0,
2022-07-18,40515.0,0.0,40515.0,0,
2022-07-19,40515.0,0.0,40515.0,0,
2022-07-20,40515.0,0.0,40515.0,0,
2022-07-21,40515.0,112.25,40627.25,1,Long
2022-07-22,40515.0,-8.5,40506.5,1,Long
2022-07-24,40515.0,-32.5,40482.5,1,Long
2022-07-25,40515.0,-137.25,40377.75,1,Long
2022-07-26,40515.0,-155.5,40359.5,1,Long
2022-07-27,40515.0,141.5,40656.5,1,Long
2022-07-28,40515.0,457.25,40972.25,1,Long
2022-07-29,40515.0,514.25,41029.25,2,Long
2022-07-31,40515.0,403.75,40918.75,2,Long
2022-08-01,40515.0,466.75,40981.75,2,Long
2022-08-02,40515.0,371.25,40886.25,2,Long
2022-08-03,40515.0,1033.75,41548.75,2,Long
2022-08-04,40515.0,1231.75,41746.75,2,Long
2022-08-05,40515.0,994.75,41509.75,2,Long
2022-08-07,40515.0,920.75,41435.75,2,Long
2022-08-08,40515.0,1006.75,41521.75,2,Long
2022-08-09,40515.0,670.75,41185.75,2,Long
2022-08-10,40515.0,1363.25,41878.25,2,Long
2022-08-11,40515.0,1236.75,41751.75,2,Long
2022-08-12,40515.0,1741.75,42256.75,3,Long
2022-08-14,40515.0,1621.0,42136.0,3,Long
2022-08-15,40515.0,2044.0,42559.0,3,Long
2022-08-16,40515.0,1956.25,42471.25,3,Long
2022-08-17,40515.0,1366.75,41881.75,3,Long
2022-08-18,40515.0,1582.0,42097.0,3,Long
2022-08-19,40515.0,749.5,41264.5,3,Long
2022-08-21,40515.0,562.75,41077.75,3,Long
2022-08-22,40515.0,-132.5,40382.5,3,Long
2022-08-23,40515.0,-313.25,40201.75,3,Long
2022-08-24,40515.0,-196.25,40318.75,3,Long
2022-08-25,40515.0,433.75,40948.75,3,Long
2022-08-26,40950.25,0.0,40950.25,0,
2022-08-28,40950.25,0.0,40950.25,0,
2022-08-29,40950.25,0.0,40950.25,0,
2022-08-30,40950.25,0.0,40950.25,0,
2022-08-31,40950.25,0.0,40950.25,0,
2022-09-01,40950.25,0.0,40950.25,0,
2022-09-02,40950.25,0.0,40950.25,0,
2022-09-04,40950.25,0.0,40950.25,0,
2022-09-05,40950.25,0.0,40950.25,0,
2022-09-06,40950.25,0.0,40950.25,0,
2022-09-07,40950.25,0.0,40950.25,0,
2022-09-08,40950.25,0.0,40950.25,0,
2022-09-09,40950.25,0.0,40950.25,0,
2022-09-11,40950.25,0.0,40950.25,0,
2022-09-12,40950.25,0.0,40950.25,0,
2022-09-13,40950.25,0.0,40950.25,0,
2022-09-14,40950.25,0.0,40950.25,0,
2022-09-15,40950.25,0.0,40950.25,0,
2022-09-16,40950.25,0.0,40950.25,0,
2022-09-18,40950.25,0.0,40950.25,0,
2022-09-19,40950.25,0.0,40950.25,0,
2022-09-20,40950.25,0.0,40950.25,0,
2022-09-21,40950.25,0.0,40950.25,0,
2022-09-22,40950.25,0.0,40950.25,0,
2022-09-23,40950.25,0.0,40950.25,0,
2022-09-25,40950.25,0.0,40950.25,0,
2022-09-26,40950.25,0.0,40950.25,0,
2022-09-27,40950.25,0.0,40950.25,0,
2022-09-28,40950.25,0.0,40950.25,0,
2022-09-29,40950.25,0.0,40950.25,0,
2022-09-30,40950.25,0.0,40950.25,0,
2022-10-02,40950.25,0.0,40950.25,0,
2022-10-03,40950.25,0.0,40950.25,0,
2022-10-04,40950.25,0.0,40950.25,0,
2022-10-05,40950.25,0.0,40950.25,0,
2022-10-06,40950.25,0.0,40950.25,0,
2022-10-07,40950.25,0.0,40950.25,0,
2022-10-09,40950.25,0.0,40950.25,0,
2022-10-10,40950.25,0.0,40950.25,0,
2022-10-11,40950.25,0.0,40950.25,0,
2022-10-12,40950.25,0.0,40950.25,0,
2022-10-13,40950.25,0.0,40950.25,0,
2022-10-14,40950.25,0.0,40950.25,0,
2022-10-16,40950.25,0.0,40950.25,0,
2022-10-17,40950.25,0.0,40950.25,0,
2022-10-18,40950.25,0.0,40950.25,0,
2022-10-19,40950.25,0.0,40950.25,0,
2022-10-20,40950.25,0.0,40950.25,0,
2022-10-21,40950.25,0.0,40950.25,0,
2022-10-23,40950.25,0.0,40950.25,0,
2022-10-24,40950.25,0.0,40950.25,0,
2022-10-25,40950.25,0.0,40950.25,0,
2022-10-26,40950.25,0.0,40950.25,0,
2022-10-27,40950.25,0.0,40950.25,0,
2022-10-28,40950.25,0.0,40950.25,0,
2022-10-30,40950.25,0.0,40950.25,0,
2022-10-31,40950.25,0.0,40950.25,0,
2022-11-01,40950.25,0.0,40950.25,0,
2022-11-02,40950.25,0.0,40950.25,0,
2022-11-03,40950.25,0.0,40950.25,0,
2022-11-04,40950.25,0.0,40950.25,0,
2022-11-06,40950.25,0.0,40950.25,0,
2022-11-07,40950.25,0.0,40950.25,0,
2022-11-08,40950.25,0.0,40950.25,0,
2022-11-09,40950.25,0.0,40950.25,0,
2022-11-10,40950.25,0.0,40950.25,0,
2022-11-11,40950.25,0.0,40950.25,0,
2022-11-13,40950.25,15.25,40965.5,1,Long
2022-11-14,40950.25,-29.0,40921.25,1,Long
2022-11-15,40950.25,102.75,41053.0,1,Long
2022-11-16,40950.25,-16.0,40934.25,1,Long
2022-11-17,40950.25,-76.25,40874.0,1,Long
2022-11-18,40950.25,-86.5,40863.75,1,Long
2022-11-20,40950.25,-87.0,40863.25,1,Long
2022-11-21,40950.25,-202.0,40748.25,1,Long
2022-11-22,40950.25,-51.0,40899.25,1,Long
2022-11-23,40950.25,92.5,41042.75,1,Long
2022-11-24,40950.25,121.75,41072.0,1,Long
2022-11-25,40950.25,-12.0,40938.25,2,Long
2022-11-27,40950.25,-126.5,40823.75,2,Long
2022-11-28,40950.25,-342.5,40607.75,2,Long
2022-11-29,40950.25,-573.5,40376.75,2,Long
2022-11-30,40950.25,566.0,41516.25,2,Long
2022-12-01,40950.25,500.0,41450.25,2,Long
2022-12-02,40950.25,379.5,41329.75,2,Long
2022-12-04,40950.25,423.0,41373.25,2,Long
2022-12-05,40950.25,58.5,41008.75,2,Long
2022-12-06,40950.25,-423.5,40526.75,2,Long
2022-12-07,40950.25,-559.0,40391.25,2,Long
2022-12-08,40950.25,-305.0,40645.25,2,Long
2022-12-09,40950.25,-518.25,40432.0,3,Long
2022-12-11,40950.25,-569.25,40381.0,3,Long
2022-12-12,40950.25,306.0,41256.25,3,Long
2022-12-13,40950.25,702.0,41652.25,3,Long
2022-12-14,40950.25,471.75,41422.0,3,Long
2022-12-15,40950.25,-801.0,40149.25,3,Long
2022-12-16,40950.25,-1219.5,39730.75,3,Long
2022-12-18,40950.25,-1119.0,39831.25,3,Long
2022-12-19,39831.25,0.0,39831.25,0,
2022-12-20,39831.25,0.0,39831.25,0,
2022-12-21,39831.25,0.0,39831.25,0,
2022-12-22,39831.25,0.0,39831.25,0,
2022-12-23,39831.25,0.0,39831.25,0,
2022-12-26,39831.25,0.0,39831.25,0,
2022-12-27,39831.25,0.0,39831.25,0,
2022-12-28,39831.25,0.0,39831.25,0,
2022-12-29,39831.25,0.0,39831.25,0,
2022-12-30,39831.25,0.0,39831.25,0,
2023-01-02,39831.25,0.0,39831.25,0,
2023-01-03,39831.25,0.0,39831.25,0,
2023-01-04,39831.25,0.0,39831.25,0,
2023-01-05,39831.25,0.0,39831.25,0,
2023-01-06,39831.25,0.0,39831.25,0,
2023-01-08,39831.25,0.0,39831.25,0,
2023-01-09,39831.25,0.0,39831.25,0,
2023-01-10,39831.25,0.0,39831.25,0,
2023-01-11,39831.25,0.0,39831.25,0,
2023-01-12,39831.25,0.0,39831.25,0,
2023-01-13,39831.25,0.0,39831.25,0,
2023-01-15,39831.25,0.0,39831.25,0,
2023-01-16,39831.25,0.0,39831.25,0,
2023-01-17,39831.25,0.0,39831.25,0,
2023-01-18,39831.25,0.0,39831.25,0,
2023-01-19,39831.25,0.0,39831.25,0,
2023-01-20,39831.25,0.0,39831.25,0,
2023-01-22,39831.25,-19.5,39811.75,1,Long
2023-01-23,39831.25,240.75,40072.0,1,Long
2023-01-24,39831.25,162.25,39993.5,1,Long
2023-01-25,39831.25,229.5,40060.75,1,Long
2023-01-26,39831.25,362.0,40193.25,1,Long
2023-01-27,39831.25,542.0,40373.25,1,Long
2023-01-29,39831.25,527.75,40359.0,1,Long
2023-01-30,39831.25,324.5,40155.75,1,Long
2023-01-31,39831.25,425.5,40256.75,1,Long
2023-02-01,39831.25,867.5,40698.75,1,Long
2023-02-02,39831.25,985.75,40817.0,1,Long
2023-02-03,39831.25,947.0,40778.25,2,Long
2023-02-05,39831.25,895.5,40726.75,2,Long
2023-02-06,39831.25,786.0,40617.25,2,Long
2023-02-07,39831.25,1214.0,41045.25,2,Long
2023-02-08,39831.25,836.0,40667.25,2,Long
2023-02-09,39831.25,583.5,40414.75,2,Long
2023-02-10,39831.25,387.0,40218.25,2,Long
2023-02-12,39831.25,327.5,40158.75,2,Long
2023-02-13,39831.25,791.5,40622.75,2,Long
2023-02-14,39831.25,929.5,40760.75,2,Long
2023-02-15,39831.25,1207.0,41038.25,2,Long
2023-02-16,39831.25,569.0,40400.25,2,Long
2023-02-17,39831.25,495.0,40326.25,3,Long
2023-02-19,39831.25,423.75,40255.0,3,Long
2023-02-20,39831.25,481.5,40312.75,3,Long
2023-02-21,39831.25,-312.0,39519.25,3,Long
2023-02-22,39831.25,-152.25,39679.0,3,Long
2023-02-23,39831.25,-133.5,39697.75,3,Long
2023-02-24,39831.25,-658.5,39172.75,3,Long
2023-02-26,39831.25,-603.0,39228.25,3,Long
2023-02-27,39831.25,-375.0,39456.25,3,Long
2023-02-28,39831.25,-588.75,39242.5,3,Long
2023-03-01,39831.25,-741.0,39090.25,3,Long
2023-03-02,39831.25,-543.75,39287.5,3,Long
2023-03-03,39831.25,354.5,40185.75,4,Long
2023-03-05,39831.25,217.5,40048.75,4,Long
2023-03-06,39831.25,370.5,40201.75,4,Long
2023-03-07,39831.25,-245.5,39585.75,4,Long
2023-03-08,39831.25,-51.5,39779.75,4,Long
2023-03-09,39831.25,-1008.5,38822.75,4,Long
2023-03-10,38822.75,0.0,38822.75,0,
2023-03-12,38822.75,0.0,38822.75,0,
2023-03-13,38822.75,0.0,38822.75,0,
2023-03-14,38822.75,0.0,38822.75,0,
2023-03-15,38822.75,0.0,38822.75,0,
2023-03-16,38822.75,0.0,38822.75,0,
2023-03-17,38822.75,-73.25,38749.5,1,Long
2023-03-19,38822.75,-17.0,38805.75,1,Long
2023-03-20,38822.75,-30.0,38792.75,1,Long
2023-03-21,38822.75,145.5,38968.25,1,Long
2023-03-22,38822.75,-4.25,38818.5,1,Long
2023-03-23,38822.75,142.0,38964.75,1,Long
2023-03-24,38822.75,201.25,39024.0,1,Long
2023-03-26,38822.75,224.75,39047.5,1,Long
2023-03-27,38822.75,99.5,38922.25,1,Long
2023-03-28,38822.75,36.5,38859.25,1,Long
2023-03-29,38822.75,220.0,39042.75,1,Long
2023-03-30,38822.75,373.0,39195.75,1,Long
2023-03-31,38822.75,628.25,39451.0,2,Long
2023-04-02,38822.75,491.25,39314.0,2,Long
2023-04-03,38822.75,505.25,39328.0,2,Long
2023-04-04,38822.75,492.75,39315.5,2,Long
2023-04-05,38822.75,125.25,38948.0,2,Long
2023-04-06,38822.75,330.25,39153.0,2,Long
2023-04-07,38822.75,372.75,39195.5,2,Long
2023-04-09,38822.75,323.75,39146.5,2,Long
2023-04-10,38822.75,355.75,39178.5,2,Long
2023-04-11,38822.75,190.25,39013.0,2,Long
2023-04-12,38822.75,-125.75,38697.0,2,Long
2023-04-13,38822.75,394.75,39217.5,2,Long
2023-04-14,38822.75,427.0,39249.75,3,Long
2023-04-16,38822.75,388.75,39211.5,3,Long
2023-04-17,38822.75,365.5,39188.25,3,Long
2023-04-18,38822.75,354.25,39177.0,3,Long
2023-04-19,38822.75,213.25,39036.0,3,Long
2023-04-20,38822.75,76.0,38898.75,3,Long
2023-04-21,38822.75,55.0,38877.75,3,Long
2023-04-23,38822.75,34.0,38856.75,3,Long
2023-04-24,38822.75,-22.25,38800.5,3,Long
2023-04-25,38822.75,-290.75,38532.0,3,Long
2023-04-26,38822.75,-299.75,38523.0,3,Long
2023-04-27,38822.75,460.0,39282.75,3,Long
2023-04-28,38822.75,846.5,39669.25,4,Long
2023-04-30,38822.75,767.5,39590.25,4,Long
2023-05-01,38822.75,681.5,39504.25,4,Long
2023-05-02,38822.75,267.5,39090.25,4,Long
2023-05-03,38822.75,-70.5,38752.25,4,Long
2023-05-04,38822.75,-86.5,38736.25,4,Long
2023-05-05,38822.75,780.5,39603.25,4,Long
2023-05-07,38822.75,755.5,39578.25,4,Long
2023-05-08,38822.75,886.5,39709.25,4,Long
2023-05-09,38822.75,640.5,39463.25,4,Long
2023-05-10,38822.75,1225.5,40048.25,4,Long
2023-05-11,38822.75,1357.5,40180.25,4,Long
2023-05-12,38822.75,1005.75,39828.5,5,Long
2023-05-14,38822.75,989.5,39812.25,5,Long
2023-05-15,38822.75,1449.5,40272.25,5,Long
2023-05-16,38822.75,1655.75,40478.5,5,Long
2023-05-17,38822.75,2374.5,41197.25,5,Long
2023-05-18,38822.75,3805.75,42628.5,5,Long
2023-05-19,38822.75,3365.75,42188.5,5,Long
2023-05-21,38822.75,3427.0,42249.75,5,Long
2023-05-22,38822.75,3874.5,42697.25,5,Long
2023-05-23,38822.75,2900.75,41723.5,5,Long
2023-05-24,38822.75,3394.5,42217.25,5,Long
2023-05-25,38822.75,3984.5,42807.25,5,Long
2023-05-26,38822.75,6041.25,44864.0,6,Long
2023-05-28,38822.75,6314.25,45137.0,6,Long
2023-05-29,38822.75,6131.25,44954.0,6,Long
2023-05-30,38822.75,6345.75,45168.5,6,Long
2023-05-31,38822.75,5675.25,44498.0,6,Long
2023-06-01,38822.75,6714.75,45537.5,6,Long
2023-06-02,38822.75,7334.25,46157.0,6,Long
2023-06-04,38822.75,7034.25,45857.0,6,Long
2023-06-05,38822.75,7209.75,46032.5,6,Long
2023-06-06,38822.75,7385.25,46208.0,6,Long
2023-06-07,38822.75,5796.75,44619.5,6,Long
2023-06-08,38822.75,6815.25,45638.0,6,Long
2023-06-09,38822.75,7203.25,46026.0,7,Long
2023-06-11,38822.75,7401.0,46223.75,7,Long
2023-06-12,38822.75,10281.5,49104.25,7,Long
2023-06-13,38822.75,10999.0,49821.75,7,Long
2023-06-14,38822.75,11762.0,50584.75,7,Long
2023-06-15,38822.75,12777.0,51599.75,7,Long
2023-06-16,38822.75,12371.0,51193.75,7,Long
2023-06-18,38822.75,12383.25,51206.0,7,Long
2023-06-19,38822.75,12001.75,50824.5,7,Long
2023-06-20,38822.75,12094.5,50917.25,7,Long
2023-06-21,38822.75,10547.5,49370.25,7,Long
2023-06-22,38822.75,11812.75,50635.5,7,Long
2023-06-23,38822.75,10625.0,49447.75,8,Long
2023-06-25,38822.75,10987.0,49809.75,8,Long
2023-06-26,38822.75,9325.0,48147.75,8,Long
2023-06-27,38822.75,10655.0,49477.75,8,Long
2023-06-28,38822.75,11559.0,50381.75,8,Long
2023-06-29,38822.75,11115.0,49937.75,8,Long
2023-06-30,38822.75,12721.0,51543.75,8,Long
2023-07-02,38822.75,12989.0,51811.75,8,Long
2023-07-03,38822.75,12883.0,51705.75,8,Long
2023-07-04,38822.75,12905.0,51727.75,8,Long
2023-07-05,38822.75,13045.0,51867.75,8,Long
2023-07-06,38822.75,11993.0,50815.75,8,Long
2023-07-07,38822.75,11702.5,50525.25,9,Long
2023-07-09,38822.75,11605.75,50428.5,9,Long
2023-07-10,38822.75,11709.25,50532.0,9,Long
2023-07-11,38822.75,12359.5,51182.25,9,Long
2023-07-12,38822.75,14224.75,53047.5,9,Long
2023-07-13,38822.75,16389.25,55212.0,9,Long
2023-07-14,38822.75,16209.25,55032.0,9,Long
2023-07-16,38822.75,15979.75,54802.5,9,Long
2023-07-17,38822.75,17341.0,56163.75,9,Long
2023-07-18,38822.75,18628.0,57450.75,9,Long
2023-07-19,38822.75,17689.75,56512.5,9,Long
2023-07-20,38822.75,15196.75,54019.5,9,Long
2023-07-21,38822.75,14985.75,53808.5,10,Long
2023-07-23,38822.75,14928.25,53751.0,10,Long
2023-07-24,38822.75,15110.75,53933.5,10,Long
2023-07-25,38822.75,15813.25,54636.0,10,Long
2023-07-26,38822.75,15968.25,54791.0,10,Long
2023-07-27,38822.75,15300.75,54123.5,10,Long
2023-07-28,38822.75,17890.75,56713.5,10,Long
2023-07-30,38822.75,18308.25,57131.0,10,Long
2023-07-31,38822.75,18038.25,56861.0,10,Long
2023-08-01,38822.75,16965.75,55788.5,10,Long
2023-08-02,38822.75,14355.75,53178.5,10,Long
2023-08-03,38822.75,14248.25,53071.0,10,Long
2023-08-04,53068.5,0.0,53068.5,0,
2023-08-06,53068.5,0.0,53068.5,0,
2023-08-07,53068.5,0.0,53068.5,0,
2023-08-08,53068.5,0.0,53068.5,0,
2023-08-09,53068.5,0.0,53068.5,0,
2023-08-10,53068.5,0.0,53068.5,0,
2023-08-11,53068.5,0.0,53068.5,0,
2023-08-13,53068.5,0.0,53068.5,0,
2023-08-14,53068.5,0.0,53068.5,0,
2023-08-15,53068.5,0.0,53068.5,0,
2023-08-16,53068.5,0.0,53068.5,0,
2023-08-17,53068.5,0.0,53068.5,0,
2023-08-18,53068.5,0.0,53068.5,0,
2023-08-20,53068.5,0.0,53068.5,0,
2023-08-21,53068.5,0.0,53068.5,0,
2023-08-22,53068.5,0.0,53068.5,0,
2023-08-23,53068.5,0.0,53068.5,0,
2023-08-24,53068.5,0.0,53068.5,0,
2023-08-25,53068.5,0.0,53068.5,0,
2023-08-27,53068.5,0.0,53068.5,0,
2023-08-28,53068.5,0.0,53068.5,0,
2023-08-29,53068.5,0.0,53068.5,0,
2023-08-30,53068.5,68.25,53136.75,1,Long
2023-08-31,53068.5,101.75,53170.25,1,Long
2023-09-01,53068.5,77.75,53146.25,1,Long
2023-09-03,53068.5,82.0,53150.5,1,Long
2023-09-04,53068.5,91.5,53160.0,1,Long
2023-09-05,53068.5,87.25,53155.75,1,Long
2023-09-06,53068.5,-43.5,53025.0,1,Long
2023-09-07,53068.5,-154.0,52914.5,1,Long
2023-09-08,53068.5,-79.75,52988.75,2,Long
2023-09-10,53068.5,-63.25,53005.25,2,Long
2023-09-11,53068.5,608.25,53676.75,2,Long
2023-09-12,53068.5,302.25,53370.75,2,Long
2023-09-13,53068.5,450.25,53518.75,2,Long
2023-09-14,53068.5,645.25,53713.75,2,Long
2023-09-15,53068.5,57.25,53125.75,2,Long
2023-09-17,53068.5,117.25,53185.75,2,Long
2023-09-18,53068.5,139.75,53208.25,2,Long
2023-09-19,53068.5,57.75,53126.25,2,Long
2023-09-20,53068.5,-481.75,52586.75,2,Long
2023-09-21,52585.25,0.0,52585.25,0,
2023-09-22,52585.25,0.0,52585.25,0,
2023-09-24,52585.25,0.0,52585.25,0,
2023-09-25,52585.25,0.0,52585.25,0,
2023-09-26,52585.25,0.0,52585.25,0,
2023-09-27,52585.25,0.0,52585.25,0,
2023-09-28,52585.25,0.0,52585.25,0,
2023-09-29,52585.25,0.0,52585.25,0,
2023-10-01,52585.25,0.0,52585.25,0,
2023-10-02,52585.25,0.0,52585.25,0,
2023-10-03,52585.25,0.0,52585.25,0,
2023-10-04,52585.25,0.0,52585.25,0,
2023-10-05,52585.25,0.0,52585.25,0,
2023-10-06,52585.25,0.0,52585.25,0,
2023-10-08,52585.25,0.0,52585.25,0,
2023-10-09,52585.25,0.0,52585.25,0,
2023-10-10,52585.25,0.0,52585.25,0,
2023-10-11,52585.25,0.0,52585.25,0,
2023-10-12,52585.25,-84.75,52500.5,1,Long
2023-10-13,52585.25,-308.0,52277.25,1,Long
2023-10-15,52585.25,-248.5,52336.75,1,Long
2023-10-16,52585.25,-124.0,52461.25,1,Long
2023-10-17,52585.25,-203.75,52381.5,1,Long
2023-10-18,52585.25,-377.0,52208.25,1,Long
2023-10-19,52585.25,-571.5,52013.75,1,Long
2023-10-20,52585.25,-800.0,51785.25,2,Long
2023-10-22,52585.25,-676.5,51908.75,2,Long
2023-10-23,52585.25,-571.0,52014.25,2,Long
2023-10-24,52585.25,-466.0,52119.25,2,Long
2023-10-25,52119.25,0.0,52119.25,0,
2023-10-26,52119.25,0.0,52119.25,0,
2023-10-27,52119.25,0.0,52119.25,0,
2023-10-29,52119.25,0.0,52119.25,0,
2023-10-30,52119.25,0.0,52119.25,0,
2023-10-31,52119.25,0.0,52119.25,0,
2023-11-01,52119.25,0.0,52119.25,0,
2023-11-02,52119.25,0.0,52119.25,0,
2023-11-03,52119.25,0.0,52119.25,0,
2023-11-05,52119.25,-11.25,52108.0,1,Long
2023-11-06,52119.25,21.75,52141.0,1,Long
2023-11-07,52119.25,181.25,52300.5,1,Long
2023-11-08,52119.25,171.0,52290.25,1,Long
2023-11-09,52119.25,45.75,52165.0,1,Long
2023-11-10,52119.25,394.25,52513.5,1,Long
2023-11-12,52119.25,373.25,52492.5,1,Long
2023-11-13,52119.25,371.5,52490.75,1,Long
2023-11-14,52119.25,717.75,52837.0,1,Long
2023-11-15,52119.25,678.0,52797.25,1,Long
2023-11-16,52119.25,698.75,52818.0,1,Long
2023-11-17,52119.25,687.75,52807.0,2,Long
2023-11-19,52119.25,667.25,52786.5,2,Long
2023-11-20,52119.25,1141.25,53260.5,2,Long
2023-11-21,52119.25,848.25,52967.5,2,Long
2023-11-22,52119.25,1031.25,53150.5,2,Long
2023-11-23,52119.25,1068.75,53188.0,2,Long
2023-11-24,52119.25,961.25,53080.5,2,Long
2023-11-26,52119.25,912.25,53031.5,2,Long
2023-11-27,52119.25,959.25,53078.5,2,Long
2023-11-28,52119.25,1046.25,53165.5,2,Long
2023-11-29,52119.25,1033.75,53153.0,2,Long
2023-11-30,52119.25,868.75,52988.0,2,Long
2023-12-01,52119.25,1014.5,53133.75,3,Long
2023-12-03,52119.25,897.5,53016.75,3,Long
2023-12-04,52119.25,470.0,52589.25,3,Long
2023-12-05,52119.25,705.5,52824.75,3,Long
2023-12-06,52119.25,371.0,52490.25,3,Long
2023-12-07,52119.25,981.5,53100.75,3,Long
2023-12-08,52119.25,1199.0,53318.25,3,Long
2023-12-10,52119.25,1235.0,53354.25,3,Long
2023-12-11,52119.25,2285.75,54405.0,3,Long
2023-12-12,52119.25,2750.0,54869.25,3,Long
2023-12-13,52119.25,3369.5,55488.75,3,Long
2023-12-14,52119.25,3203.0,55322.25,3,Long
2023-12-15,52119.25,3350.5,55469.75,4,Long
2023-12-17,52119.25,3381.5,55500.75,4,Long
2023-12-18,52119.25,3783.5,55902.75,4,Long
2023-12-19,52119.25,4197.5,56316.75,4,Long
2023-12-20,52119.25,3333.5,55452.75,4,Long
2023-12-21,52119.25,3854.5,55973.75,4,Long
2023-12-22,52119.25,3936.5,56055.75,4,Long
2023-12-25,52119.25,4102.5,56221.75,4,Long
2023-12-26,52119.25,4444.5,56563.75,4,Long
2023-12-27,52119.25,4573.5,56692.75,4,Long
2023-12-28,52119.25,4489.5,56608.75,4,Long
2023-12-29,52119.25,4089.0,56208.25,5,Long
2024-01-01,52119.25,4217.75,56337.0,5,Long
2024-01-02,52119.25,2691.5,54810.75,5,Long
2024-01-03,54812.0,0.0,54812.0,0,
2024-01-04,54812.0,0.0,54812.0,0,
2024-01-05,54812.0,0.0,54812.0,0,
2024-01-07,54812.0,0.0,54812.0,0,
2024-01-08,54812.0,0.0,54812.0,0,
2024-01-09,54812.0,0.0,54812.0,0,
2024-01-10,54812.0,0.0,54812.0,0,
2024-01-11,54812.0,0.0,54812.0,0,
2024-01-12,54812.0,0.0,54812.0,0,
2024-01-14,54812.0,0.0,54812.0,0,
2024-01-15,54812.0,0.0,54812.0,0,
2024-01-16,54812.0,0.0,54812.0,0,
2024-01-17,54812.0,-125.5,54686.5,1,Long
2024-01-18,54812.0,169.5,54981.5,1,Long
2024-01-19,54812.0,484.0,55296.0,1,Long
2024-01-21,54812.0,504.5,55316.5,1,Long
2024-01-22,54812.0,485.25,55297.25,1,Long
2024-01-23,54812.0,596.75,55408.75,1,Long
2024-01-24,54812.0,637.75,55449.75,1,Long
2024-01-25,54812.0,563.25,55375.25,1,Long
2024-01-26,54812.0,498.75,55310.75,2,Long
2024-01-28,54812.0,448.75,55260.75,2,Long
2024-01-29,54812.0,933.25,55745.25,2,Long
2024-01-30,54812.0,385.75,55197.75,2,Long
2024-01-31,54812.0,54.25,54866.25,2,Long
2024-02-01,54812.0,676.25,55488.25,2,Long
2024-02-02,54812.0,861.25,55673.25,2,Long
2024-02-04,54812.0,904.25,55716.25,2,Long
2024-02-05,54812.0,881.75,55693.75,2,Long
2024-02-06,54812.0,793.25,55605.25,2,Long
2024-02-07,54812.0,1174.25,55986.25,2,Long
2024-02-08,54812.0,1223.75,56035.75,2,Long
2024-02-09,54812.0,1567.5,56379.5,3,Long
2024-02-11,54812.0,1559.25,56371.25,3,Long
2024-02-12,54812.0,1266.0,56078.0,3,Long
2024-02-13,54812.0,525.0,55337.0,3,Long
2024-02-14,54812.0,1090.5,55902.5,3,Long
2024-02-15,54812.0,1311.75,56123.75,3,Long
2024-02-16,54812.0,618.0,55430.0,3,Long
2024-02-18,54812.0,786.75,55598.75,3,Long
2024-02-19,54812.0,699.0,55511.0,3,Long
2024-02-20,54812.0,159.0,54971.0,3,Long
2024-02-21,54812.0,566.25,55378.25,3,Long
2024-02-22,54812.0,1578.75,56390.75,3,Long
2024-02-23,54812.0,1291.5,56103.5,4,Long
2024-02-25,54812.0,1377.5,56189.5,4,Long
2024-02-26,54812.0,1299.5,56111.5,4,Long
2024-02-27,54812.0,1467.5,56279.5,4,Long
2024-02-28,54812.0,926.5,55738.5,4,Long
2024-02-29,54812.0,1685.5,56497.5,4,Long
2024-03-01,54812.0,2733.5,57545.5,4,Long
2024-03-03,54812.0,2821.5,57633.5,4,Long
2024-03-04,54812.0,2340.5,57152.5,4,Long
2024-03-05,54812.0,1297.5,56109.5,4,Long
2024-03-06,54812.0,1521.5,56333.5,4,Long
2024-03-07,54812.0,2512.5,57324.5,4,Long
2024-03-08,54812.0,1655.25,56467.25,5,Long
2024-03-10,54812.0,1592.75,56404.75,5,Long
2024-03-11,54812.0,2849.0,57661.0,5,Long
2024-03-12,54812.0,3771.5,58583.5,5,Long
2024-03-13,54812.0,3244.0,58056.0,5,Long
2024-03-14,54812.0,2571.5,57383.5,5,Long
2024-03-15,54812.0,1696.5,56508.5,5,Long
2024-03-17,54812.0,1774.0,56586.0,5,Long
2024-03-18,54812.0,2336.5,57148.5,5,Long
2024-03-19,54812.0,2721.5,57533.5,5,Long
2024-03-20,54812.0,4272.75,59084.75,5,Long
2024-03-21,54812.0,4324.0,59136.0,5,Long
2024-03-22,54812.0,4176.0,58988.0,6,Long
2024-03-24,54812.0,4308.0,59120.0,6,Long
2024-03-25,54812.0,4035.0,58847.0,6,Long
2024-03-26,54812.0,3727.5,58539.5,6,Long
2024-03-27,54812.0,3673.5,58485.5,6,Long
2024-03-28,54812.0,3583.5,58395.5,6,Long
2024-03-31,54812.0,4443.0,59255.0,6,Long
2024-04-01,54812.0,3613.5,58425.5,6,Long
2024-04-02,54812.0,2763.0,57575.0,6,Long
2024-04-03,54812.0,3466.5,58278.5,6,Long
2024-04-04,54812.0,1341.0,56153.0,6,Long
2024-04-05,54812.0,2655.0,57467.0,6,Long
2024-04-07,54812.0,2706.0,57518.0,6,Long
2024-04-08,54812.0,2602.5,57414.5,6,Long
2024-04-09,54812.0,3000.0,57812.0,6,Long
2024-04-10,54812.0,1743.0,56555.0,6,Long
2024-04-11,54812.0,3733.5,58545.5,6,Long
2024-04-12,54812.0,1802.75,56614.75,7,Long
2024-04-14,54812.0,2266.5,57078.5,7,Long
2024-04-15,57080.25,0.0,57080.25,0,
2024-04-16,57080.25,0.0,57080.25,0,
2024-04-17,57080.25,0.0,57080.25,0,
2024-04-18,57080.25,0.0,57080.25,0,
2024-04-19,57080.25,0.0,57080.25,0,
2024-04-21,57080.25,0.0,57080.25,0,
2024-04-22,57080.25,0.0,57080.25,0,
2024-04-23,57080.25,0.0,57080.25,0,
2024-04-24,57080.25,0.0,57080.25,0,
2024-04-25,57080.25,0.0,57080.25,0,
2024-04-26,57080.25,0.0,57080.25,0,
2024-04-28,57080.25,0.0,57080.25,0,
2024-04-29,57080.25,0.0,57080.25,0,
2024-04-30,57080.25,0.0,57080.25,0,
2024-05-01,57080.25,0.0,57080.25,0,
2024-05-02,57080.25,0.0,57080.25,0,
2024-05-03,57080.25,0.0,57080.25,0,
2024-05-05,57080.25,0.0,57080.25,0,
2024-05-06,57080.25,0.0,57080.25,0,
2024-05-07,57080.25,20.5,57100.75,1,Long
2024-05-08,57080.25,-22.0,57058.25,1,Long
2024-05-09,57080.25,47.5,57127.75,1,Long
2024-05-10,57080.25,55.75,57136.0,1,Long
2024-05-12,57080.25,61.75,57142.0,1,Long
2024-05-13,57080.25,100.0,57180.25,1,Long
2024-05-14,57080.25,233.25,57313.5,1,Long
2024-05-15,57080.25,537.25,57617.5,1,Long
2024-05-16,57080.25,467.5,57547.75,1,Long
2024-05-17,57080.25,463.0,57543.25,2,Long
2024-05-19,57080.25,529.5,57609.75,2,Long
2024-05-20,57080.25,699.0,57779.25,2,Long
2024-05-21,57080.25,822.5,57902.75,2,Long
2024-05-22,57080.25,945.0,58025.25,2,Long
2024-05-23,57080.25,597.5,57677.75,2,Long
2024-05-24,57080.25,938.5,58018.75,2,Long
2024-05-26,57080.25,868.0,57948.25,2,Long
2024-05-27,57080.25,1011.5,58091.75,2,Long
2024-05-28,57080.25,1055.0,58135.25,2,Long
2024-05-29,57080.25,642.0,57722.25,2,Long
2024-05-30,57080.25,313.0,57393.25,2,Long
2024-05-31,57080.25,397.5,57477.75,3,Long
2024-06-02,57080.25,458.25,57538.5,3,Long
2024-06-03,57080.25,633.75,57714.0,3,Long
2024-06-04,57080.25,895.5,57975.75,3,Long
2024-06-05,57080.25,1956.0,59036.25,3,Long
2024-06-06,57080.25,1907.25,58987.5,3,Long
2024-06-07,57080.25,1775.25,58855.5,3,Long
2024-06-09,57080.25,1763.25,58843.5,3,Long
2024-06-10,57080.25,1936.5,59016.75,3,Long
2024-06-11,57080.25,2452.5,59532.75,3,Long
2024-06-12,57080.25,3483.0,60563.25,3,Long
2024-06-13,57080.25,3537.75,60618.0,3,Long
2024-06-14,57080.25,3811.0,60891.25,4,Long
2024-06-16,57080.25,3872.0,60952.25,4,Long
2024-06-17,57080.25,5846.0,62926.25,4,Long
2024-06-18,57080.25,5919.0,62999.25,4,Long
2024-06-19,57080.25,5970.0,63050.25,4,Long
2024-06-20,57080.25,5304.0,62384.25,4,Long
2024-06-21,57080.25,5062.0,62142.25,4,Long
2024-06-23,57080.25,5059.0,62139.25,4,Long
2024-06-24,57080.25,4113.0,61193.25,4,Long
2024-06-25,57080.25,4889.0,61969.25,4,Long
2024-06-26,57080.25,4701.0,61781.25,4,Long
2024-06-27,57080.25,5408.0,62488.25,4,Long
2024-06-28,57080.25,4859.0,61939.25,5,Long
2024-06-30,57080.25,4754.0,61834.25,5,Long
2024-07-01,57080.25,5119.0,62199.25,5,Long
2024-07-02,57080.25,6212.75,63293.0,5,Long
2024-07-03,57080.25,7035.25,64115.5,5,Long
2024-07-04,57080.25,6976.5,64056.75,5,Long
2024-07-05,57080.25,7975.25,65055.5,5,Long
2024-07-07,57080.25,7976.5,65056.75,5,Long
2024-07-08,57080.25,8715.25,65795.5,5,Long
2024-07-09,57080.25,8511.5,65591.75,5,Long
2024-07-10,57080.25,9430.25,66510.5,5,Long
2024-07-11,57080.25,7096.5,64176.75,5,Long
2024-07-12,57080.25,7706.5,64786.75,6,Long
2024-07-14,57080.25,7828.0,64908.25,6,Long
2024-07-15,57080.25,8258.5,65338.75,6,Long
2024-07-16,57080.25,7859.5,64939.75,6,Long
2024-07-17,64939.75,0.0,64939.75,0,
2024-07-18,64939.75,0.0,64939.75,0,
2024-07-19,64939.75,0.0,64939.75,0,
2024-07-21,64939.75,0.0,64939.75,0,
2024-07-22,64939.75,0.0,64939.75,0,
2024-07-23,64939.75,0.0,64939.75,0,
2024-07-24,64939.75,0.0,64939.75,0,
2024-07-25,64939.75,0.0,64939.75,0,
2024-07-26,64939.75,0.0,64939.75,0,
2024-07-28,64939.75,0.0,64939.75,0,
2024-07-29,64939.75,0.0,64939.75,0,
2024-07-30,64939.75,0.0,64939.75,0,
2024-07-31,64939.75,0.0,64939.75,0,
2024-08-01,64939.75,0.0,64939.75,0,
2024-08-02,64939.75,0.0,64939.75,0,
2024-08-04,64939.75,0.0,64939.75,0,
2024-08-05,64939.75,0.0,64939.75,0,
2024-08-06,64939.75,0.0,64939.75,0,
2024-08-07,64939.75,0.0,64939.75,0,
2024-08-08,64939.75,0.0,64939.75,0,
2024-08-09,64939.75,0.0,64939.75,0,
2024-08-11,64939.75,0.0,64939.75,0,
2024-08-12,64939.75,0.0,64939.75,0,
2024-08-13,64939.75,0.0,64939.75,0,
2024-08-14,64939.75,-10.0,64929.75,1,Long
2024-08-15,64939.75,497.0,65436.75,1,Long
2024-08-16,64939.75,487.5,65427.25,1,Long
2024-08-18,64939.75,531.5,65471.25,1,Long
2024-08-19,64939.75,744.0,65683.75,1,Long
2024-08-20,64939.75,673.0,65612.75,1,Long
2024-08-21,64939.75,819.5,65759.25,1,Long
2024-08-22,64939.75,521.75,65461.5,1,Long
2024-08-23,64939.75,674.5,65614.25,2,Long
2024-08-25,64939.75,645.0,65584.75,2,Long
2024-08-26,64939.75,261.5,65201.25,2,Long
2024-08-27,64939.75,293.0,65232.75,2,Long
2024-08-28,64939.75,-495.5,64444.25,2,Long
2024-08-29,64939.75,-21.0,64918.75,2,Long
2024-08-30,64939.75,307.0,65246.75,2,Long
2024-09-01,64939.75,291.0,65230.75,2,Long
2024-09-02,64939.75,280.0,65219.75,2,Long
2024-09-03,64939.75,-966.0,63973.75,2,Long
2024-09-04,64939.75,-1015.5,63924.25,2,Long
2024-09-05,64939.75,-1056.0,63883.75,2,Long
2024-09-06,63881.75,0.0,63881.75,0,
2024-09-08,63881.75,0.0,63881.75,0,
2024-09-09,63881.75,0.0,63881.75,0,
2024-09-10,63881.75,0.0,63881.75,0,
2024-09-11,63881.75,0.0,63881.75,0,
2024-09-12,63881.75,0.0,63881.75,0,
2024-09-13,63881.75,0.0,63881.75,0,
2024-09-15,63881.75,40.25,63922.0,1,Long
2024-09-16,63881.75,174.75,64056.5,1,Long
2024-09-17,63881.75,207.25,64089.0,1,Long
2024-09-18,63881.75,265.25,64147.0,1,Long
2024-09-19,63881.75,551.0,64432.75,1,Long
2024-09-20,63881.75,516.25,64398.0,1,Long
2024-09-22,63881.75,564.0,64445.75,1,Long
2024-09-23,63881.75,570.25,64452.0,1,Long
2024-09-24,63881.75,681.5,64563.25,1,Long
2024-09-25,63881.75,779.5,64661.25,1,Long
2024-09-26,63881.75,845.75,64727.5,1,Long
2024-09-27,63881.75,674.5,64556.25,2,Long
2024-09-29,63881.75,832.5,64714.25,2,Long
2024-09-30,63881.75,782.5,64664.25,2,Long
2024-10-01,63881.75,152.5,64034.25,2,Long
2024-10-02,63881.75,397.0,64278.75,2,Long
2024-10-03,63881.75,253.5,64135.25,2,Long
2024-10-04,63881.75,694.0,64575.75,2,Long
2024-10-06,63881.75,748.5,64630.25,2,Long
2024-10-07,63881.75,253.5,64135.25,2,Long
2024-10-08,63881.75,833.5,64715.25,2,Long
2024-10-09,63881.75,1188.0,65069.75,2,Long
2024-10-10,63881.75,1190.5,65072.25,2,Long
2024-10-11,63881.75,1051.5,64933.25,3,Long
2024-10-13,63881.75,1095.75,64977.5,3,Long
2024-10-14,63881.75,1710.0,65591.75,3,Long
2024-10-15,63881.75,870.0,64751.75,3,Long
2024-10-16,63881.75,756.0,64637.75,3,Long
2024-10-17,63881.75,1029.75,64911.5,3,Long
2024-10-18,63881.75,1267.5,65149.25,3,Long
2024-10-20,63881.75,1355.25,65237.0,3,Long
2024-10-21,63881.75,1362.0,65243.75,3,Long
2024-10-22,63881.75,1403.25,65285.0,3,Long
2024-10-23,63881.75,684.75,64566.5,3,Long
2024-10-24,63881.75,957.75,64839.5,3,Long
2024-10-25,63881.75,1204.0,65085.75,4,Long
2024-10-27,63881.75,1689.0,65570.75,4,Long
2024-10-28,63881.75,1327.0,65208.75,4,Long
2024-10-29,63881.75,2287.0,66168.75,4,Long
2024-10-30,63881.75,1001.0,64882.75,4,Long
2024-10-31,63881.75,-409.0,63472.75,4,Long
2024-11-01,63881.75,-27.0,63854.75,4,Long
2024-11-03,63881.75,-165.0,63716.75,4,Long
2024-11-04,63881.75,-352.0,63529.75,4,Long
2024-11-05,63881.75,671.0,64552.75,4,Long
2024-11-06,63881.75,2859.0,66740.75,4,Long
2024-11-07,63881.75,4202.0,68083.75,4,Long
2024-11-08,63881.75,4211.5,68093.25,5,Long
2024-11-10,63881.75,4596.5,68478.25,5,Long
2024-11-11,63881.75,4156.5,68038.25,5,Long
2024-11-12,63881.75,3876.5,67758.25,5,Long
2024-11-13,63881.75,3906.5,67788.25,5,Long
2024-11-14,63881.75,2824.0,66705.75,5,Long
2024-11-15,63881.75,594.0,64475.75,5,Long
2024-11-17,63881.75,917.75,64799.5,5,Long
2024-11-18,63881.75,1187.75,65069.5,5,Long
2024-11-19,63881.75,1991.5,65873.25,5,Long
2024-11-20,63881.75,1839.0,65720.75,5,Long
2024-11-21,63881.75,1944.0,65825.75,5,Long
2024-11-22,63881.75,2511.5,66393.25,6,Long
2024-11-24,63881.75,2855.0,66736.75,6,Long
2024-11-25,63881.75,2246.0,66127.75,6,Long
2024-11-26,63881.75,3155.0,67036.75,6,Long
2024-11-27,63881.75,2180.0,66061.75,6,Long
2024-11-28,63881.75,2567.0,66448.75,6,Long
2024-11-29,63881.75,3189.5,67071.25,6,Long
2024-12-01,63881.75,3027.5,66909.25,6,Long
2024-12-02,63881.75,4523.0,68404.75,6,Long
2024-12-03,63881.75,5237.0,69118.75,6,Long
2024-12-04,63881.75,6302.0,70183.75,6,Long
2024-12-05,63881.75,5975.0,69856.75,6,Long
2024-12-06,63881.75,7035.5,70917.25,7,Long
2024-12-08,63881.75,7201.75,71083.5,7,Long
2024-12-09,63881.75,5856.0,69737.75,7,Long
2024-12-10,63881.75,5597.0,69478.75,7,Long
2024-12-11,63881.75,7905.25,71787.0,7,Long
2024-12-12,63881.75,7809.0,71690.75,7,Long
2024-12-13,63881.75,7921.0,71802.75,7,Long
2024-12-15,63881.75,8122.25,72004.0,7,Long
2024-12-16,63881.75,10290.5,74172.25,7,Long
2024-12-17,63881.75,11517.25,75399.0,7,Long
2024-12-18,75399.0,0.0,75399.0,0,
2024-12-19,75399.0,0.0,75399.0,0,
2024-12-20,75399.0,0.0,75399.0,0,
2024-12-22,75399.0,0.0,75399.0,0,
2024-12-23,75399.0,0.0,75399.0,0,
2024-12-24,75399.0,0.0,75399.0,0,
2024-12-25,75399.0,0.0,75399.0,0,
2024-12-26,75399.0,0.0,75399.0,0,
2024-12-27,75399.0,0.0,75399.0,0,
2024-12-29,75399.0,0.0,75399.0,0,
2024-12-30,75399.0,0.0,75399.0,0,
2024-12-31,75399.0,0.0,75399.0,0,
2025-01-01,75399.0,0.0,75399.0,0,
2025-01-02,75399.0,0.0,75399.0,0,
2025-01-03,75399.0,0.0,75399.0,0,
2025-01-05,75399.0,0.0,75399.0,0,
2025-01-06,75399.0,0.0,75399.0,0,
2025-01-07,75399.0,0.0,75399.0,0,
2025-01-08,75399.0,0.0,75399.0,0,
2025-01-09,75399.0,0.0,75399.0,0,
2025-01-10,75399.0,0.0,75399.0,0,
2025-01-12,75399.0,0.0,75399.0,0,
2025-01-13,75399.0,0.0,75399.0,0,
2025-01-14,75399.0,0.0,75399.0,0,
2025-01-15,75399.0,0.0,75399.0,0,
2025-01-16,75399.0,0.0,75399.0,0,
2025-01-17,75399.0,0.0,75399.0,0,
2025-01-19,75399.0,0.0,75399.0,0,
2025-01-20,75399.0,0.0,75399.0,0,
2025-01-21,75399.0,0.0,75399.0,0,
2025-01-22,75399.0,0.0,75399.0,0,
2025-01-23,75399.0,45.25,75444.25,1,Long
2025-01-24,75399.0,-57.0,75342.0,1,Long
2025-01-26,75399.0,-299.5,75099.5,1,Long
2025-01-27,75399.0,-638.0,74761.0,1,Long
2025-01-28,75399.0,-420.0,74979.0,1,Long
2025-01-29,75399.0,-427.0,74972.0,1,Long
2025-01-30,75399.0,-267.0,75132.0,1,Long
2025-01-31,75399.0,-421.0,74978.0,2,Long
2025-02-02,75399.0,-1337.0,74062.0,2,Long
2025-02-03,75399.0,-420.5,74978.5,2,Long
2025-02-04,75399.0,-429.0,74970.0,2,Long
2025-02-05,75399.0,-16.0,75383.0,2,Long
2025-02-06,75399.0,144.5,75543.5,2,Long
2025-02-07,75399.0,-412.5,74986.5,2,Long
2025-02-09,75399.0,-270.5,75128.5,2,Long
2025-02-10,75399.0,27.0,75426.0,2,Long
2025-02-11,75399.0,58.5,75457.5,2,Long
2025-02-12,75399.0,213.0,75612.0,2,Long
2025-02-13,75399.0,605.5,76004.5,2,Long
2025-02-14,75399.0,847.75,76246.75,3,Long
2025-02-16,75399.0,873.25,76272.25,3,Long
2025-02-17,75399.0,900.25,76299.25,3,Long
2025-02-18,75399.0,990.25,76389.25,3,Long
2025-02-19,75399.0,891.25,76290.25,3,Long
2025-02-20,75399.0,723.25,76122.25,3,Long
2025-02-21,75399.0,-782.75,74616.25,3,Long
2025-02-23,75399.0,-487.25,74911.75,3,Long
2025-02-24,75399.0,-1605.5,73793.5,3,Long
2025-02-25,73794.25,0.0,73794.25,0,
2025-02-26,73794.25,0.0,73794.25,0,
2025-02-27,73794.25,0.0,73794.25,0,
2025-02-28,73794.25,0.0,73794.25,0,
2025-03-02,73794.25,0.0,73794.25,0,
2025-03-03,73794.25,0.0,73794.25,0,
2025-03-04,73794.25,0.0,73794.25,0,
2025-03-05,73794.25,0.0,73794.25,0,
2025-03-06,73794.25,0.0,73794.25,0,
2025-03-07,73794.25,0.0,73794.25,0,
2025-03-09,73794.25,0.0,73794.25,0,
2025-03-10,73794.25,0.0,73794.25,0,
2025-03-11,73794.25,0.0,73794.25,0,
2025-03-12,73794.25,0.0,73794.25,0,
2025-03-13,73794.25,0.0,73794.25,0,
2025-03-14,73794.25,0.0,73794.25,0,
2025-03-16,73794.25,0.0,73794.25,0,
2025-03-17,73794.25,0.0,73794.25,0,
2025-03-18,73794.25,0.0,73794.25,0,
2025-03-19,73794.25,0.0,73794.25,0,
2025-03-20,73794.25,0.0,73794.25,0,
2025-03-21,73794.25,0.0,73794.25,0,
2025-03-23,73794.25,0.0,73794.25,0,
2025-03-24,73794.25,0.0,73794.25,0,
2025-03-25,73794.25,0.0,73794.25,0,
2025-03-26,73794.25,0.0,73794.25,0,
2025-03-27,73794.25,0.0,73794.25,0,
2025-03-28,73794.25,0.0,73794.25,0,
2025-03-30,73794.25,0.0,73794.25,0,
2025-03-31,73794.25,0.0,73794.25,0,
2025-04-01,73794.25,0.0,73794.25,0,
2025-04-02,73794.25,0.0,73794.25,0,
2025-04-03,73794.25,0.0,73794.25,0,
2025-04-04,73794.25,0.0,73794.25,0,
2025-04-06,73794.25,0.0,73794.25,0,
2025-04-07,73794.25,0.0,73794.25,0,
2025-04-08,73794.25,0.0,73794.25,0,
2025-04-09,73794.25,0.0,73794.25,0,
2025-04-10,73794.25,-956.0,72838.25,1,Long
2025-04-11,73794.25,-493.75,73300.5,1,Long
2025-04-13,73794.25,-299.75,73494.5,1,Long
2025-04-14,73794.25,-462.5,73331.75,1,Long
2025-04-15,73794.25,-584.5,73209.75,1,Long
2025-04-16,73794.25,-910.25,72884.0,1,Long
2025-04-17,73794.25,-882.75,72911.5,1,Long
2025-04-20,73794.25,-998.5,72795.75,1,Long
2025-04-21,73794.25,-1309.5,72484.75,1,Long
2025-04-22,73794.25,-551.5,73242.75,1,Long
2025-04-23,73794.25,-473.25,73321.0,1,Long
2025-04-24,73794.25,99.75,73894.0,1,Long
2025-04-25,73794.25,322.5,74116.75,2,Long
2025-04-27,73794.25,121.5,73915.75,2,Long
2025-04-28,73794.25,270.0,74064.25,2,Long
2025-04-29,73794.25,339.5,74133.75,2,Long
2025-04-30,73794.25,1047.0,74841.25,2,Long
2025-05-01,73794.25,793.5,74587.75,2,Long
2025-05-02,73794.25,1614.0,75408.25,2,Long
2025-05-04,73794.25,1383.5,75177.75,2,Long
2025-05-05,73794.25,1230.0,75024.25,2,Long
2025-05-06,73794.25,1348.0,75142.25,2,Long
2025-05-07,73794.25,1117.5,74911.75,2,Long
2025-05-08,73794.25,1491.5,75285.75,2,Long
2025-05-09,73794.25,1510.0,75304.25,3,Long
2025-05-11,73794.25,2429.5,76223.75,3,Long
2025-05-12,73794.25,3796.0,77590.25,3,Long
2025-05-13,73794.25,4947.25,78741.5,3,Long
2025-05-14,73794.25,5197.0,78991.25,3,Long
2025-05-15,73794.25,5314.75,79109.0,3,Long
2025-05-16,73794.25,5283.25,79077.5,3,Long
2025-05-18,73794.25,5215.0,79009.25,3,Long
2025-05-19,73794.25,5689.75,79484.0,3,Long
2025-05-20,73794.25,5365.75,79160.0,3,Long
2025-05-21,73794.25,4512.25,78306.5,3,Long
2025-05-22,73794.25,4606.75,78401.0,3,Long
2025-05-23,73794.25,3867.75,77662.0,4,Long
2025-05-25,73794.25,4809.75,78604.0,4,Long
2025-05-26,73794.25,4998.75,78793.0,4,Long
2025-05-27,73794.25,5936.75,79731.0,4,Long
2025-05-28,73794.25,7118.75,80913.0,4,Long
2025-05-29,73794.25,5322.75,79117.0,4,Long
2025-05-30,73794.25,5530.75,79325.0,4,Long
2025-06-01,73794.25,5268.75,79063.0,4,Long
2025-06-02,73794.25,6033.75,79828.0,4,Long
2025-06-03,73794.25,6875.75,80670.0,4,Long
2025-06-04,73794.25,7019.75,80814.0,4,Long
2025-06-05,73794.25,6238.75,80033.0,4,Long
2025-06-06,73794.25,7303.5,81097.75,5,Long
2025-06-08,73794.25,7063.5,80857.75,5,Long
2025-06-09,73794.25,7414.75,81209.0,5,Long
2025-06-10,73794.25,8028.5,81822.75,5,Long
2025-06-11,73794.25,7447.25,81241.5,5,Long
2025-06-12,73794.25,7174.75,80969.0,5,Long
2025-06-13,73794.25,6524.75,80319.0,5,Long
2025-06-15,73794.25,6691.0,80485.25,5,Long
2025-06-16,73794.25,8333.5,82127.75,5,Long
2025-06-17,73794.25,7782.25,81576.5,5,Long
2025-06-18,73794.25,7998.5,81792.75,5,Long
2025-06-19,73794.25,7689.75,81484.0,5,Long
2025-06-20,73794.25,7691.25,81485.5,6,Long
2025-06-22,73794.25,7011.75,80806.0,6,Long
2025-06-23,73794.25,9864.75,83659.0,6,Long
2025-06-24,73794.25,10992.75,84787.0,6,Long
2025-06-25,73794.25,11237.25,85031.5,6,Long
2025-06-26,73794.25,12513.75,86308.0,6,Long
2025-06-27,73794.25,12888.75,86683.0,6,Long
2025-06-29,73794.25,13350.75,87145.0,6,Long
2025-06-30,73794.25,13736.25,87530.5,6,Long
2025-07-01,73794.25,12696.75,86491.0,6,Long
2025-07-02,73794.25,13538.25,87332.5,6,Long
2025-07-03,73794.25,14655.75,88450.0,6,Long
2025-07-04,73794.25,13874.25,87668.5,7,Long
2025-07-06,73794.25,14429.0,88223.25,7,Long
2025-07-07,73794.25,13660.75,87455.0,7,Long
2025-07-08,73794.25,13851.5,87645.75,7,Long
2025-07-09,73794.25,14787.75,88582.0,7,Long
2025-07-10,73794.25,14854.25,88648.5,7,Long
2025-07-11,73794.25,14103.5,87897.75,7,Long
2025-07-13,73794.25,13608.25,87402.5,7,Long
2025-07-14,73794.25,14623.25,88417.5,7,Long
2025-07-15,73794.25,14642.5,88436.75,7,Long
2025-07-16,73794.25,14826.25,88620.5,7,Long
2025-07-17,73794.25,16504.5,90298.75,7,Long
2025-07-18,73794.25,16159.25,89953.5,8,Long
2025-07-20,73794.25,16409.25,90203.5,8,Long
2025-07-21,73794.25,17101.25,90895.5,8,Long
2025-07-22,73794.25,16423.25,90217.5,8,Long
2025-07-23,73794.25,17537.25,91331.5,8,Long
2025-07-24,73794.25,17579.25,91373.5,8,Long
2025-07-25,73794.25,17907.25,91701.5,8,Long
2025-07-27,73794.25,18603.25,92397.5,8,Long
2025-07-28,73794.25,18557.25,92351.5,8,Long
2025-07-29,73794.25,18127.25,91921.5,8,Long
2025-07-30,73794.25,20129.25,93923.5,8,Long
2025-07-31,73794.25,16709.25,90503.5,8,Long
2025-08-01,90509.5,0.0,90509.5,0,
2025-08-03,90509.5,0.0,90509.5,0,
2025-08-04,90509.5,0.0,90509.5,0,
2025-08-05,90509.5,0.0,90509.5,0,
2025-08-06,90509.5,0.0,90509.5,0,
2025-08-07,90509.5,0.0,90509.5,0,
2025-08-08,90509.5,0.0,90509.5,0,
2025-08-10,90509.5,-59.5,90450.0,1,Long
2025-08-11,90509.5,-130.5,90379.0,1,Long
2025-08-12,90509.5,193.25,90702.75,1,Long
2025-08-13,90509.5,182.0,90691.5,1,Long
2025-08-14,90509.5,121.5,90631.0,1,Long
2025-08-15,90509.5,29.25,90538.75,1,Long
2025-08-17,90509.5,83.75,90593.25,1,Long
2025-08-18,90509.5,37.5,90547.0,1,Long
2025-08-19,90509.5,-345.25,90164.25,1,Long
2025-08-20,90509.5,-447.75,90061.75,1,Long
2025-08-21,90509.5,-519.25,89990.25,1,Long
2025-08-22,90509.5,-166.5,90343.0,2,Long
2025-08-24,90509.5,-183.0,90326.5,2,Long
2025-08-25,90509.5,-339.0,90170.5,2,Long
2025-08-26,90509.5,-104.0,90405.5,2,Long
2025-08-27,90509.5,-315.5,90194.0,2,Long
2025-08-28,90509.5,164.5,90674.0,2,Long
2025-08-29,90509.5,-423.0,90086.5,2,Long
2025-08-31,90509.5,-256.0,90253.5,2,Long
2025-09-01,90509.5,-441.0,90068.5,2,Long
2025-09-02,90509.5,-663.0,89846.5,2,Long
2025-09-03,90509.5,-456.0,90053.5,2,Long
2025-09-04,90509.5,80.5,90590.0,2,Long
2025-09-05,90509.5,21.25,90530.75,3,Long
2025-09-07,90509.5,335.5,90845.0,3,Long
2025-09-08,90509.5,424.0,90933.5,3,Long
2025-09-09,90509.5,659.5,91169.0,3,Long
2025-09-10,90509.5,704.5,91214.0,3,Long
2025-09-11,90509.5,1060.0,91569.5,3,Long
2025-09-12,90509.5,1345.75,91855.25,3,Long
2025-09-14,90509.5,1335.25,91844.75,3,Long
2025-09-15,90509.5,1917.25,92426.75,3,Long
2025-09-16,90509.5,2631.25,93140.75,3,Long
2025-09-17,90509.5,2754.25,93263.75,3,Long
2025-09-18,90509.5,3222.25,93731.75,3,Long
2025-09-19,90509.5,3603.25,94112.75,4,Long
2025-09-21,90509.5,3563.25,94072.75,4,Long
2025-09-22,90509.5,4148.25,94657.75,4,Long
2025-09-23,90509.5,3521.25,94030.75,4,Long
2025-09-24,90509.5,3181.25,93690.75,4,Long
2025-09-25,90509.5,2625.25,93134.75,4,Long
2025-09-26,90509.5,3068.25,93577.75,4,Long
2025-09-28,90509.5,3247.25,93756.75,4,Long
2025-09-29,90509.5,3454.25,93963.75,4,Long
2025-09-30,90509.5,3479.25,93988.75,4,Long
2025-10-01,90509.5,4248.25,94757.75,4,Long
2025-10-02,90509.5,4655.25,95164.75,4,Long
2025-10-03,90509.5,4047.0,94556.5,5,Long
2025-10-05,90509.5,4473.25,94982.75,5,Long
2025-10-06,90509.5,4849.5,95359.0,5,Long
2025-10-07,90509.5,4307.0,94816.5,5,Long
2025-10-08,90509.5,6034.5,96544.0,5,Long
2025-10-09,90509.5,5814.5,96324.0,5,Long
2025-10-10,96326.5,0.0,96326.5,0,
2025-10-12,96326.5,0.0,96326.5,0,
2025-10-13,96326.5,0.0,96326.5,0,
2025-10-14,96326.5,0.0,96326.5,0,
2025-10-15,96326.5,0.0,96326.5,0,
2025-10-16,96326.5,0.0,96326.5,0,
2025-10-17,96326.5,0.0,96326.5,0,
2025-10-19,96326.5,0.0,96326.5,0,
2025-10-20,96326.5,0.0,96326.5,0,
2025-10-21,96326.5,0.0,96326.5,0,
2025-10-22,96326.5,0.0,96326.5,0,
2025-10-23,96326.5,0.0,96326.5,0,
2025-10-24,96326.5,0.0,96326.5,0,
2025-10-26,96326.5,0.0,96326.5,0,
2025-10-27,96326.5,277.75,96604.25,1,Long
2025-10-28,96326.5,467.0,96793.5,1,Long
2025-10-29,96326.5,518.75,96845.25,1,Long
2025-10-30,96326.5,453.5,96780.0,1,Long
2025-10-31,96326.5,266.75,96593.25,1,Long
2025-11-02,96326.5,363.75,96690.25,1,Long
2025-11-03,96326.5,352.0,96678.5,1,Long
2025-11-04,96326.5,-213.25,96113.25,1,Long
2025-11-05,96326.5,56.0,96382.5,1,Long
2025-11-06,96326.5,-400.25,95926.25,1,Long
2025-11-07,96326.5,-489.75,95836.75,1,Long
2025-11-09,96326.5,-381.0,95945.5,1,Long
2025-11-10,96326.5,25.75,96352.25,1,Long
2025-11-11,96326.5,-66.75,96259.75,1,Long
2025-11-12,96326.5,-176.5,96150.0,1,Long
2025-11-13,96150.75,0.0,96150.75,0,
2025-11-14,96150.75,0.0,96150.75,0,
2025-11-16,96150.75,0.0,96150.75,0,
2025-11-17,96150.75,0.0,96150.75,0,
2025-11-18,96150.75,0.0,96150.75,0,
2025-11-19,96150.75,0.0,96150.75,0,
2025-11-20,96150.75,0.0,96150.75,0,
2025-11-21,96150.75,0.0,96150.75,0,
2025-11-23,96150.75,0.0,96150.75,0,
2025-11-24,96150.75,0.0,96150.75,0,
2025-11-25,96150.75,0.0,96150.75,0,
2025-11-26,96150.75,0.0,96150.75,0,
2025-11-27,96150.75,0.0,96150.75,0,
2025-11-28,96150.75,0.0,96150.75,0,
2025-11-30,96150.75,0.0,96150.75,0,
2025-12-01,96150.75,0.0,96150.75,0,
2025-12-02,96150.75,0.0,96150.75,0,
2025-12-03,96150.75,0.0,96150.75,0,
2025-12-04,96150.75,0.0,96150.75,0,
2025-12-05,96150.75,0.0,96150.75,0,
2025-12-07,96150.75,0.0,96150.75,0,
2025-12-08,96150.75,0.0,96150.75,0,
2025-12-09,96150.75,0.0,96150.75,0,
2025-12-10,96150.75,0.0,96150.75,0,
2025-12-11,96150.75,0.0,96150.75,0,
2025-12-12,96150.75,0.0,96150.75,0,
2025-12-14,96150.75,0.0,96150.75,0,
2025-12-15,96150.75,0.0,96150.75,0,
2025-12-16,96150.75,0.0,96150.75,0,
2025-12-17,96150.75,0.0,96150.75,0,
2025-12-18,96150.75,0.0,96150.75,0,
2025-12-19,96150.75,0.0,96150.75,0,
2025-12-21,96150.75,0.0,96150.75,0,
2025-12-22,96150.75,0.0,96150.75,0,
2025-12-23,96150.75,0.0,96150.75,0,
2025-12-24,96150.75,0.0,96150.75,0,
2025-12-25,96150.75,17.25,96168.0,1,Long
2025-12-26,96150.75,-13.0,96137.75,1,Long
2025-12-28,96150.75,0.0,96150.75,1,Long
2025-12-29,96150.75,-163.0,95987.75,1,Long
2025-12-30,96150.75,-213.25,95937.5,1,Long
2025-12-31,96150.75,-435.5,95715.25,1,Long
2026-01-01,96150.75,-373.0,95777.75,1,Long
2026-01-02,96150.75,-462.0,95688.75,2,Long
2026-01-04,96150.75,-334.0,95816.75,2,Long
2026-01-05,96150.75,-117.5,96033.25,2,Long
2026-01-06,96150.75,400.5,96551.25,2,Long
2026-01-07,96150.75,397.5,96548.25,2,Long
2026-01-08,96150.75,102.0,96252.75,2,Long
2026-01-09,96150.75,613.5,96764.25,2,Long
2026-01-11,96150.75,538.5,96689.25,2,Long
2026-01-12,96150.75,542.0,96692.75,2,Long
2026-01-13,96150.75,532.5,96683.25,2,Long
2026-01-14,96150.75,-38.5,96112.25,2,Long
2026-01-15,96150.75,233.5,96384.25,2,Long
2026-01-16,96150.75,93.0,96243.75,3,Long
2026-01-18,96150.75,-551.25,95599.5,3,Long
2026-01-19,96150.75,-816.75,95334.0,3,Long
2026-01-20,95335.5,0.0,95335.5,0,
2026-01-21,95335.5,0.0,95335.5,0,
2026-01-22,95335.5,0.0,95335.5,0,
2026-01-23,95335.5,0.0,95335.5,0,
2026-01-25,95335.5,0.0,95335.5,0,
2026-01-26,95335.5,0.0,95335.5,0,
2026-01-27,95335.5,0.0,95335.5,0,
2026-01-28,95335.5,32.0,95367.5,1,Long
2026-01-29,95335.5,-166.0,95169.5,1,Long
2026-01-30,95335.5,-499.25,94836.25,1,Long
2026-02-01,95335.5,-604.5,94731.0,1,Long
2026-02-02,95335.5,-190.0,95145.5,1,Long
2026-02-03,95335.5,-710.25,94625.25,1,Long
2026-02-04,94624.75,0.0,94624.75,0,
2026-02-05,94624.75,0.0,94624.75,0,
2026-02-06,94624.75,0.0,94624.75,0,
2026-02-08,94624.75,0.0,94624.75,0,
2026-02-09,94624.75,0.0,94624.75,0,
2026-02-10,94624.75,0.0,94624.75,0,
2026-02-11,94624.75,0.0,94624.75,0,
2026-02-12,94624.75,0.0,94624.75,0,
2026-02-13,94624.75,0.0,94624.75,0,
2026-02-15,94624.75,0.0,94624.75,0,
2026-02-16,94624.75,0.0,94624.75,0,
2026-02-17,94624.75,0.0,94624.75,0,
2026-02-18,94624.75,0.0,94624.75,0,
2026-02-19,94624.75,0.0,94624.75,0,
2026-02-20,94624.75,0.0,94624.75,0,
2026-02-22,94624.75,0.0,94624.75,0,
2026-02-23,94624.75,0.0,94624.75,0,
2026-02-24,94624.75,0.0,94624.75,0,
2026-02-25,94624.75,0.0,94624.75,0,
2026-02-26,94624.75,0.0,94624.75,0,
2026-02-27,94624.75,0.0,94624.75,0,
2026-03-01,94624.75,0.0,94624.75,0,
2026-03-02,94624.75,0.0,94624.75,0,
2026-03-03,94624.75,0.0,94624.75,0,
2026-03-04,94624.75,0.0,94624.75,0,
2026-03-05,94624.75,0.0,94624.75,0,
2026-03-06,94624.75,0.0,94624.75,0,
2026-03-08,94624.75,0.0,94624.75,0,
