date,realized_points,open_unrealized_points,total_equity_points,open_units,direction
2019-05-05,0.0,0.0,0.0,0,
2019-05-06,0.0,0.0,0.0,0,
2019-05-07,0.0,0.0,0.0,0,
2019-05-08,0.0,0.0,0.0,0,
2019-05-09,0.0,0.0,0.0,0,
2019-05-10,0.0,0.0,0.0,0,
2019-05-12,0.0,0.0,0.0,0,
2019-05-13,0.0,0.0,0.0,0,
2019-05-14,0.0,0.0,0.0,0,
2019-05-15,0.0,0.0,0.0,0,
2019-05-16,0.0,0.0,0.0,0,
2019-05-17,0.0,0.0,0.0,0,
2019-05-19,0.0,0.0,0.0,0,
2019-05-20,0.0,0.0,0.0,0,
2019-05-21,0.0,0.0,0.0,0,
2019-05-22,0.0,0.0,0.0,0,
2019-05-23,0.0,0.0,0.0,0,
2019-05-24,0.0,0.0,0.0,0,
2019-05-26,0.0,0.0,0.0,0,
2019-05-27,0.0,0.0,0.0,0,
2019-05-28,0.0,0.0,0.0,0,
2019-05-29,0.0,0.0,0.0,0,
2019-05-30,0.0,0.0,0.0,0,
2019-05-31,0.0,0.0,0.0,0,
2019-06-02,0.0,0.0,0.0,0,
2019-06-03,0.0,0.0,0.0,0,
2019-06-04,0.0,0.0,0.0,0,
2019-06-05,0.0,0.0,0.0,0,
2019-06-06,0.0,0.0,0.0,0,
2019-06-07,0.0,0.0,0.0,0,
2019-06-09,0.0,0.0,0.0,0,
2019-06-10,0.0,0.0,0.0,0,
2019-06-11,0.0,0.0,0.0,0,
2019-06-12,0.0,0.0,0.0,0,
2019-06-13,0.0,0.0,0.0,0,
2019-06-14,0.0,0.0,0.0,0,
2019-06-16,0.0,0.0,0.0,0,
2019-06-17,0.0,0.0,0.0,0,
2019-06-18,0.0,0.0,0.0,0,
2019-06-19,0.0,0.0,0.0,0,
2019-06-20,0.0,0.0,0.0,0,
2019-06-21,0.0,0.0,0.0,0,
2019-06-23,0.0,0.0,0.0,0,
2019-06-24,0.0,0.0,0.0,0,
2019-06-25,0.0,0.0,0.0,0,
2019-06-26,0.0,0.0,0.0,0,
2019-06-27,0.0,0.0,0.0,0,
2019-06-28,0.0,0.0,0.0,0,
2019-06-30,0.0,0.0,0.0,0,
2019-07-01,0.0,0.0,0.0,0,
2019-07-02,0.0,0.0,0.0,0,
2019-07-03,0.0,0.0,0.0,0,
2019-07-04,0.0,0.0,0.0,0,
2019-07-05,0.0,0.0,0.0,0,
2019-07-07,0.0,0.0,0.0,0,
2019-07-08,0.0,0.0,0.0,0,
2019-07-09,0.0,0.0,0.0,0,
2019-07-10,0.0,0.0,0.0,0,
2019-07-11,0.0,0.0,0.0,0,
2019-07-12,0.0,0.0,0.0,0,
2019-07-14,0.0,0.0,0.0,0,
2019-07-15,0.0,0.0,0.0,0,
2019-07-16,0.0,0.0,0.0,0,
2019-07-17,0.0,0.0,0.0,0,
2019-07-18,0.0,0.0,0.0,0,
2019-07-19,0.0,0.0,0.0,0,
2019-07-21,0.0,0.0,0.0,0,
2019-07-22,0.0,0.0,0.0,0,
2019-07-23,0.0,0.0,0.0,0,
2019-07-24,0.0,0.0,0.0,0,
2019-07-25,0.0,0.0,0.0,0,
2019-07-26,0.0,0.0,0.0,0,
2019-07-28,0.0,0.0,0.0,0,
2019-07-29,0.0,0.0,0.0,0,
2019-07-30,0.0,0.0,0.0,0,
2019-07-31,0.0,0.0,0.0,0,
2019-08-01,0.0,0.0,0.0,0,
2019-08-02,0.0,0.0,0.0,0,
2019-08-04,0.0,0.0,0.0,0,
2019-08-05,0.0,0.0,0.0,0,
2019-08-06,0.0,0.0,0.0,0,
2019-08-07,0.0,0.0,0.0,0,
2019-08-08,0.0,0.0,0.0,0,
2019-08-09,0.0,0.0,0.0,0,
2019-08-11,0.0,0.0,0.0,0,
2019-08-12,0.0,0.0,0.0,0,
2019-08-13,0.0,0.0,0.0,0,
2019-08-14,0.0,0.0,0.0,0,
2019-08-15,0.0,0.0,0.0,0,
2019-08-16,0.0,0.0,0.0,0,
2019-08-18,0.0,0.0,0.0,0,
2019-08-19,0.0,0.0,0.0,0,
2019-08-20,0.0,0.0,0.0,0,
2019-08-21,0.0,0.0,0.0,0,
2019-08-22,0.0,0.0,0.0,0,
2019-08-23,0.0,0.0,0.0,0,
2019-08-25,0.0,0.0,0.0,0,
2019-08-26,0.0,0.0,0.0,0,
2019-08-27,0.0,0.0,0.0,0,
2019-08-28,0.0,0.0,0.0,0,
2019-08-29,0.0,0.0,0.0,0,
2019-08-30,0.0,0.0,0.0,0,
2019-09-01,0.0,0.0,0.0,0,
2019-09-02,0.0,0.0,0.0,0,
2019-09-03,0.0,0.0,0.0,0,
2019-09-04,0.0,0.0,0.0,0,
2019-09-05,0.0,0.0,0.0,0,
2019-09-06,0.0,0.0,0.0,0,
2019-09-08,0.0,0.0,0.0,0,
2019-09-09,0.0,0.0,0.0,0,
2019-09-10,0.0,0.0,0.0,0,
2019-09-11,0.0,0.0,0.0,0,
2019-09-12,0.0,0.0,0.0,0,
2019-09-13,0.0,0.0,0.0,0,
2019-09-15,0.0,0.0,0.0,0,
2019-09-16,0.0,0.0,0.0,0,
2019-09-17,0.0,0.0,0.0,0,
2019-09-18,0.0,0.0,0.0,0,
2019-09-19,0.0,0.0,0.0,0,
2019-09-20,0.0,0.0,0.0,0,
2019-09-22,0.0,0.0,0.0,0,
2019-09-23,0.0,0.0,0.0,0,
2019-09-24,0.0,0.0,0.0,0,
2019-09-25,0.0,0.0,0.0,0,
2019-09-26,0.0,0.0,0.0,0,
2019-09-27,0.0,0.0,0.0,0,
2019-09-29,0.0,0.0,0.0,0,
2019-09-30,0.0,0.0,0.0,0,
2019-10-01,0.0,0.0,0.0,0,
2019-10-02,0.0,0.0,0.0,0,
2019-10-03,0.0,0.0,0.0,0,
2019-10-04,0.0,0.0,0.0,0,
2019-10-06,0.0,0.0,0.0,0,
2019-10-07,0.0,0.0,0.0,0,
2019-10-08,0.0,0.0,0.0,0,
2019-10-09,0.0,0.0,0.0,0,
2019-10-10,0.0,0.0,0.0,0,
2019-10-11,0.0,0.0,0.0,0,
2019-10-13,0.0,0.0,0.0,0,
2019-10-14,0.0,0.0,0.0,0,
2019-10-15,0.0,0.0,0.0,0,
2019-10-16,0.0,0.0,0.0,0,
2019-10-17,0.0,0.0,0.0,0,
2019-10-18,0.0,0.0,0.0,0,
2019-10-20,0.0,0.0,0.0,0,
2019-10-21,0.0,0.0,0.0,0,
2019-10-22,0.0,0.0,0.0,0,
2019-10-23,0.0,0.0,0.0,0,
2019-10-24,0.0,0.0,0.0,0,
2019-10-25,0.0,0.0,0.0,0,
2019-10-27,0.0,0.0,0.0,0,
2019-10-28,0.0,0.0,0.0,0,
2019-10-29,0.0,0.0,0.0,0,
2019-10-30,0.0,0.0,0.0,0,
2019-10-31,0.0,0.0,0.0,0,
2019-11-01,0.0,0.0,0.0,0,
2019-11-03,0.0,0.0,0.0,0,
2019-11-04,0.0,0.0,0.0,0,
2019-11-05,0.0,0.0,0.0,0,
2019-11-06,0.0,0.0,0.0,0,
2019-11-07,0.0,0.0,0.0,0,
2019-11-08,0.0,0.0,0.0,0,
2019-11-10,0.0,0.0,0.0,0,
2019-11-11,0.0,0.0,0.0,0,
2019-11-12,0.0,0.0,0.0,0,
2019-11-13,0.0,0.0,0.0,0,
2019-11-14,0.0,0.0,0.0,0,
2019-11-15,0.0,0.0,0.0,0,
2019-11-17,0.0,0.0,0.0,0,
2019-11-18,0.0,0.0,0.0,0,
2019-11-19,0.0,0.0,0.0,0,
2019-11-20,0.0,0.0,0.0,0,
2019-11-21,0.0,0.0,0.0,0,
2019-11-22,0.0,0.0,0.0,0,
2019-11-24,0.0,0.0,0.0,0,
2019-11-25,0.0,0.0,0.0,0,
2019-11-26,0.0,0.0,0.0,0,
2019-11-27,0.0,0.0,0.0,0,
2019-11-28,0.0,0.0,0.0,0,
2019-11-29,0.0,0.0,0.0,0,
2019-12-01,0.0,0.0,0.0,0,
2019-12-02,0.0,0.0,0.0,0,
2019-12-03,0.0,0.0,0.0,0,
2019-12-04,0.0,0.0,0.0,0,
2019-12-05,0.0,0.0,0.0,0,
2019-12-06,0.0,0.0,0.0,0,
2019-12-08,0.0,0.0,0.0,0,
2019-12-09,0.0,0.0,0.0,0,
2019-12-10,0.0,0.0,0.0,0,
2019-12-11,0.0,0.0,0.0,0,
2019-12-12,0.0,0.0,0.0,0,
2019-12-13,0.0,0.0,0.0,0,
2019-12-15,0.0,0.0,0.0,0,
2019-12-16,0.0,0.0,0.0,0,
2019-12-17,0.0,0.0,0.0,0,
2019-12-18,0.0,0.0,0.0,0,
2019-12-19,0.0,0.0,0.0,0,
2019-12-20,0.0,0.0,0.0,0,
2019-12-22,0.0,0.0,0.0,0,
2019-12-23,0.0,0.0,0.0,0,
2019-12-24,0.0,0.0,0.0,0,
2019-12-25,0.0,0.0,0.0,0,
2019-12-26,0.0,0.0,0.0,0,
2019-12-27,0.0,0.0,0.0,0,
2019-12-29,0.0,0.0,0.0,0,
2019-12-30,0.0,0.0,0.0,0,
2019-12-31,0.0,0.0,0.0,0,
2020-01-01,0.0,0.0,0.0,0,
2020-01-02,0.0,0.0,0.0,0,
2020-01-03,0.0,0.0,0.0,0,
2020-01-05,0.0,0.0,0.0,0,
2020-01-06,0.0,0.0,0.0,0,
2020-01-07,0.0,0.0,0.0,0,
2020-01-08,0.0,0.0,0.0,0,
2020-01-09,0.0,0.0,0.0,0,
2020-01-10,0.0,0.0,0.0,0,
2020-01-12,0.0,0.0,0.0,0,
2020-01-13,0.0,0.0,0.0,0,
2020-01-14,0.0,0.0,0.0,0,
2020-01-15,0.0,0.0,0.0,0,
2020-01-16,0.0,0.0,0.0,0,
2020-01-17,0.0,0.0,0.0,0,
2020-01-19,0.0,0.0,0.0,0,
2020-01-20,0.0,0.0,0.0,0,
2020-01-21,0.0,0.0,0.0,0,
2020-01-22,0.0,0.0,0.0,0,
2020-01-23,0.0,0.0,0.0,0,
2020-01-24,0.0,0.0,0.0,0,
2020-01-26,0.0,0.0,0.0,0,
2020-01-27,0.0,0.0,0.0,0,
2020-01-28,0.0,0.0,0.0,0,
2020-01-29,0.0,0.0,0.0,0,
2020-01-30,0.0,0.0,0.0,0,
2020-01-31,0.0,0.0,0.0,0,
2020-02-02,0.0,0.0,0.0,0,
2020-02-03,0.0,0.0,0.0,0,
2020-02-04,0.0,0.0,0.0,0,
2020-02-05,0.0,0.0,0.0,0,
2020-02-06,0.0,0.0,0.0,0,
2020-02-07,0.0,0.0,0.0,0,
2020-02-09,0.0,0.0,0.0,0,
2020-02-10,0.0,0.0,0.0,0,
2020-02-11,0.0,0.0,0.0,0,
2020-02-12,0.0,0.0,0.0,0,
2020-02-13,0.0,0.0,0.0,0,
2020-02-14,0.0,0.0,0.0,0,
2020-02-16,0.0,0.0,0.0,0,
2020-02-17,0.0,0.0,0.0,0,
2020-02-18,0.0,0.0,0.0,0,
2020-02-19,0.0,0.0,0.0,0,
2020-02-20,0.0,0.0,0.0,0,
2020-02-21,0.0,0.0,0.0,0,
2020-02-23,0.0,0.0,0.0,0,
2020-02-24,0.0,0.0,0.0,0,
2020-02-25,0.0,0.0,0.0,0,
2020-02-26,0.0,0.0,0.0,0,
2020-02-27,0.0,0.0,0.0,0,
2020-03-01,0.0,0.0,0.0,0,
2020-03-02,0.0,0.0,0.0,0,
2020-03-03,0.0,0.0,0.0,0,
2020-03-04,0.0,0.0,0.0,0,
2020-03-05,0.0,0.0,0.0,0,
2020-03-06,0.0,0.0,0.0,0,
2020-03-08,0.0,0.0,0.0,0,
2020-03-09,0.0,0.0,0.0,0,
2020-03-10,0.0,0.0,0.0,0,
2020-03-11,0.0,0.0,0.0,0,
2020-03-12,0.0,0.0,0.0,0,
2020-03-13,0.0,0.0,0.0,0,
2020-03-15,0.0,0.0,0.0,0,
2020-03-16,0.0,0.0,0.0,0,
2020-03-17,0.0,0.0,0.0,0,
2020-03-18,0.0,0.0,0.0,0,
2020-03-19,0.0,0.0,0.0,0,
2020-03-20,0.0,0.0,0.0,0,
2020-03-22,0.0,0.0,0.0,0,
2020-03-23,0.0,0.0,0.0,0,
2020-03-24,0.0,0.0,0.0,0,
2020-03-25,0.0,0.0,0.0,0,
2020-03-26,0.0,0.0,0.0,0,
2020-03-27,0.0,0.0,0.0,0,
2020-03-29,0.0,0.0,0.0,0,
2020-03-30,0.0,0.0,0.0,0,
2020-03-31,0.0,0.0,0.0,0,
2020-04-01,0.0,0.0,0.0,0,
2020-04-02,0.0,0.0,0.0,0,
2020-04-03,0.0,0.0,0.0,0,
2020-04-05,0.0,0.0,0.0,0,
2020-04-06,0.0,0.0,0.0,0,
2020-04-07,0.0,0.0,0.0,0,
2020-04-08,0.0,0.0,0.0,0,
2020-04-09,0.0,0.0,0.0,0,
2020-04-12,0.0,0.0,0.0,0,
2020-04-13,0.0,0.0,0.0,0,
2020-04-14,0.0,0.0,0.0,0,
2020-04-15,0.0,0.0,0.0,0,
2020-04-16,0.0,0.0,0.0,0,
2020-04-17,0.0,0.0,0.0,0,
2020-04-19,0.0,0.0,0.0,0,
2020-04-20,0.0,0.0,0.0,0,
2020-04-21,0.0,0.0,0.0,0,
2020-04-22,0.0,0.0,0.0,0,
2020-04-23,0.0,0.0,0.0,0,
2020-04-24,0.0,0.0,0.0,0,
2020-04-26,0.0,0.0,0.0,0,
2020-04-27,0.0,0.0,0.0,0,
2020-04-28,0.0,0.0,0.0,0,
2020-04-29,0.0,0.0,0.0,0,
2020-04-30,0.0,0.0,0.0,0,
2020-05-01,0.0,0.0,0.0,0,
2020-05-03,0.0,0.0,0.0,0,
2020-05-04,0.0,0.0,0.0,0,
2020-05-05,0.0,0.0,0.0,0,
2020-05-06,0.0,0.0,0.0,0,
2020-05-07,0.0,0.0,0.0,0,
2020-05-08,0.0,0.0,0.0,0,
2020-05-10,0.0,0.0,0.0,0,
2020-05-11,0.0,0.0,0.0,0,
2020-05-12,0.0,0.0,0.0,0,
2020-05-13,0.0,0.0,0.0,0,
2020-05-14,0.0,0.0,0.0,0,
2020-05-15,0.0,0.0,0.0,0,
2020-05-17,0.0,0.0,0.0,0,
2020-05-18,0.0,0.0,0.0,0,
2020-05-19,0.0,0.0,0.0,0,
2020-05-20,0.0,0.0,0.0,0,
2020-05-21,0.0,0.0,0.0,0,
2020-05-22,0.0,0.0,0.0,0,
2020-05-24,0.0,0.0,0.0,0,
2020-05-25,0.0,0.0,0.0,0,
2020-05-26,0.0,0.0,0.0,0,
2020-05-27,0.0,0.0,0.0,0,
2020-05-28,0.0,0.0,0.0,0,
2020-05-29,0.0,0.0,0.0,0,
2020-05-31,0.0,87.0,87.0,3,Long
2020-06-01,0.0,96.0,96.0,3,Long
2020-06-02,0.0,1434.0,1434.0,3,Long
2020-06-03,0.0,2625.0,2625.0,3,Long
2020-06-04,0.0,3231.0,3231.0,3,Long
2020-06-05,0.0,5205.0,5205.0,3,Long
2020-06-07,0.0,5433.0,5433.0,3,Long
2020-06-08,0.0,6594.0,6594.0,3,Long
2020-06-09,0.0,6303.0,6303.0,3,Long
2020-06-10,0.0,3927.0,3927.0,3,Long
2020-06-11,0.0,483.0,483.0,3,Long
2020-06-12,0.0,231.0,231.0,4,Long
2020-06-14,0.0,-1253.0,-1253.0,4,Long
2020-06-15,-1241.0,0.0,-1241.0,0,
2020-06-16,-1241.0,-348.0,-1589.0,3,Long
2020-06-17,-1241.0,-1026.0,-2267.0,3,Long
2020-06-18,-1241.0,-561.0,-1802.0,3,Long
2020-06-19,-1241.0,-1968.0,-3209.0,3,Long
2020-06-21,-1241.0,-1395.0,-2636.0,3,Long
2020-06-22,-1241.0,-639.0,-1880.0,3,Long
2020-06-23,-1241.0,-411.0,-1652.0,3,Long
2020-06-24,-1241.0,-2730.0,-3971.0,3,Long
2020-06-25,-3959.0,0.0,-3959.0,0,
2020-06-26,-3959.0,-1938.0,-5897.0,3,Long
2020-06-28,-6260.0,0.0,-6260.0,0,
2020-06-29,-6260.0,0.0,-6260.0,0,
2020-06-30,-6260.0,222.0,-6038.0,3,Long
2020-07-01,-6260.0,198.0,-6062.0,3,Long
2020-07-02,-6260.0,570.0,-5690.0,3,Long
2020-07-03,-6260.0,228.0,-6032.0,3,Long
2020-07-05,-6260.0,1689.0,-4571.0,3,Long
2020-07-06,-6260.0,1665.0,-4595.0,3,Long
2020-07-07,-6260.0,846.0,-5414.0,3,Long
2020-07-08,-6260.0,1272.0,-4988.0,3,Long
2020-07-09,-6260.0,-48.0,-6308.0,3,Long
2020-07-10,-6260.0,1289.0,-4971.0,4,Long
2020-07-12,-6260.0,1893.0,-4367.0,4,Long
2020-07-13,-6260.0,1369.0,-4891.0,4,Long
2020-07-14,-6260.0,4485.0,-1775.0,4,Long
2020-07-15,-6260.0,4053.0,-2207.0,4,Long
2020-07-16,-6260.0,3809.0,-2451.0,4,Long
2020-07-17,-6260.0,3501.0,-2759.0,4,Long
2020-07-19,-6260.0,3173.0,-3087.0,4,Long
2020-07-20,-6260.0,3941.0,-2319.0,4,Long
2020-07-21,-6260.0,4769.0,-1491.0,4,Long
2020-07-22,-6260.0,4905.0,-1355.0,4,Long
2020-07-23,-6260.0,3153.0,-3107.0,4,Long
2020-07-24,-6260.0,2700.0,-3560.0,5,Long
2020-07-26,-6260.0,3315.0,-2945.0,5,Long
2020-07-27,-6260.0,3510.0,-2750.0,5,Long
2020-07-28,-6260.0,2255.0,-4005.0,5,Long
2020-07-29,-6260.0,3085.0,-3175.0,5,Long
2020-07-30,-6260.0,2535.0,-3725.0,5,Long
2020-07-31,-6260.0,2935.0,-3325.0,5,Long
2020-08-02,-6260.0,2260.0,-4000.0,5,Long
2020-08-03,-6260.0,3825.0,-2435.0,5,Long
2020-08-04,-6260.0,4855.0,-1405.0,5,Long
2020-08-05,-6260.0,6495.0,235.0,5,Long
2020-08-06,-6260.0,6800.0,540.0,5,Long
2020-08-07,-6260.0,7820.0,1560.0,6,Long
2020-08-09,-6260.0,8132.0,1872.0,6,Long
2020-08-10,-6260.0,10364.0,4104.0,6,Long
2020-08-11,-6260.0,9704.0,3444.0,6,Long
2020-08-12,-6260.0,10904.0,4644.0,6,Long
2020-08-13,-6260.0,10802.0,4542.0,6,Long
2020-08-14,-6260.0,10502.0,4242.0,6,Long
2020-08-16,-6260.0,11108.0,4848.0,6,Long
2020-08-17,-6260.0,10280.0,4020.0,6,Long
2020-08-18,-6260.0,10214.0,3954.0,6,Long
2020-08-19,-6260.0,8570.0,2310.0,6,Long
2020-08-20,-6260.0,10136.0,3876.0,6,Long
2020-08-21,-6260.0,10844.0,4584.0,7,Long
2020-08-23,-6260.0,11327.0,5067.0,7,Long
2020-08-24,-6260.0,14589.0,8329.0,7,Long
2020-08-25,-6260.0,12944.0,6684.0,7,Long
2020-08-26,-6260.0,13651.0,7391.0,7,Long
2020-08-27,-6260.0,16605.0,10345.0,7,Long
2020-08-28,-6260.0,16164.0,9904.0,7,Long
2020-08-30,-6260.0,17179.0,10919.0,7,Long
2020-08-31,-6260.0,14855.0,8595.0,7,Long
2020-09-01,-6260.0,16647.0,10387.0,7,Long
2020-09-02,-6260.0,19433.0,13173.0,7,Long
2020-09-03,-6260.0,13616.0,7356.0,7,Long
2020-09-04,-6260.0,12188.0,5928.0,8,Long
2020-09-06,-6260.0,12756.0,6496.0,8,Long
2020-09-07,-6260.0,13868.0,7608.0,8,Long
2020-09-08,-6260.0,7796.0,1536.0,8,Long
2020-09-09,-6260.0,10844.0,4584.0,8,Long
2020-09-10,-6260.0,9228.0,2968.0,8,Long
2020-09-11,-6260.0,7900.0,1640.0,8,Long
2020-09-13,-6260.0,10036.0,3776.0,8,Long
2020-09-14,-6260.0,11060.0,4800.0,8,Long
2020-09-15,-6260.0,11428.0,5168.0,8,Long
2020-09-16,-6260.0,9252.0,2992.0,8,Long
2020-09-17,-6260.0,9628.0,3368.0,8,Long
2020-09-18,-6260.0,8563.0,2303.0,9,Long
2020-09-20,-6260.0,7951.0,1691.0,9,Long
2020-09-21,-6260.0,3361.0,-2899.0,9,Long
2020-09-22,-6260.0,5233.0,-1027.0,9,Long
2020-09-23,-6260.0,148.0,-6112.0,9,Long
2020-09-24,-6260.0,1588.0,-4672.0,9,Long
2020-09-25,-6260.0,3388.0,-2872.0,9,Long
2020-09-27,-6260.0,4675.0,-1585.0,9,Long
2020-09-28,-6260.0,8122.0,1862.0,9,Long
2020-09-29,-6260.0,5359.0,-901.0,9,Long
2020-09-30,-6260.0,10696.0,4436.0,9,Long
2020-10-01,-6260.0,8851.0,2591.0,9,Long
2020-10-02,-6260.0,8775.0,2515.0,10,Long
2020-10-04,-6260.0,9755.0,3495.0,10,Long
2020-10-05,-6260.0,13005.0,6745.0,10,Long
2020-10-06,-6260.0,9625.0,3365.0,10,Long
2020-10-07,-6260.0,15175.0,8915.0,10,Long
2020-10-08,-6260.0,17025.0,10765.0,10,Long
2020-10-09,-6260.0,18075.0,11815.0,10,Long
2020-10-11,-6260.0,17705.0,11445.0,10,Long
2020-10-12,-6260.0,19505.0,13245.0,10,Long
2020-10-13,-6260.0,19115.0,12855.0,10,Long
2020-10-14,-6260.0,15585.0,9325.0,10,Long
2020-10-15,-6260.0,16375.0,10115.0,10,Long
2020-10-16,-6260.0,16775.0,10515.0,10,Long
2020-10-18,-6260.0,18215.0,11955.0,10,Long
2020-10-19,-6260.0,14515.0,8255.0,10,Long
2020-10-20,-6260.0,15965.0,9705.0,10,Long
2020-10-21,-6260.0,11705.0,5445.0,10,Long
2020-10-22,-6260.0,15375.0,9115.0,10,Long
2020-10-23,-6260.0,14545.0,8285.0,10,Long
2020-10-25,-6260.0,12865.0,6605.0,10,Long
2020-10-26,-6260.0,8615.0,2355.0,10,Long
2020-10-27,-6260.0,4565.0,-1695.0,10,Long
2020-10-28,-6260.0,-705.0,-6965.0,10,Long
2020-10-29,-6260.0,-3845.0,-10105.0,10,Long
2020-10-30,-6260.0,-2285.0,-8545.0,10,Long
2020-11-01,-6260.0,-3335.0,-9595.0,10,Long
2020-11-02,-6260.0,1915.0,-4345.0,10,Long
2020-11-03,-6260.0,6925.0,665.0,10,Long
2020-11-04,-6260.0,11855.0,5595.0,10,Long
2020-11-05,-6260.0,13805.0,7545.0,10,Long
2020-11-06,-6260.0,15285.0,9025.0,10,Long
2020-11-08,-6260.0,18365.0,12105.0,10,Long
2020-11-09,-6260.0,20725.0,14465.0,10,Long
2020-11-10,-6260.0,26365.0,20105.0,10,Long
2020-11-11,-6260.0,23185.0,16925.0,10,Long
2020-11-12,-6260.0,22225.0,15965.0,10,Long
2020-11-13,-6260.0,26625.0,20365.0,10,Long
2020-11-15,-6260.0,28985.0,22725.0,10,Long
2020-11-16,-6260.0,30315.0,24055.0,10,Long
2020-11-17,-6260.0,29185.0,22925.0,10,Long
2020-11-18,-6260.0,26165.0,19905.0,10,Long
2020-11-19,-6260.0,25085.0,18825.0,10,Long
2020-11-20,-6260.0,24235.0,17975.0,10,Long
2020-11-22,-6260.0,25465.0,19205.0,10,Long
2020-11-23,-6260.0,30705.0,24445.0,10,Long
2020-11-24,-6260.0,32945.0,26685.0,10,Long
2020-11-25,-6260.0,30935.0,24675.0,10,Long
2020-11-26,-6260.0,30445.0,24185.0,10,Long
2020-11-27,-6260.0,31385.0,25125.0,10,Long
2020-11-29,-6260.0,29295.0,23035.0,10,Long
2020-11-30,-6260.0,31125.0,24865.0,10,Long
2020-12-01,-6260.0,29395.0,23135.0,10,Long
2020-12-02,-6260.0,30775.0,24515.0,10,Long
2020-12-03,-6260.0,32365.0,26105.0,10,Long
2020-12-04,-6260.0,33965.0,27705.0,10,Long
2020-12-06,-6260.0,33875.0,27615.0,10,Long
2020-12-07,-6260.0,32395.0,26135.0,10,Long
2020-12-08,-6260.0,35175.0,28915.0,10,Long
2020-12-09,-6260.0,33385.0,27125.0,10,Long
2020-12-10,-6260.0,32545.0,26285.0,10,Long
2020-12-11,-6260.0,32005.0,25745.0,10,Long
2020-12-13,-6260.0,33695.0,27435.0,10,Long
2020-12-14,-6260.0,30345.0,24085.0,10,Long
2020-12-15,-6260.0,33365.0,27105.0,10,Long
2020-12-16,-6260.0,33955.0,27695.0,10,Long
2020-12-17,-6260.0,33605.0,27345.0,10,Long
2020-12-18,-6260.0,35255.0,28995.0,10,Long
2020-12-20,-6260.0,33735.0,27475.0,10,Long
2020-12-21,-6260.0,32405.0,26145.0,10,Long
2020-12-22,-6260.0,31265.0,25005.0,10,Long
2020-12-23,-6260.0,33425.0,27165.0,10,Long
2020-12-24,-6260.0,33445.0,27185.0,10,Long
2020-12-27,-6260.0,34855.0,28595.0,10,Long
2020-12-28,-6260.0,37005.0,30745.0,10,Long
2020-12-29,-6260.0,35585.0,29325.0,10,Long
2020-12-30,-6260.0,35565.0,29305.0,10,Long
2020-12-31,-6260.0,37375.0,31115.0,10,Long
2021-01-03,-6260.0,37435.0,31175.0,10,Long
2021-01-04,-6260.0,33185.0,26925.0,10,Long
2021-01-05,-6260.0,34695.0,28435.0,10,Long
2021-01-06,-6260.0,40885.0,34625.0,10,Long
2021-01-07,-6260.0,43305.0,37045.0,10,Long
2021-01-08,-6260.0,42685.0,36425.0,10,Long
2021-01-10,-6260.0,40455.0,34195.0,10,Long
2021-01-11,-6260.0,41375.0,35115.0,10,Long
2021-01-12,-6260.0,42865.0,36605.0,10,Long
2021-01-13,-6260.0,43325.0,37065.0,10,Long
2021-01-14,-6260.0,40365.0,34105.0,10,Long
2021-01-15,-6260.0,38715.0,32455.0,10,Long
2021-01-17,-6260.0,39275.0,33015.0,10,Long
2021-01-18,-6260.0,41325.0,35065.0,10,Long
2021-01-19,-6260.0,40555.0,34295.0,10,Long
2021-01-20,-6260.0,43925.0,37665.0,10,Long
2021-01-21,-6260.0,42355.0,36095.0,10,Long
2021-01-22,-6260.0,41485.0,35225.0,10,Long
2021-01-24,-6260.0,42375.0,36115.0,10,Long
2021-01-25,-6260.0,39435.0,33175.0,10,Long
2021-01-26,-6260.0,40095.0,33835.0,10,Long
2021-01-27,-6260.0,33975.0,27715.0,10,Long
2021-01-28,-6260.0,34755.0,28495.0,10,Long
2021-01-29,-6260.0,30755.0,24495.0,10,Long
2021-01-31,-6260.0,32615.0,26355.0,10,Long
2021-02-01,-6260.0,35025.0,28765.0,10,Long
2021-02-02,-6260.0,38895.0,32635.0,10,Long
2021-02-03,-6260.0,38215.0,31955.0,10,Long
2021-02-04,-6260.0,42465.0,36205.0,10,Long
2021-02-05,-6260.0,43195.0,36935.0,10,Long
2021-02-07,-6260.0,44335.0,38075.0,10,Long
2021-02-08,-6260.0,45055.0,38795.0,10,Long
2021-02-09,-6260.0,46095.0,39835.0,10,Long
2021-02-10,-6260.0,46165.0,39905.0,10,Long
2021-02-11,-6260.0,45595.0,39335.0,10,Long
2021-02-12,-6260.0,46595.0,40335.0,10,Long
2021-02-14,-6260.0,47835.0,41575.0,10,Long
2021-02-15,-6260.0,48955.0,42695.0,10,Long
2021-02-16,-6260.0,46995.0,40735.0,10,Long
2021-02-17,-6260.0,47725.0,41465.0,10,Long
2021-02-18,-6260.0,45925.0,39665.0,10,Long
2021-02-19,-6260.0,46765.0,40505.0,10,Long
2021-02-21,-6260.0,46555.0,40295.0,10,Long
2021-02-22,-6260.0,48435.0,42175.0,10,Long
2021-02-23,-6260.0,46775.0,40515.0,10,Long
2021-02-24,-6260.0,52595.0,46335.0,10,Long
2021-02-25,-6260.0,45035.0,38775.0,10,Long
2021-02-26,-6260.0,41495.0,35235.0,10,Long
2021-02-28,-6260.0,43535.0,37275.0,10,Long
2021-03-01,-6260.0,46525.0,40265.0,10,Long
2021-03-02,-6260.0,47095.0,40835.0,10,Long
2021-03-03,-6260.0,43635.0,37375.0,10,Long
2021-03-04,-6260.0,40415.0,34155.0,10,Long
2021-03-05,-6260.0,47445.0,41185.0,10,Long
2021-03-07,-6260.0,47215.0,40955.0,10,Long
2021-03-08,-6260.0,52295.0,46035.0,10,Long
2021-03-09,-6260.0,50485.0,44225.0,10,Long
2021-03-10,-6260.0,56595.0,50335.0,10,Long
2021-03-11,-6260.0,58355.0,52095.0,10,Long
2021-03-12,-6260.0,59365.0,53105.0,10,Long
2021-03-14,-6260.0,59875.0,53615.0,10,Long
2021-03-15,-6260.0,60605.0,54345.0,10,Long
2021-03-16,-6260.0,59445.0,53185.0,10,Long
2021-03-17,-6260.0,62275.0,56015.0,10,Long
2021-03-18,-6260.0,60565.0,54305.0,10,Long
2021-03-19,-6260.0,57565.0,51305.0,10,Long
2021-03-21,-6260.0,56735.0,50475.0,10,Long
2021-03-22,-6260.0,58315.0,52055.0,10,Long
2021-03-23,-6260.0,55525.0,49265.0,10,Long
2021-03-24,-6260.0,56595.0,50335.0,10,Long
2021-03-25,-6260.0,58365.0,52105.0,10,Long
2021-03-26,-6260.0,62065.0,55805.0,10,Long
2021-03-28,-6260.0,61055.0,54795.0,10,Long
2021-03-29,-6260.0,63405.0,57145.0,10,Long
2021-03-30,-6260.0,61955.0,55695.0,10,Long
2021-03-31,-6260.0,61085.0,54825.0,10,Long
2021-04-01,-6260.0,62795.0,56535.0,10,Long
2021-04-02,-6260.0,64675.0,58415.0,10,Long
2021-04-04,-6260.0,65075.0,58815.0,10,Long
2021-04-05,-6260.0,65805.0,59545.0,10,Long
2021-04-06,-6260.0,65985.0,59725.0,10,Long
2021-04-07,-6260.0,66325.0,60065.0,10,Long
2021-04-08,-6260.0,66505.0,60245.0,10,Long
2021-04-09,-6260.0,68895.0,62635.0,10,Long
2021-04-11,-6260.0,68375.0,62115.0,10,Long
2021-04-12,-6260.0,69025.0,62765.0,10,Long
2021-04-13,-6260.0,67825.0,61565.0,10,Long
2021-04-14,-6260.0,69335.0,63075.0,10,Long
2021-04-15,-6260.0,71425.0,65165.0,10,Long
2021-04-16,-6260.0,73035.0,66775.0,10,Long
2021-04-18,-6260.0,72345.0,66085.0,10,Long
2021-04-19,-6260.0,72945.0,66685.0,10,Long
2021-04-20,-6260.0,69185.0,62925.0,10,Long
2021-04-21,-6260.0,72285.0,66025.0,10,Long
2021-04-22,-6260.0,70005.0,63745.0,10,Long
2021-04-23,-6260.0,71605.0,65345.0,10,Long
2021-04-25,-6260.0,72295.0,66035.0,10,Long
2021-04-26,-6260.0,71525.0,65265.0,10,Long
2021-04-27,-6260.0,70885.0,64625.0,10,Long
2021-04-28,-6260.0,70575.0,64315.0,10,Long
2021-04-29,-6260.0,71455.0,65195.0,10,Long
2021-04-30,-6260.0,70465.0,64205.0,10,Long
2021-05-02,-6260.0,71435.0,65175.0,10,Long
2021-05-03,-6260.0,72075.0,65815.0,10,Long
2021-05-04,-6260.0,73555.0,67295.0,10,Long
2021-05-05,-6260.0,73635.0,67375.0,10,Long
2021-05-06,-6260.0,77045.0,70785.0,10,Long
2021-05-07,-6260.0,79455.0,73195.0,10,Long
2021-05-09,-6260.0,80215.0,73955.0,10,Long
2021-05-10,-6260.0,78285.0,72025.0,10,Long
2021-05-11,-6260.0,71885.0,65625.0,10,Long
2021-05-12,-6260.0,68565.0,62305.0,10,Long
2021-05-13,-6260.0,73055.0,66795.0,10,Long
2021-05-14,-6260.0,75995.0,69735.0,10,Long
2021-05-16,-6260.0,74515.0,68255.0,10,Long
2021-05-17,-6260.0,76165.0,69905.0,10,Long
2021-05-18,-6260.0,71385.0,65125.0,10,Long
2021-05-19,-6260.0,70425.0,64165.0,10,Long
2021-05-20,-6260.0,73115.0,66855.0,10,Long
2021-05-21,-6260.0,74445.0,68185.0,10,Long
2021-05-23,-6260.0,75365.0,69105.0,10,Long
2021-05-24,-6260.0,76635.0,70375.0,10,Long
2021-05-25,-6260.0,76075.0,69815.0,10,Long
2021-05-26,-6260.0,75075.0,68815.0,10,Long
2021-05-27,-6260.0,78615.0,72355.0,10,Long
2021-05-28,-6260.0,77925.0,71665.0,10,Long
2021-05-30,-6260.0,77915.0,71655.0,10,Long
2021-05-31,-6260.0,77635.0,71375.0,10,Long
2021-06-01,-6260.0,78185.0,71925.0,10,Long
2021-06-02,-6260.0,78515.0,72255.0,10,Long
2021-06-03,-6260.0,78335.0,72075.0,10,Long
2021-06-04,-6260.0,79895.0,73635.0,10,Long
2021-06-06,-6260.0,79655.0,73395.0,10,Long
2021-06-07,-6260.0,78295.0,72035.0,10,Long
2021-06-08,-6260.0,78335.0,72075.0,10,Long
2021-06-09,-6260.0,77385.0,71125.0,10,Long
2021-06-10,-6260.0,77215.0,70955.0,10,Long
2021-06-11,-6260.0,75865.0,69605.0,10,Long
2021-06-13,-6260.0,76315.0,70055.0,10,Long
2021-06-14,-6260.0,75575.0,69315.0,10,Long
2021-06-15,-6260.0,74105.0,67845.0,10,Long
2021-06-16,-6260.0,70495.0,64235.0,10,Long
2021-06-17,-6260.0,69785.0,63525.0,10,Long
2021-06-18,-6260.0,63115.0,56855.0,10,Long
2021-06-20,-6260.0,61855.0,55595.0,10,Long
2021-06-21,-6260.0,70715.0,64455.0,10,Long
2021-06-22,-6260.0,71555.0,65295.0,10,Long
2021-06-23,-6260.0,71115.0,64855.0,10,Long
2021-06-24,-6260.0,74795.0,68535.0,10,Long
2021-06-25,-6260.0,76245.0,69985.0,10,Long
2021-06-27,-6260.0,75985.0,69725.0,10,Long
2021-06-28,-6260.0,73785.0,67525.0,10,Long
2021-06-29,-6260.0,74675.0,68415.0,10,Long
2021-06-30,-6260.0,77095.0,70835.0,10,Long
2021-07-01,-6260.0,77975.0,71715.0,10,Long
2021-07-02,-6260.0,78925.0,72665.0,10,Long
2021-07-04,-6260.0,78685.0,72425.0,10,Long
2021-07-05,-6260.0,79745.0,73485.0,10,Long
2021-07-06,-6260.0,76875.0,70615.0,10,Long
2021-07-07,-6260.0,77285.0,71025.0,10,Long
2021-07-08,-6260.0,74605.0,68345.0,10,Long
2021-07-09,-6260.0,80045.0,73785.0,10,Long
2021-07-11,-6260.0,79415.0,73155.0,10,Long
2021-07-12,-6260.0,81195.0,74935.0,10,Long
2021-07-13,-6260.0,79915.0,73655.0,10,Long
2021-07-14,-6260.0,80095.0,73835.0,10,Long
2021-07-15,-6260.0,81175.0,74915.0,10,Long
2021-07-16,-6260.0,78045.0,71785.0,10,Long
2021-07-18,-6260.0,76605.0,70345.0,10,Long
2021-07-19,-6260.0,71475.0,65215.0,10,Long
2021-07-20,-6260.0,76505.0,70245.0,10,Long
2021-07-21,-6260.0,79685.0,73425.0,10,Long
2021-07-22,-6260.0,80105.0,73845.0,10,Long
2021-07-23,-6260.0,81675.0,75415.0,10,Long
2021-07-25,-6260.0,80475.0,74215.0,10,Long
2021-07-26,-6260.0,82305.0,76045.0,10,Long
2021-07-27,-6260.0,81265.0,75005.0,10,Long
2021-07-28,-6260.0,80735.0,74475.0,10,Long
2021-07-29,-6260.0,81205.0,74945.0,10,Long
2021-07-30,-6260.0,81205.0,74945.0,10,Long
2021-08-01,-6260.0,82325.0,76065.0,10,Long
2021-08-02,-6260.0,80465.0,74205.0,10,Long
2021-08-03,-6260.0,82145.0,75885.0,10,Long
2021-08-04,-6260.0,79975.0,73715.0,10,Long
2021-08-05,-6260.0,81645.0,75385.0,10,Long
2021-08-06,-6260.0,83435.0,77175.0,10,Long
2021-08-08,-6260.0,82965.0,76705.0,10,Long
2021-08-09,-6260.0,81875.0,75615.0,10,Long
2021-08-10,-6260.0,83875.0,77615.0,10,Long
2021-08-11,-6260.0,86395.0,80135.0,10,Long
2021-08-12,-6260.0,86535.0,80275.0,10,Long
2021-08-13,-6260.0,86545.0,80285.0,10,Long
2021-08-15,-6260.0,85395.0,79135.0,10,Long
2021-08-16,-6260.0,86855.0,80595.0,10,Long
2021-08-17,-6260.0,85145.0,78885.0,10,Long
2021-08-18,-6260.0,81235.0,74975.0,10,Long
2021-08-19,-6260.0,80315.0,74055.0,10,Long
2021-08-20,-6260.0,83095.0,76835.0,10,Long
2021-08-22,-6260.0,84425.0,78165.0,10,Long
2021-08-23,-6260.0,85975.0,79715.0,10,Long
2021-08-24,-6260.0,85195.0,78935.0,10,Long
2021-08-25,-6260.0,85755.0,79495.0,10,Long
2021-08-26,-6260.0,84565.0,78305.0,10,Long
2021-08-27,-6260.0,86615.0,80355.0,10,Long
2021-08-29,-6260.0,86785.0,80525.0,10,Long
2021-08-30,-6260.0,86475.0,80215.0,10,Long
2021-08-31,-6260.0,86795.0,80535.0,10,Long
2021-09-01,-6260.0,84955.0,78695.0,10,Long
2021-09-02,-6260.0,87285.0,81025.0,10,Long
2021-09-03,-6260.0,85895.0,79635.0,10,Long
2021-09-05,-6260.0,85985.0,79725.0,10,Long
2021-09-06,-6260.0,86515.0,80255.0,10,Long
2021-09-07,-6260.0,83305.0,77045.0,10,Long
2021-09-08,-6260.0,81635.0,75375.0,10,Long
2021-09-09,-6260.0,82075.0,75815.0,10,Long
2021-09-10,-6260.0,77665.0,71405.0,10,Long
2021-09-12,-6260.0,78145.0,71885.0,10,Long
2021-09-13,-6260.0,80775.0,74515.0,10,Long
2021-09-14,-6260.0,77685.0,71425.0,10,Long
2021-09-15,-6260.0,79155.0,72895.0,10,Long
2021-09-16,-6260.0,78775.0,72515.0,10,Long
2021-09-17,-6260.0,76105.0,69845.0,10,Long
2021-09-19,-6260.0,73895.0,67635.0,10,Long
2021-09-20,-6260.0,73255.0,66995.0,10,Long
2021-09-21,-6260.0,70795.0,64535.0,10,Long
2021-09-22,-6260.0,74785.0,68525.0,10,Long
2021-09-23,-6260.0,79115.0,72855.0,10,Long
2021-09-24,-6260.0,79275.0,73015.0,10,Long
2021-09-26,-6260.0,80595.0,74335.0,10,Long
2021-09-27,-6260.0,80175.0,73915.0,10,Long
2021-09-28,-6260.0,75785.0,69525.0,10,Long
2021-09-29,-6260.0,76685.0,70425.0,10,Long
2021-09-30,-6260.0,67645.0,61385.0,10,Long
2021-10-01,-6260.0,74725.0,68465.0,10,Long
2021-10-03,-6260.0,73115.0,66855.0,10,Long
2021-10-04,-6260.0,71475.0,65215.0,10,Long
2021-10-05,-6260.0,73405.0,67145.0,10,Long
2021-10-06,-6260.0,76775.0,70515.0,10,Long
2021-10-07,-6260.0,79265.0,73005.0,10,Long
2021-10-08,-6260.0,78735.0,72475.0,10,Long
2021-10-10,-6260.0,78405.0,72145.0,10,Long
2021-10-11,-6260.0,74645.0,68385.0,10,Long
2021-10-12,-6260.0,74955.0,68695.0,10,Long
2021-10-13,-6260.0,76135.0,69875.0,10,Long
2021-10-14,-6260.0,81405.0,75145.0,10,Long
2021-10-15,-6260.0,84395.0,78135.0,10,Long
2021-10-17,-6260.0,84355.0,78095.0,10,Long
2021-10-18,-6260.0,83685.0,77425.0,10,Long
2021-10-19,-6260.0,85855.0,79595.0,10,Long
2021-10-20,-6260.0,86835.0,80575.0,10,Long
2021-10-21,-6260.0,87665.0,81405.0,10,Long
2021-10-22,-6260.0,87415.0,81155.0,10,Long
2021-10-24,-6260.0,88105.0,81845.0,10,Long
2021-10-25,-6260.0,89155.0,82895.0,10,Long
2021-10-26,-6260.0,88875.0,82615.0,10,Long
2021-10-27,-6260.0,86895.0,80635.0,10,Long
2021-10-28,-6260.0,88345.0,82085.0,10,Long
2021-10-29,-6260.0,89885.0,83625.0,10,Long
2021-10-31,-6260.0,90305.0,84045.0,10,Long
2021-11-01,-6260.0,89675.0,83415.0,10,Long
2021-11-02,-6260.0,91405.0,85145.0,10,Long
2021-11-03,-6260.0,92565.0,86305.0,10,Long
2021-11-04,-6260.0,92335.0,86075.0,10,Long
2021-11-05,-6260.0,94155.0,87895.0,10,Long
2021-11-07,-6260.0,94275.0,88015.0,10,Long
2021-11-08,-6260.0,94655.0,88395.0,10,Long
2021-11-09,-6260.0,93325.0,87065.0,10,Long
2021-11-10,-6260.0,92025.0,85765.0,10,Long
2021-11-11,-6260.0,91275.0,85015.0,10,Long
2021-11-12,-6260.0,92745.0,86485.0,10,Long
2021-11-14,-6260.0,92565.0,86305.0,10,Long
2021-11-15,-6260.0,92565.0,86305.0,10,Long
2021-11-16,-6260.0,93135.0,86875.0,10,Long
2021-11-17,-6260.0,91165.0,84905.0,10,Long
2021-11-18,-6260.0,91785.0,85525.0,10,Long
2021-11-19,-6260.0,88335.0,82075.0,10,Long
2021-11-21,-6260.0,89085.0,82825.0,10,Long
2021-11-22,-6260.0,88535.0,82275.0,10,Long
2021-11-23,-6260.0,89365.0,83105.0,10,Long
2021-11-24,-6260.0,91165.0,84905.0,10,Long
2021-11-25,-6260.0,85555.0,79295.0,10,Long
2021-11-26,-6260.0,78895.0,72635.0,10,Long
2021-11-28,-6260.0,82755.0,76495.0,10,Long
2021-11-29,-6260.0,83845.0,77585.0,10,Long
2021-11-30,-6260.0,78725.0,72465.0,10,Long
2021-12-01,-6260.0,74615.0,68355.0,10,Long
2021-12-02,-6260.0,79005.0,72745.0,10,Long
2021-12-03,-6260.0,78055.0,71795.0,10,Long
2021-12-05,-6260.0,80405.0,74145.0,10,Long
2021-12-06,-6260.0,86035.0,79775.0,10,Long
2021-12-07,-6260.0,90535.0,84275.0,10,Long
2021-12-08,-6260.0,89305.0,83045.0,10,Long
2021-12-09,-6260.0,89905.0,83645.0,10,Long
2021-12-10,-6260.0,91325.0,85065.0,10,Long
2021-12-12,-6260.0,92475.0,86215.0,10,Long
2021-12-13,-6260.0,88315.0,82055.0,10,Long
2021-12-14,-6260.0,87515.0,81255.0,10,Long
2021-12-15,-6260.0,91165.0,84905.0,10,Long
2021-12-16,-6260.0,90165.0,83905.0,10,Long
2021-12-17,-6260.0,85835.0,79575.0,10,Long
2021-12-19,-6260.0,82335.0,76075.0,10,Long
2021-12-20,-6260.0,82565.0,76305.0,10,Long
2021-12-21,-6260.0,86265.0,80005.0,10,Long
2021-12-22,-6260.0,88965.0,82705.0,10,Long
2021-12-23,-6260.0,90955.0,84695.0,10,Long
2021-12-26,-6260.0,90805.0,84545.0,10,Long
2021-12-27,-6260.0,93935.0,87675.0,10,Long
2021-12-28,-6260.0,95445.0,89185.0,10,Long
2021-12-29,-6260.0,96145.0,89885.0,10,Long
2021-12-30,-6260.0,94705.0,88445.0,10,Long
2021-12-31,-6260.0,95045.0,88785.0,10,Long
2022-01-02,-6260.0,95945.0,89685.0,10,Long
2022-01-03,-6260.0,97525.0,91265.0,10,Long
2022-01-04,-6260.0,98485.0,92225.0,10,Long
2022-01-05,-6260.0,94255.0,87995.0,10,Long
2022-01-06,-6260.0,94465.0,88205.0,10,Long
2022-01-07,-6260.0,93715.0,87455.0,10,Long
2022-01-09,-6260.0,93585.0,87325.0,10,Long
2022-01-10,-6260.0,92005.0,85745.0,10,Long
2022-01-11,-6260.0,94175.0,87915.0,10,Long
2022-01-12,-6260.0,93735.0,87475.0,10,Long
2022-01-13,-6260.0,92655.0,86395.0,10,Long
2022-01-14,-6260.0,90825.0,84565.0,10,Long
2022-01-16,-6260.0,89895.0,83635.0,10,Long
2022-01-17,-6260.0,89665.0,83405.0,10,Long
2022-01-18,-6260.0,83265.0,77005.0,10,Long
2022-01-19,-6260.0,82965.0,76705.0,10,Long
2022-01-20,-6260.0,77515.0,71255.0,10,Long
2022-01-21,-6260.0,73505.0,67245.0,10,Long
2022-01-23,-6260.0,76245.0,69985.0,10,Long
2022-01-24,-6260.0,71825.0,65565.0,10,Long
2022-01-25,-6260.0,75035.0,68775.0,10,Long
2022-01-26,-6260.0,68895.0,62635.0,10,Long
2022-01-27,-6260.0,73835.0,67575.0,10,Long
2022-01-28,-6260.0,78235.0,71975.0,10,Long
2022-01-30,-6260.0,79045.0,72785.0,10,Long
2022-01-31,-6260.0,81825.0,75565.0,10,Long
2022-02-01,-6260.0,85195.0,78935.0,10,Long
2022-02-02,-6260.0,87305.0,81045.0,10,Long
2022-02-03,-6260.0,84175.0,77915.0,10,Long
2022-02-04,-6260.0,81795.0,75535.0,10,Long
2022-02-06,-6260.0,82195.0,75935.0,10,Long
2022-02-07,-6260.0,82365.0,76105.0,10,Long
2022-02-08,-6260.0,87315.0,81055.0,10,Long
2022-02-09,-6260.0,88945.0,82685.0,10,Long
2022-02-10,-6260.0,81715.0,75455.0,10,Long
2022-02-11,-6260.0,79405.0,73145.0,10,Long
2022-02-13,-6260.0,79575.0,73315.0,10,Long
2022-02-14,-6260.0,77105.0,70845.0,10,Long
2022-02-15,-6260.0,81065.0,74805.0,10,Long
2022-02-16,-6260.0,79455.0,73195.0,10,Long
2022-02-17,-6260.0,76955.0,70695.0,10,Long
2022-02-18,-6260.0,72825.0,66565.0,10,Long
2022-02-20,-6260.0,74265.0,68005.0,10,Long
2022-02-21,-6260.0,68055.0,61795.0,10,Long
2022-02-22,-6260.0,69295.0,63035.0,10,Long
2022-02-23,-6260.0,56925.0,50665.0,10,Long
2022-02-24,-6260.0,62905.0,56645.0,10,Long
2022-02-25,-6260.0,72535.0,66275.0,10,Long
2022-02-27,-6260.0,66755.0,60495.0,10,Long
2022-02-28,-6260.0,71195.0,64935.0,10,Long
2022-03-01,-6260.0,66445.0,60185.0,10,Long
2022-03-02,-6260.0,71075.0,64815.0,10,Long
2022-03-03,-6260.0,67495.0,61235.0,10,Long
2022-03-04,-6260.0,67685.0,61425.0,10,Long
2022-03-06,60915.0,0.0,60915.0,0,
2022-03-07,60915.0,0.0,60915.0,0,
2022-03-08,60915.0,0.0,60915.0,0,
2022-03-09,60915.0,0.0,60915.0,0,
2022-03-10,60915.0,0.0,60915.0,0,
2022-03-11,60915.0,0.0,60915.0,0,
2022-03-13,60915.0,0.0,60915.0,0,
2022-03-14,60915.0,0.0,60915.0,0,
2022-03-15,60915.0,0.0,60915.0,0,
2022-03-16,60915.0,0.0,60915.0,0,
2022-03-17,60915.0,0.0,60915.0,0,
2022-03-18,60915.0,0.0,60915.0,0,
2022-03-20,60915.0,0.0,60915.0,0,
2022-03-21,60915.0,0.0,60915.0,0,
2022-03-22,60915.0,0.0,60915.0,0,
2022-03-23,60915.0,0.0,60915.0,0,
2022-03-24,60915.0,0.0,60915.0,0,
2022-03-25,60915.0,0.0,60915.0,0,
2022-03-27,60915.0,0.0,60915.0,0,
2022-03-28,60915.0,0.0,60915.0,0,
2022-03-29,60915.0,0.0,60915.0,0,
2022-03-30,60915.0,0.0,60915.0,0,
2022-03-31,60915.0,0.0,60915.0,0,
2022-04-01,60915.0,0.0,60915.0,0,
2022-04-03,60915.0,0.0,60915.0,0,
2022-04-04,60915.0,0.0,60915.0,0,
2022-04-05,60915.0,0.0,60915.0,0,
2022-04-06,60915.0,0.0,60915.0,0,
2022-04-07,60915.0,0.0,60915.0,0,
2022-04-08,60915.0,0.0,60915.0,0,
2022-04-10,60915.0,0.0,60915.0,0,
2022-04-11,60915.0,0.0,60915.0,0,
2022-04-12,60915.0,0.0,60915.0,0,
2022-04-13,60915.0,0.0,60915.0,0,
2022-04-14,60915.0,0.0,60915.0,0,
2022-04-17,60915.0,0.0,60915.0,0,
2022-04-18,60915.0,0.0,60915.0,0,
2022-04-19,60915.0,0.0,60915.0,0,
2022-04-20,60915.0,0.0,60915.0,0,
2022-04-21,60915.0,0.0,60915.0,0,
2022-04-22,60915.0,0.0,60915.0,0,
2022-04-24,60915.0,0.0,60915.0,0,
2022-04-25,60915.0,0.0,60915.0,0,
2022-04-26,60915.0,0.0,60915.0,0,
2022-04-27,60915.0,0.0,60915.0,0,
2022-04-28,60915.0,0.0,60915.0,0,
2022-04-29,60915.0,0.0,60915.0,0,
2022-05-01,60915.0,0.0,60915.0,0,
2022-05-02,60915.0,0.0,60915.0,0,
2022-05-03,60915.0,0.0,60915.0,0,
2022-05-04,60915.0,0.0,60915.0,0,
2022-05-05,60915.0,0.0,60915.0,0,
2022-05-06,60915.0,0.0,60915.0,0,
2022-05-08,60915.0,0.0,60915.0,0,
2022-05-09,60915.0,0.0,60915.0,0,
2022-05-10,60915.0,0.0,60915.0,0,
2022-05-11,60915.0,0.0,60915.0,0,
2022-05-12,60915.0,0.0,60915.0,0,
2022-05-13,60915.0,0.0,60915.0,0,
2022-05-15,60915.0,0.0,60915.0,0,
2022-05-16,60915.0,0.0,60915.0,0,
2022-05-17,60915.0,0.0,60915.0,0,
2022-05-18,60915.0,0.0,60915.0,0,
2022-05-19,60915.0,0.0,60915.0,0,
2022-05-20,60915.0,0.0,60915.0,0,
2022-05-22,60915.0,0.0,60915.0,0,
2022-05-23,60915.0,0.0,60915.0,0,
2022-05-24,60915.0,0.0,60915.0,0,
2022-05-25,60915.0,0.0,60915.0,0,
2022-05-26,60915.0,0.0,60915.0,0,
2022-05-27,60915.0,0.0,60915.0,0,
2022-05-29,60915.0,0.0,60915.0,0,
2022-05-30,60915.0,0.0,60915.0,0,
2022-05-31,60915.0,0.0,60915.0,0,
2022-06-01,60915.0,0.0,60915.0,0,
2022-06-02,60915.0,0.0,60915.0,0,
2022-06-03,60915.0,0.0,60915.0,0,
2022-06-05,60915.0,0.0,60915.0,0,
2022-06-06,60915.0,0.0,60915.0,0,
2022-06-07,60915.0,0.0,60915.0,0,
2022-06-08,60915.0,0.0,60915.0,0,
2022-06-09,60915.0,0.0,60915.0,0,
2022-06-10,60915.0,0.0,60915.0,0,
2022-06-12,60915.0,0.0,60915.0,0,
2022-06-13,60915.0,0.0,60915.0,0,
2022-06-14,60915.0,0.0,60915.0,0,
2022-06-15,60915.0,0.0,60915.0,0,
2022-06-16,60915.0,0.0,60915.0,0,
2022-06-17,60915.0,0.0,60915.0,0,
2022-06-19,60915.0,0.0,60915.0,0,
2022-06-20,60915.0,0.0,60915.0,0,
2022-06-21,60915.0,0.0,60915.0,0,
2022-06-22,60915.0,0.0,60915.0,0,
2022-06-23,60915.0,0.0,60915.0,0,
2022-06-24,60915.0,0.0,60915.0,0,
2022-06-26,60915.0,0.0,60915.0,0,
2022-06-27,60915.0,0.0,60915.0,0,
2022-06-28,60915.0,0.0,60915.0,0,
2022-06-29,60915.0,0.0,60915.0,0,
2022-06-30,60915.0,0.0,60915.0,0,
2022-07-01,60915.0,0.0,60915.0,0,
2022-07-03,60915.0,0.0,60915.0,0,
2022-07-04,60915.0,0.0,60915.0,0,
2022-07-05,60915.0,0.0,60915.0,0,
2022-07-06,60915.0,0.0,60915.0,0,
2022-07-07,60915.0,0.0,60915.0,0,
2022-07-08,60915.0,0.0,60915.0,0,
2022-07-10,60915.0,0.0,60915.0,0,
2022-07-11,60915.0,0.0,60915.0,0,
2022-07-12,60915.0,0.0,60915.0,0,
2022-07-13,60915.0,0.0,60915.0,0,
2022-07-14,60915.0,0.0,60915.0,0,
2022-07-15,60915.0,0.0,60915.0,0,
2022-07-17,60915.0,0.0,60915.0,0,
2022-07-18,60915.0,0.0,60915.0,0,
2022-07-19,60915.0,0.0,60915.0,0,
2022-07-20,60915.0,0.0,60915.0,0,
2022-07-21,60915.0,0.0,60915.0,0,
2022-07-22,60915.0,0.0,60915.0,0,
2022-07-24,60915.0,0.0,60915.0,0,
2022-07-25,60915.0,0.0,60915.0,0,
2022-07-26,60915.0,0.0,60915.0,0,
2022-07-27,60915.0,0.0,60915.0,0,
2022-07-28,60915.0,0.0,60915.0,0,
2022-07-29,60915.0,0.0,60915.0,0,
2022-07-31,60915.0,0.0,60915.0,0,
2022-08-01,60915.0,0.0,60915.0,0,
2022-08-02,60915.0,0.0,60915.0,0,
2022-08-03,60915.0,0.0,60915.0,0,
2022-08-04,60915.0,0.0,60915.0,0,
2022-08-05,60915.0,0.0,60915.0,0,
2022-08-07,60915.0,0.0,60915.0,0,
2022-08-08,60915.0,0.0,60915.0,0,
2022-08-09,60915.0,0.0,60915.0,0,
2022-08-10,60915.0,0.0,60915.0,0,
2022-08-11,60915.0,0.0,60915.0,0,
2022-08-12,60915.0,0.0,60915.0,0,
2022-08-14,60915.0,0.0,60915.0,0,
2022-08-15,60915.0,0.0,60915.0,0,
2022-08-16,60915.0,0.0,60915.0,0,
2022-08-17,60915.0,0.0,60915.0,0,
2022-08-18,60915.0,0.0,60915.0,0,
2022-08-19,60915.0,0.0,60915.0,0,
2022-08-21,60915.0,0.0,60915.0,0,
2022-08-22,60915.0,0.0,60915.0,0,
2022-08-23,60915.0,0.0,60915.0,0,
2022-08-24,60915.0,0.0,60915.0,0,
2022-08-25,60915.0,0.0,60915.0,0,
2022-08-26,60915.0,0.0,60915.0,0,
2022-08-28,60915.0,0.0,60915.0,0,
2022-08-29,60915.0,0.0,60915.0,0,
2022-08-30,60915.0,0.0,60915.0,0,
2022-08-31,60915.0,0.0,60915.0,0,
2022-09-01,60915.0,0.0,60915.0,0,
2022-09-02,60915.0,0.0,60915.0,0,
2022-09-04,60915.0,0.0,60915.0,0,
2022-09-05,60915.0,0.0,60915.0,0,
2022-09-06,60915.0,0.0,60915.0,0,
2022-09-07,60915.0,0.0,60915.0,0,
2022-09-08,60915.0,0.0,60915.0,0,
2022-09-09,60915.0,0.0,60915.0,0,
2022-09-11,60915.0,0.0,60915.0,0,
2022-09-12,60915.0,0.0,60915.0,0,
2022-09-13,60915.0,0.0,60915.0,0,
2022-09-14,60915.0,0.0,60915.0,0,
2022-09-15,60915.0,0.0,60915.0,0,
2022-09-16,60915.0,0.0,60915.0,0,
2022-09-18,60915.0,0.0,60915.0,0,
2022-09-19,60915.0,0.0,60915.0,0,
2022-09-20,60915.0,0.0,60915.0,0,
2022-09-21,60915.0,0.0,60915.0,0,
2022-09-22,60915.0,0.0,60915.0,0,
2022-09-23,60915.0,0.0,60915.0,0,
2022-09-25,60915.0,0.0,60915.0,0,
2022-09-26,60915.0,0.0,60915.0,0,
2022-09-27,60915.0,0.0,60915.0,0,
2022-09-28,60915.0,0.0,60915.0,0,
2022-09-29,60915.0,0.0,60915.0,0,
2022-09-30,60915.0,0.0,60915.0,0,
2022-10-02,60915.0,0.0,60915.0,0,
2022-10-03,60915.0,0.0,60915.0,0,
2022-10-04,60915.0,0.0,60915.0,0,
2022-10-05,60915.0,0.0,60915.0,0,
2022-10-06,60915.0,0.0,60915.0,0,
2022-10-07,60915.0,0.0,60915.0,0,
2022-10-09,60915.0,0.0,60915.0,0,
2022-10-10,60915.0,0.0,60915.0,0,
2022-10-11,60915.0,0.0,60915.0,0,
2022-10-12,60915.0,0.0,60915.0,0,
2022-10-13,60915.0,0.0,60915.0,0,
2022-10-14,60915.0,0.0,60915.0,0,
2022-10-16,60915.0,0.0,60915.0,0,
2022-10-17,60915.0,0.0,60915.0,0,
2022-10-18,60915.0,0.0,60915.0,0,
2022-10-19,60915.0,0.0,60915.0,0,
2022-10-20,60915.0,0.0,60915.0,0,
2022-10-21,60915.0,0.0,60915.0,0,
2022-10-23,60915.0,0.0,60915.0,0,
2022-10-24,60915.0,0.0,60915.0,0,
2022-10-25,60915.0,0.0,60915.0,0,
2022-10-26,60915.0,0.0,60915.0,0,
2022-10-27,60915.0,0.0,60915.0,0,
2022-10-28,60915.0,0.0,60915.0,0,
2022-10-30,60915.0,0.0,60915.0,0,
2022-10-31,60915.0,0.0,60915.0,0,
2022-11-01,60915.0,0.0,60915.0,0,
2022-11-02,60915.0,0.0,60915.0,0,
2022-11-03,60915.0,0.0,60915.0,0,
2022-11-04,60915.0,0.0,60915.0,0,
2022-11-06,60915.0,0.0,60915.0,0,
2022-11-07,60915.0,0.0,60915.0,0,
2022-11-08,60915.0,0.0,60915.0,0,
2022-11-09,60915.0,0.0,60915.0,0,
2022-11-10,60915.0,0.0,60915.0,0,
2022-11-11,60915.0,0.0,60915.0,0,
2022-11-13,60915.0,66.0,60981.0,3,Long
2022-11-14,60915.0,9.0,60924.0,3,Long
2022-11-15,60915.0,-366.0,60549.0,3,Long
2022-11-16,60549.0,0.0,60549.0,0,
2022-11-17,60549.0,0.0,60549.0,0,
2022-11-18,60549.0,0.0,60549.0,0,
2022-11-20,60549.0,-177.0,60372.0,3,Long
2022-11-21,60549.0,-15.0,60534.0,3,Long
2022-11-22,60549.0,1095.0,61644.0,3,Long
2022-11-23,60549.0,1500.0,62049.0,3,Long
2022-11-24,60549.0,1461.0,62010.0,3,Long
2022-11-25,60549.0,1857.0,62406.0,3,Long
2022-11-27,60549.0,1317.0,61866.0,3,Long
2022-11-28,60549.0,534.0,61083.0,3,Long
2022-11-29,60549.0,411.0,60960.0,3,Long
2022-11-30,60549.0,2541.0,63090.0,3,Long
2022-12-01,60549.0,1869.0,62418.0,3,Long
2022-12-02,60549.0,1895.0,62444.0,4,Long
2022-12-04,60549.0,2063.0,62612.0,4,Long
2022-12-05,60549.0,427.0,60976.0,4,Long
2022-12-06,60549.0,-925.0,59624.0,4,Long
2022-12-07,60549.0,-1253.0,59296.0,4,Long
2022-12-08,59308.0,0.0,59308.0,0,
2022-12-09,59308.0,-1095.0,58213.0,3,Long
2022-12-11,58969.0,0.0,58969.0,0,
2022-12-12,58969.0,1617.0,60586.0,3,Long
2022-12-13,58969.0,2256.0,61225.0,3,Long
2022-12-14,58969.0,1578.0,60547.0,3,Long
2022-12-15,58969.0,-1005.0,57964.0,3,Long
2022-12-16,57970.0,0.0,57970.0,0,
2022-12-18,57970.0,0.0,57970.0,0,
2022-12-19,57970.0,0.0,57970.0,0,
2022-12-20,57970.0,0.0,57970.0,0,
2022-12-21,57970.0,0.0,57970.0,0,
2022-12-22,57970.0,0.0,57970.0,0,
2022-12-23,57970.0,0.0,57970.0,0,
2022-12-26,57970.0,0.0,57970.0,0,
2022-12-27,57970.0,0.0,57970.0,0,
2022-12-28,57970.0,0.0,57970.0,0,
2022-12-29,57970.0,0.0,57970.0,0,
2022-12-30,57970.0,0.0,57970.0,0,
2023-01-02,57970.0,0.0,57970.0,0,
2023-01-03,57970.0,0.0,57970.0,0,
2023-01-04,57970.0,0.0,57970.0,0,
2023-01-05,57970.0,0.0,57970.0,0,
2023-01-06,57970.0,0.0,57970.0,0,
2023-01-08,57970.0,255.0,58225.0,3,Long
2023-01-09,57970.0,-582.0,57388.0,3,Long
2023-01-10,57388.0,0.0,57388.0,0,
2023-01-11,57388.0,729.0,58117.0,3,Long
2023-01-12,57388.0,1116.0,58504.0,3,Long
2023-01-13,57388.0,1656.0,59044.0,3,Long
2023-01-15,57388.0,1713.0,59101.0,3,Long
2023-01-16,57388.0,1446.0,58834.0,3,Long
2023-01-17,57388.0,456.0,57844.0,3,Long
2023-01-18,57388.0,-1620.0,55768.0,3,Long
2023-01-19,55774.0,0.0,55774.0,0,
2023-01-20,55774.0,0.0,55774.0,0,
2023-01-22,55774.0,0.0,55774.0,0,
2023-01-23,55774.0,0.0,55774.0,0,
2023-01-24,55774.0,9.0,55783.0,3,Long
2023-01-25,55774.0,279.0,56053.0,3,Long
2023-01-26,55774.0,801.0,56575.0,3,Long
2023-01-27,55774.0,936.0,56710.0,3,Long
2023-01-29,55774.0,669.0,56443.0,3,Long
2023-01-30,55774.0,90.0,55864.0,3,Long
2023-01-31,55774.0,1047.0,56821.0,3,Long
2023-02-01,55774.0,1113.0,56887.0,3,Long
2023-02-02,55774.0,1137.0,56911.0,3,Long
2023-02-03,55774.0,693.0,56467.0,4,Long
2023-02-05,55774.0,417.0,56191.0,4,Long
2023-02-06,55774.0,625.0,56399.0,4,Long
2023-02-07,55774.0,1641.0,57415.0,4,Long
2023-02-08,55774.0,1205.0,56979.0,4,Long
2023-02-09,55774.0,-367.0,55407.0,4,Long
2023-02-10,55774.0,465.0,56239.0,4,Long
2023-02-12,55774.0,29.0,55803.0,4,Long
2023-02-13,55774.0,1853.0,57627.0,4,Long
2023-02-14,55774.0,969.0,56743.0,4,Long
2023-02-15,55774.0,1669.0,57443.0,4,Long
2023-02-16,55774.0,-487.0,55287.0,4,Long
2023-02-17,55283.0,0.0,55283.0,0,
2023-02-19,55283.0,12.0,55295.0,3,Long
2023-02-20,55283.0,-345.0,54938.0,3,Long
2023-02-21,55283.0,-1905.0,53378.0,3,Long
2023-02-22,53378.0,0.0,53378.0,0,
2023-02-23,53378.0,0.0,53378.0,0,
2023-02-24,53378.0,0.0,53378.0,0,
2023-02-26,53378.0,0.0,53378.0,0,
2023-02-27,53378.0,0.0,53378.0,0,
2023-02-28,53378.0,0.0,53378.0,0,
2023-03-01,53378.0,0.0,53378.0,0,
2023-03-02,53378.0,0.0,53378.0,0,
2023-03-03,53378.0,0.0,53378.0,0,
2023-03-05,53378.0,0.0,53378.0,0,
2023-03-06,53378.0,0.0,53378.0,0,
2023-03-07,53378.0,0.0,53378.0,0,
2023-03-08,53378.0,0.0,53378.0,0,
2023-03-09,53378.0,0.0,53378.0,0,
2023-03-10,53378.0,0.0,53378.0,0,
2023-03-12,53378.0,0.0,53378.0,0,
2023-03-13,53378.0,0.0,53378.0,0,
2023-03-14,53378.0,0.0,53378.0,0,
2023-03-15,53378.0,0.0,53378.0,0,
2023-03-16,53378.0,0.0,53378.0,0,
2023-03-17,53378.0,0.0,53378.0,0,
2023-03-19,53378.0,0.0,53378.0,0,
2023-03-20,53378.0,0.0,53378.0,0,
2023-03-21,53378.0,0.0,53378.0,0,
2023-03-22,53378.0,0.0,53378.0,0,
2023-03-23,53378.0,0.0,53378.0,0,
2023-03-24,53378.0,0.0,53378.0,0,
2023-03-26,53378.0,0.0,53378.0,0,
2023-03-27,53378.0,0.0,53378.0,0,
2023-03-28,53378.0,0.0,53378.0,0,
2023-03-29,53378.0,0.0,53378.0,0,
2023-03-30,53378.0,0.0,53378.0,0,
2023-03-31,53378.0,0.0,53378.0,0,
2023-04-02,53378.0,0.0,53378.0,0,
2023-04-03,53378.0,0.0,53378.0,0,
2023-04-04,53378.0,-555.0,52823.0,3,Long
2023-04-05,52817.0,0.0,52817.0,0,
2023-04-06,52817.0,0.0,52817.0,0,
2023-04-07,52817.0,0.0,52817.0,0,
2023-04-09,52817.0,-120.0,52697.0,3,Long
2023-04-10,52817.0,228.0,53045.0,3,Long
2023-04-11,52817.0,456.0,53273.0,3,Long
2023-04-12,52817.0,255.0,53072.0,3,Long
2023-04-13,52817.0,1275.0,54092.0,3,Long
2023-04-14,52817.0,1125.0,53942.0,3,Long
2023-04-16,52817.0,1131.0,53948.0,3,Long
2023-04-17,52817.0,1209.0,54026.0,3,Long
2023-04-18,52817.0,1056.0,53873.0,3,Long
2023-04-19,52817.0,903.0,53720.0,3,Long
2023-04-20,52817.0,555.0,53372.0,3,Long
2023-04-21,52817.0,635.0,53452.0,4,Long
2023-04-23,52817.0,287.0,53104.0,4,Long
2023-04-24,52817.0,723.0,53540.0,4,Long
2023-04-25,52817.0,-333.0,52484.0,4,Long
2023-04-26,52817.0,-1281.0,51536.0,4,Long
2023-04-27,51540.0,0.0,51540.0,0,
2023-04-28,51540.0,987.0,52527.0,3,Long
2023-04-30,51540.0,975.0,52515.0,3,Long
2023-05-01,51540.0,786.0,52326.0,3,Long
2023-05-02,51540.0,-183.0,51357.0,3,Long
2023-05-03,51540.0,-1077.0,50463.0,3,Long
2023-05-04,50463.0,0.0,50463.0,0,
2023-05-05,50463.0,0.0,50463.0,0,
2023-05-07,50463.0,-111.0,50352.0,3,Long
2023-05-08,50463.0,-267.0,50196.0,3,Long
2023-05-09,50196.0,0.0,50196.0,0,
2023-05-10,50196.0,0.0,50196.0,0,
2023-05-11,50196.0,0.0,50196.0,0,
2023-05-12,50196.0,0.0,50196.0,0,
2023-05-14,50196.0,0.0,50196.0,0,
2023-05-15,50196.0,0.0,50196.0,0,
2023-05-16,50196.0,0.0,50196.0,0,
2023-05-17,50196.0,0.0,50196.0,0,
2023-05-18,50196.0,0.0,50196.0,0,
2023-05-19,50196.0,0.0,50196.0,0,
2023-05-21,50196.0,0.0,50196.0,0,
2023-05-22,50196.0,0.0,50196.0,0,
2023-05-23,50196.0,0.0,50196.0,0,
2023-05-24,50196.0,0.0,50196.0,0,
2023-05-25,50196.0,0.0,50196.0,0,
2023-05-26,50196.0,0.0,50196.0,0,
2023-05-28,50196.0,0.0,50196.0,0,
2023-05-29,50196.0,0.0,50196.0,0,
2023-05-30,50196.0,0.0,50196.0,0,
2023-05-31,50196.0,0.0,50196.0,0,
2023-06-01,50196.0,0.0,50196.0,0,
2023-06-02,50196.0,0.0,50196.0,0,
2023-06-04,50196.0,45.0,50241.0,3,Long
2023-06-05,50196.0,-606.0,49590.0,3,Long
2023-06-06,49590.0,0.0,49590.0,0,
2023-06-07,49590.0,0.0,49590.0,0,
2023-06-08,49590.0,0.0,49590.0,0,
2023-06-09,49590.0,198.0,49788.0,3,Long
2023-06-11,49590.0,258.0,49848.0,3,Long
2023-06-12,49590.0,1758.0,51348.0,3,Long
2023-06-13,49590.0,1875.0,51465.0,3,Long
2023-06-14,49590.0,1329.0,50919.0,3,Long
2023-06-15,49590.0,2622.0,52212.0,3,Long
2023-06-16,49590.0,2313.0,51903.0,3,Long
2023-06-18,49590.0,2157.0,51747.0,3,Long
2023-06-19,49590.0,1962.0,51552.0,3,Long
2023-06-20,49590.0,1575.0,51165.0,3,Long
2023-06-21,49590.0,1209.0,50799.0,3,Long
2023-06-22,49590.0,738.0,50328.0,3,Long
2023-06-23,49590.0,378.0,49968.0,4,Long
2023-06-25,49590.0,706.0,50296.0,4,Long
2023-06-26,49590.0,622.0,50212.0,4,Long
2023-06-27,49590.0,1206.0,50796.0,4,Long
2023-06-28,49590.0,1018.0,50608.0,4,Long
2023-06-29,49590.0,1862.0,51452.0,4,Long
2023-06-30,49590.0,2950.0,52540.0,4,Long
2023-07-02,49590.0,3066.0,52656.0,4,Long
2023-07-03,49590.0,3074.0,52664.0,4,Long
2023-07-04,49590.0,2902.0,52492.0,4,Long
2023-07-05,49590.0,2110.0,51700.0,4,Long
2023-07-06,49590.0,1034.0,50624.0,4,Long
2023-07-07,49590.0,386.0,49976.0,5,Long
2023-07-09,49590.0,-9.0,49581.0,5,Long
2023-07-10,49590.0,1326.0,50916.0,5,Long
2023-07-11,49590.0,2766.0,52356.0,5,Long
2023-07-12,49590.0,3616.0,53206.0,5,Long
2023-07-13,49590.0,3231.0,52821.0,5,Long
2023-07-14,49590.0,3831.0,53421.0,5,Long
2023-07-16,49590.0,3816.0,53406.0,5,Long
2023-07-17,49590.0,4301.0,53891.0,5,Long
2023-07-18,49590.0,6326.0,55916.0,5,Long
2023-07-19,49590.0,6801.0,56391.0,5,Long
2023-07-20,49590.0,7781.0,57371.0,5,Long
2023-07-21,49590.0,7426.0,57016.0,6,Long
2023-07-23,49590.0,7408.0,56998.0,6,Long
2023-07-24,49590.0,8536.0,58126.0,6,Long
2023-07-25,49590.0,8566.0,58156.0,6,Long
2023-07-26,49590.0,9292.0,58882.0,6,Long
2023-07-27,49590.0,7798.0,57388.0,6,Long
2023-07-28,49590.0,8596.0,58186.0,6,Long
2023-07-30,49590.0,8296.0,57886.0,6,Long
2023-07-31,49590.0,9298.0,58888.0,6,Long
2023-08-01,49590.0,8980.0,58570.0,6,Long
2023-08-02,49590.0,7936.0,57526.0,6,Long
2023-08-03,49590.0,7360.0,56950.0,6,Long
2023-08-04,49590.0,6015.0,55605.0,7,Long
2023-08-06,49590.0,6778.0,56368.0,7,Long
2023-08-07,49590.0,8451.0,58041.0,7,Long
2023-08-08,49590.0,7674.0,57264.0,7,Long
2023-08-09,49590.0,7359.0,56949.0,7,Long
2023-08-10,49590.0,6771.0,56361.0,7,Long
2023-08-11,49590.0,7576.0,57166.0,7,Long
2023-08-13,49590.0,6953.0,56543.0,7,Long
2023-08-14,49590.0,7730.0,57320.0,7,Long
2023-08-15,49590.0,5119.0,54709.0,7,Long
2023-08-16,49590.0,4153.0,53743.0,7,Long
2023-08-17,49590.0,1962.0,51552.0,7,Long
2023-08-18,49590.0,1701.0,51291.0,8,Long
2023-08-20,49590.0,1989.0,51579.0,8,Long
2023-08-21,49590.0,1453.0,51043.0,8,Long
2023-08-22,49590.0,757.0,50347.0,8,Long
2023-08-23,49590.0,1861.0,51451.0,8,Long
2023-08-24,49590.0,-1155.0,48435.0,8,Long
2023-08-25,49590.0,317.0,49907.0,8,Long
2023-08-27,49590.0,693.0,50283.0,8,Long
2023-08-28,49590.0,2237.0,51827.0,8,Long
2023-08-29,49590.0,4837.0,54427.0,8,Long
2023-08-30,49590.0,5589.0,55179.0,8,Long
2023-08-31,49590.0,4077.0,53667.0,8,Long
2023-09-01,49590.0,4310.0,53900.0,9,Long
2023-09-03,49590.0,4427.0,54017.0,9,Long
2023-09-04,49590.0,3878.0,53468.0,9,Long
2023-09-05,49590.0,2537.0,52127.0,9,Long
2023-09-06,49590.0,701.0,50291.0,9,Long
2023-09-07,49590.0,1529.0,51119.0,9,Long
2023-09-08,49590.0,1943.0,51533.0,9,Long
2023-09-10,49590.0,4886.0,54476.0,9,Long
2023-09-11,49590.0,5570.0,55160.0,9,Long
2023-09-12,49590.0,4895.0,54485.0,9,Long
2023-09-13,49590.0,5426.0,55016.0,9,Long
2023-09-14,49590.0,8540.0,58130.0,9,Long
2023-09-15,49590.0,5038.0,54628.0,10,Long
2023-09-17,49590.0,5448.0,55038.0,10,Long
2023-09-18,49590.0,4948.0,54538.0,10,Long
2023-09-19,49590.0,3368.0,52958.0,10,Long
2023-09-20,49590.0,2288.0,51878.0,10,Long
2023-09-21,49590.0,-402.0,49188.0,10,Long
2023-09-22,49590.0,-1922.0,47668.0,10,Long
2023-09-24,49590.0,-1332.0,48258.0,10,Long
2023-09-25,49590.0,-2662.0,46928.0,10,Long
2023-09-26,49590.0,-5222.0,44368.0,10,Long
2023-09-27,49590.0,-6592.0,42998.0,10,Long
2023-09-28,49590.0,-4982.0,44608.0,10,Long
2023-09-29,49590.0,-6922.0,42668.0,10,Long
2023-10-01,49590.0,-5452.0,44138.0,10,Long
2023-10-02,49590.0,-8292.0,41298.0,10,Long
2023-10-03,41318.0,0.0,41318.0,0,
2023-10-04,41318.0,0.0,41318.0,0,
2023-10-05,41318.0,0.0,41318.0,0,
2023-10-06,41318.0,0.0,41318.0,0,
2023-10-08,41318.0,0.0,41318.0,0,
2023-10-09,41318.0,0.0,41318.0,0,
2023-10-10,41318.0,333.0,41651.0,3,Long
2023-10-11,41318.0,702.0,42020.0,3,Long
2023-10-12,41318.0,24.0,41342.0,3,Long
2023-10-13,41318.0,-117.0,41201.0,3,Long
2023-10-15,41318.0,123.0,41441.0,3,Long
2023-10-16,41318.0,843.0,42161.0,3,Long
2023-10-17,41318.0,906.0,42224.0,3,Long
2023-10-18,41318.0,-231.0,41087.0,3,Long
2023-10-19,41318.0,-873.0,40445.0,3,Long
2023-10-20,40448.0,0.0,40448.0,0,
2023-10-22,40448.0,0.0,40448.0,0,
2023-10-23,40448.0,0.0,40448.0,0,
2023-10-24,40448.0,0.0,40448.0,0,
2023-10-25,40448.0,0.0,40448.0,0,
2023-10-26,40448.0,0.0,40448.0,0,
2023-10-27,40448.0,0.0,40448.0,0,
2023-10-29,40448.0,0.0,40448.0,0,
2023-10-30,40448.0,0.0,40448.0,0,
2023-10-31,40448.0,0.0,40448.0,0,
2023-11-01,40448.0,0.0,40448.0,0,
2023-11-02,40448.0,0.0,40448.0,0,
2023-11-03,40448.0,0.0,40448.0,0,
2023-11-05,40448.0,0.0,40448.0,0,
2023-11-06,40448.0,0.0,40448.0,0,
2023-11-07,40448.0,0.0,40448.0,0,
2023-11-08,40448.0,0.0,40448.0,0,
2023-11-09,40448.0,0.0,40448.0,0,
2023-11-10,40448.0,0.0,40448.0,0,
2023-11-12,40448.0,0.0,40448.0,0,
2023-11-13,40448.0,0.0,40448.0,0,
2023-11-14,40448.0,0.0,40448.0,0,
2023-11-15,40448.0,0.0,40448.0,0,
2023-11-16,40448.0,0.0,40448.0,0,
2023-11-17,40448.0,0.0,40448.0,0,
2023-11-19,40448.0,0.0,40448.0,0,
2023-11-20,40448.0,0.0,40448.0,0,
2023-11-21,40448.0,0.0,40448.0,0,
2023-11-22,40448.0,0.0,40448.0,0,
2023-11-23,40448.0,0.0,40448.0,0,
2023-11-24,40448.0,0.0,40448.0,0,
2023-11-26,40448.0,0.0,40448.0,0,
2023-11-27,40448.0,0.0,40448.0,0,
2023-11-28,40448.0,0.0,40448.0,0,
2023-11-29,40448.0,0.0,40448.0,0,
2023-11-30,40448.0,0.0,40448.0,0,
2023-12-01,40448.0,0.0,40448.0,0,
2023-12-03,40448.0,-6.0,40442.0,3,Long
2023-12-04,40430.0,0.0,40430.0,0,
2023-12-05,40430.0,0.0,40430.0,0,
2023-12-06,40430.0,0.0,40430.0,0,
2023-12-07,40430.0,0.0,40430.0,0,
2023-12-08,40430.0,0.0,40430.0,0,
2023-12-10,40430.0,0.0,40430.0,0,
2023-12-11,40430.0,546.0,40976.0,3,Long
2023-12-12,40430.0,1119.0,41549.0,3,Long
2023-12-13,40430.0,2865.0,43295.0,3,Long
2023-12-14,40430.0,3165.0,43595.0,3,Long
2023-12-15,40430.0,3084.0,43514.0,3,Long
2023-12-17,40430.0,3303.0,43733.0,3,Long
2023-12-18,40430.0,3096.0,43526.0,3,Long
2023-12-19,40430.0,3888.0,44318.0,3,Long
2023-12-20,40430.0,2685.0,43115.0,3,Long
2023-12-21,40430.0,2979.0,43409.0,3,Long
2023-12-22,40430.0,3206.0,43636.0,4,Long
2023-12-25,40430.0,3522.0,43952.0,4,Long
2023-12-26,40430.0,3950.0,44380.0,4,Long
2023-12-27,40430.0,4434.0,44864.0,4,Long
2023-12-28,40430.0,4574.0,45004.0,4,Long
2023-12-29,40430.0,4250.0,44680.0,4,Long
2024-01-01,40430.0,4534.0,44964.0,4,Long
2024-01-02,40430.0,4278.0,44708.0,4,Long
2024-01-03,40430.0,3290.0,43720.0,4,Long
2024-01-04,40430.0,3342.0,43772.0,4,Long
2024-01-05,40430.0,3222.0,43652.0,5,Long
2024-01-07,40430.0,2617.0,43047.0,5,Long
2024-01-08,40430.0,4082.0,44512.0,5,Long
2024-01-09,40430.0,3252.0,43682.0,5,Long
2024-01-10,40430.0,4627.0,45057.0,5,Long
2024-01-11,40430.0,4127.0,44557.0,5,Long
2024-01-12,40430.0,3452.0,43882.0,5,Long
2024-01-14,40430.0,3772.0,44202.0,5,Long
2024-01-15,40430.0,3057.0,43487.0,5,Long
2024-01-16,40430.0,2147.0,42577.0,5,Long
2024-01-17,40430.0,1767.0,42197.0,5,Long
2024-01-18,40430.0,2807.0,43237.0,5,Long
2024-01-19,40430.0,4931.0,45361.0,6,Long
2024-01-21,40430.0,5261.0,45691.0,6,Long
2024-01-22,40430.0,5723.0,46153.0,6,Long
2024-01-23,40430.0,5261.0,45691.0,6,Long
2024-01-24,40430.0,4925.0,45355.0,6,Long
2024-01-25,40430.0,5075.0,45505.0,6,Long
2024-01-26,40430.0,6107.0,46537.0,6,Long
2024-01-28,40430.0,5813.0,46243.0,6,Long
2024-01-29,40430.0,7247.0,47677.0,6,Long
2024-01-30,40430.0,8429.0,48859.0,6,Long
2024-01-31,40430.0,6653.0,47083.0,6,Long
2024-02-01,40430.0,8417.0,48847.0,6,Long
2024-02-02,40430.0,9012.0,49442.0,7,Long
2024-02-04,40430.0,8578.0,49008.0,7,Long
2024-02-05,40430.0,7087.0,47517.0,7,Long
2024-02-06,40430.0,8200.0,48630.0,7,Long
2024-02-07,40430.0,9299.0,49729.0,7,Long
2024-02-08,40430.0,9355.0,49785.0,7,Long
2024-02-09,40430.0,8851.0,49281.0,7,Long
2024-02-11,40430.0,8998.0,49428.0,7,Long
2024-02-12,40430.0,9628.0,50058.0,7,Long
2024-02-13,40430.0,6044.0,46474.0,7,Long
2024-02-14,40430.0,7297.0,47727.0,7,Long
2024-02-15,40430.0,9411.0,49841.0,7,Long
2024-02-16,40430.0,8438.0,48868.0,8,Long
2024-02-18,40430.0,8918.0,49348.0,8,Long
2024-02-19,40430.0,7846.0,48276.0,8,Long
2024-02-20,40430.0,7982.0,48412.0,8,Long
2024-02-21,40430.0,8966.0,49396.0,8,Long
2024-02-22,40430.0,12534.0,52964.0,8,Long
2024-02-23,40430.0,12374.0,52804.0,8,Long
2024-02-25,40430.0,12286.0,52716.0,8,Long
2024-02-26,40430.0,11958.0,52388.0,8,Long
2024-02-27,40430.0,11062.0,51492.0,8,Long
2024-02-28,40430.0,11158.0,51588.0,8,Long
2024-02-29,40430.0,11678.0,52108.0,8,Long
2024-03-01,40430.0,11744.0,52174.0,9,Long
2024-03-03,40430.0,11780.0,52210.0,9,Long
2024-03-04,40430.0,10691.0,51121.0,9,Long
2024-03-05,40430.0,7469.0,47899.0,9,Long
2024-03-06,40430.0,7964.0,48394.0,9,Long
2024-03-07,40430.0,9305.0,49735.0,9,Long
2024-03-08,40430.0,9035.0,49465.0,9,Long
2024-03-10,40430.0,12221.0,52651.0,9,Long
2024-03-11,40430.0,13499.0,53929.0,9,Long
2024-03-12,40430.0,15074.0,55504.0,9,Long
2024-03-13,40430.0,15929.0,56359.0,9,Long
2024-03-14,40430.0,14093.0,54523.0,9,Long
2024-03-15,40430.0,12259.0,52689.0,10,Long
2024-03-17,40430.0,12519.0,52949.0,10,Long
2024-03-18,40430.0,12899.0,53329.0,10,Long
2024-03-19,40430.0,16099.0,56529.0,10,Long
2024-03-20,40430.0,21399.0,61829.0,10,Long
2024-03-21,40430.0,23069.0,63499.0,10,Long
2024-03-22,40430.0,19109.0,59539.0,10,Long
2024-03-24,40430.0,18929.0,59359.0,10,Long
2024-03-25,40430.0,18059.0,58489.0,10,Long
2024-03-26,40430.0,18749.0,59179.0,10,Long
2024-03-27,40430.0,21969.0,62399.0,10,Long
2024-03-28,40430.0,22269.0,62699.0,10,Long
2024-03-31,40430.0,24029.0,64459.0,10,Long
2024-04-01,40430.0,18509.0,58939.0,10,Long
2024-04-02,40430.0,15449.0,55879.0,10,Long
2024-04-03,40430.0,16219.0,56649.0,10,Long
2024-04-04,40430.0,10329.0,50759.0,10,Long
2024-04-05,40430.0,13329.0,53759.0,10,Long
2024-04-07,40430.0,12809.0,53239.0,10,Long
2024-04-08,40430.0,12949.0,53379.0,10,Long
2024-04-09,40430.0,13049.0,53479.0,10,Long
2024-04-10,40430.0,8399.0,48829.0,10,Long
2024-04-11,40430.0,8499.0,48929.0,10,Long
2024-04-12,40430.0,3139.0,43569.0,10,Long
2024-04-14,40430.0,4059.0,44489.0,10,Long
2024-04-15,40430.0,19.0,40449.0,10,Long
2024-04-16,40430.0,2129.0,42559.0,10,Long
2024-04-17,40430.0,1429.0,41859.0,10,Long
2024-04-18,40430.0,-2121.0,38309.0,10,Long
2024-04-19,40430.0,2989.0,43419.0,10,Long
2024-04-21,40430.0,3639.0,44069.0,10,Long
2024-04-22,40430.0,5669.0,46099.0,10,Long
2024-04-23,40430.0,8669.0,49099.0,10,Long
2024-04-24,40430.0,6879.0,47309.0,10,Long
2024-04-25,40430.0,4239.0,44669.0,10,Long
2024-04-26,40430.0,5409.0,45839.0,10,Long
2024-04-28,40430.0,6289.0,46719.0,10,Long
2024-04-29,40430.0,6169.0,46599.0,10,Long
2024-04-30,40430.0,1089.0,41519.0,10,Long
2024-05-01,40430.0,3069.0,43499.0,10,Long
2024-05-02,40430.0,7059.0,47489.0,10,Long
2024-05-03,40430.0,9549.0,49979.0,10,Long
2024-05-05,40430.0,9579.0,50009.0,10,Long
2024-05-06,40430.0,11059.0,51489.0,10,Long
2024-05-07,40430.0,11049.0,51479.0,10,Long
2024-05-08,40430.0,12539.0,52969.0,10,Long
2024-05-09,40430.0,16529.0,56959.0,10,Long
2024-05-10,40430.0,17029.0,57459.0,10,Long
2024-05-12,40430.0,17259.0,57689.0,10,Long
2024-05-13,40430.0,16369.0,56799.0,10,Long
2024-05-14,40430.0,18019.0,58449.0,10,Long
2024-05-15,40430.0,22079.0,62509.0,10,Long
2024-05-16,40430.0,20719.0,61149.0,10,Long
2024-05-17,40430.0,22189.0,62619.0,10,Long
2024-05-19,40430.0,22569.0,62999.0,10,Long
2024-05-20,40430.0,20309.0,60739.0,10,Long
2024-05-21,40430.0,20989.0,61419.0,10,Long
2024-05-22,40430.0,19369.0,59799.0,10,Long
2024-05-23,40430.0,12729.0,53159.0,10,Long
2024-05-24,40430.0,12359.0,52789.0,10,Long
2024-05-26,40430.0,12069.0,52499.0,10,Long
2024-05-27,40430.0,12729.0,53159.0,10,Long
2024-05-28,40430.0,9019.0,49449.0,10,Long
2024-05-29,40430.0,3119.0,43549.0,10,Long
2024-05-30,40430.0,2999.0,43429.0,10,Long
2024-05-31,40430.0,9099.0,49529.0,10,Long
2024-06-02,40430.0,9699.0,50129.0,10,Long
2024-06-03,40430.0,7459.0,47889.0,10,Long
2024-06-04,40430.0,9539.0,49969.0,10,Long
2024-06-05,40430.0,9799.0,50229.0,10,Long
2024-06-06,40430.0,10819.0,51249.0,10,Long
2024-06-07,40430.0,9519.0,49949.0,10,Long
2024-06-09,40430.0,9349.0,49779.0,10,Long
2024-06-10,40430.0,9589.0,50019.0,10,Long
2024-06-11,40430.0,8809.0,49239.0,10,Long
2024-06-12,40430.0,8199.0,48629.0,10,Long
2024-06-13,40430.0,7549.0,47979.0,10,Long
2024-06-14,40430.0,6619.0,47049.0,10,Long
2024-06-16,40430.0,10719.0,51149.0,10,Long
2024-06-17,40430.0,13459.0,53889.0,10,Long
2024-06-18,40430.0,13389.0,53819.0,10,Long
2024-06-19,40430.0,13389.0,53819.0,10,Long
2024-06-20,40430.0,16639.0,57069.0,10,Long
2024-06-21,40430.0,16689.0,57119.0,10,Long
2024-06-23,40430.0,15869.0,56299.0,10,Long
2024-06-24,40430.0,19999.0,60429.0,10,Long
2024-06-25,40430.0,15989.0,56419.0,10,Long
2024-06-26,40430.0,15039.0,55469.0,10,Long
2024-06-27,40430.0,16379.0,56809.0,10,Long
2024-06-28,40430.0,16119.0,56549.0,10,Long
2024-06-30,40430.0,16059.0,56489.0,10,Long
2024-07-01,40430.0,15329.0,55759.0,10,Long
2024-07-02,40430.0,17259.0,57689.0,10,Long
2024-07-03,40430.0,17169.0,57599.0,10,Long
2024-07-04,40430.0,17649.0,58079.0,10,Long
2024-07-05,40430.0,17439.0,57869.0,10,Long
2024-07-07,40430.0,17219.0,57649.0,10,Long
2024-07-08,40430.0,18129.0,58559.0,10,Long
2024-07-09,40430.0,16679.0,57109.0,10,Long
2024-07-10,40430.0,21269.0,61699.0,10,Long
2024-07-11,40430.0,21969.0,62399.0,10,Long
2024-07-12,40430.0,24139.0,64569.0,10,Long
2024-07-14,40430.0,24559.0,64989.0,10,Long
2024-07-15,40430.0,26569.0,66999.0,10,Long
2024-07-16,40430.0,33759.0,74189.0,10,Long
2024-07-17,40430.0,36819.0,77249.0,10,Long
2024-07-18,40430.0,30679.0,71109.0,10,Long
2024-07-19,40430.0,26349.0,66779.0,10,Long
2024-07-21,40430.0,26669.0,67099.0,10,Long
2024-07-22,40430.0,27369.0,67799.0,10,Long
2024-07-23,40430.0,26079.0,66509.0,10,Long
2024-07-24,40430.0,22799.0,63229.0,10,Long
2024-07-25,40430.0,24169.0,64599.0,10,Long
2024-07-26,40430.0,29399.0,69829.0,10,Long
2024-07-28,40430.0,30669.0,71099.0,10,Long
2024-07-29,40430.0,27969.0,68399.0,10,Long
2024-07-30,40430.0,29769.0,70199.0,10,Long
2024-07-31,40430.0,32369.0,72799.0,10,Long
2024-08-01,40430.0,24309.0,64739.0,10,Long
2024-08-02,40430.0,18439.0,58869.0,10,Long
2024-08-04,40430.0,16789.0,57219.0,10,Long
2024-08-05,40430.0,13119.0,53549.0,10,Long
2024-08-06,40430.0,14889.0,55319.0,10,Long
2024-08-07,40430.0,9939.0,50369.0,10,Long
2024-08-08,40430.0,17329.0,57759.0,10,Long
2024-08-09,40430.0,16949.0,57379.0,10,Long
2024-08-11,40430.0,16929.0,57359.0,10,Long
2024-08-12,40430.0,16229.0,56659.0,10,Long
2024-08-13,40430.0,19719.0,60149.0,10,Long
2024-08-14,40430.0,22779.0,63209.0,10,Long
2024-08-15,40430.0,28349.0,68779.0,10,Long
2024-08-16,40430.0,28929.0,69359.0,10,Long
2024-08-18,40430.0,28999.0,69429.0,10,Long
2024-08-19,40430.0,30909.0,71339.0,10,Long
2024-08-20,40430.0,30929.0,71359.0,10,Long
2024-08-21,40430.0,30589.0,71019.0,10,Long
2024-08-22,40430.0,29879.0,70309.0,10,Long
2024-08-23,40430.0,33599.0,74029.0,10,Long
2024-08-25,40430.0,33249.0,73679.0,10,Long
2024-08-26,40430.0,34009.0,74439.0,10,Long
2024-08-27,40430.0,34439.0,74869.0,10,Long
2024-08-28,40430.0,33609.0,74039.0,10,Long
2024-08-29,40430.0,35359.0,75789.0,10,Long
2024-08-30,40430.0,37269.0,77699.0,10,Long
2024-09-01,40430.0,37079.0,77509.0,10,Long
2024-09-02,40430.0,36669.0,77099.0,10,Long
2024-09-03,40430.0,29769.0,70199.0,10,Long
2024-09-04,40430.0,31039.0,71469.0,10,Long
2024-09-05,40430.0,29399.0,69829.0,10,Long
2024-09-06,40430.0,24089.0,64519.0,10,Long
2024-09-08,40430.0,25819.0,66249.0,10,Long
2024-09-09,40430.0,29359.0,69789.0,10,Long
2024-09-10,40430.0,27299.0,67729.0,10,Long
2024-09-11,40430.0,30209.0,70639.0,10,Long
2024-09-12,40430.0,32609.0,73039.0,10,Long
2024-09-13,40430.0,35119.0,75549.0,10,Long
2024-09-15,40430.0,35569.0,75999.0,10,Long
2024-09-16,40430.0,41119.0,81549.0,10,Long
2024-09-17,40430.0,41619.0,82049.0,10,Long
2024-09-18,40430.0,42709.0,83139.0,10,Long
2024-09-19,40430.0,45229.0,85659.0,10,Long
2024-09-20,40430.0,45239.0,85669.0,10,Long
2024-09-22,40430.0,45949.0,86379.0,10,Long
2024-09-23,40430.0,45119.0,85549.0,10,Long
2024-09-24,40430.0,45959.0,86389.0,10,Long
2024-09-25,40430.0,44619.0,85049.0,10,Long
2024-09-26,40430.0,46239.0,86669.0,10,Long
2024-09-27,40430.0,47099.0,87529.0,10,Long
2024-09-29,40430.0,47629.0,88059.0,10,Long
2024-09-30,40430.0,47189.0,87619.0,10,Long
2024-10-01,40430.0,45059.0,85489.0,10,Long
2024-10-02,40430.0,45489.0,85919.0,10,Long
2024-10-03,40430.0,43989.0,84419.0,10,Long
2024-10-04,40430.0,47189.0,87619.0,10,Long
2024-10-06,40430.0,47229.0,87659.0,10,Long
2024-10-07,40430.0,43009.0,83439.0,10,Long
2024-10-08,40430.0,44209.0,84639.0,10,Long
2024-10-09,40430.0,49209.0,89639.0,10,Long
2024-10-10,40430.0,48449.0,88879.0,10,Long
2024-10-11,40430.0,51909.0,92339.0,10,Long
2024-10-13,40430.0,52309.0,92739.0,10,Long
2024-10-14,40430.0,55069.0,95499.0,10,Long
2024-10-15,40430.0,51019.0,91449.0,10,Long
2024-10-16,40430.0,53699.0,94129.0,10,Long
2024-10-17,40430.0,55669.0,96099.0,10,Long
2024-10-18,40430.0,56209.0,96639.0,10,Long
2024-10-20,40430.0,56329.0,96759.0,10,Long
2024-10-21,40430.0,51999.0,92429.0,10,Long
2024-10-22,40430.0,51219.0,91649.0,10,Long
2024-10-23,40430.0,47599.0,88029.0,10,Long
2024-10-24,40430.0,46709.0,87139.0,10,Long
2024-10-25,40430.0,43739.0,84169.0,10,Long
2024-10-27,40430.0,45689.0,86119.0,10,Long
2024-10-28,40430.0,46079.0,86509.0,10,Long
2024-10-29,40430.0,45479.0,85909.0,10,Long
2024-10-30,40430.0,43879.0,84309.0,10,Long
2024-10-31,40430.0,40729.0,81159.0,10,Long
2024-11-01,40430.0,42919.0,83349.0,10,Long
2024-11-03,40430.0,42749.0,83179.0,10,Long
2024-11-04,40430.0,40509.0,80939.0,10,Long
2024-11-05,40430.0,50239.0,90669.0,10,Long
2024-11-06,40430.0,60889.0,101319.0,10,Long
2024-11-07,40430.0,59779.0,100209.0,10,Long
2024-11-08,40430.0,62219.0,102649.0,10,Long
2024-11-10,40430.0,62579.0,103009.0,10,Long
2024-11-11,40430.0,64739.0,105169.0,10,Long
2024-11-12,40430.0,60999.0,101429.0,10,Long
2024-11-13,40430.0,61649.0,102079.0,10,Long
2024-11-14,40430.0,58799.0,99229.0,10,Long
2024-11-15,40430.0,56709.0,97139.0,10,Long
2024-11-17,40430.0,56579.0,97009.0,10,Long
2024-11-18,40430.0,56879.0,97309.0,10,Long
2024-11-19,40430.0,55749.0,96179.0,10,Long
2024-11-20,40430.0,55839.0,96269.0,10,Long
2024-11-21,40430.0,60759.0,101189.0,10,Long
2024-11-22,40430.0,65329.0,105759.0,10,Long
2024-11-24,40430.0,67329.0,107759.0,10,Long
2024-11-25,40430.0,69209.0,109639.0,10,Long
2024-11-26,40430.0,70629.0,111059.0,10,Long
2024-11-27,40430.0,69699.0,110129.0,10,Long
2024-11-28,40430.0,70519.0,110949.0,10,Long
2024-11-29,40430.0,71419.0,111849.0,10,Long
2024-12-01,40430.0,70619.0,111049.0,10,Long
2024-12-02,40430.0,69839.0,110269.0,10,Long
2024-12-03,40430.0,70289.0,110719.0,10,Long
2024-12-04,40430.0,71739.0,112169.0,10,Long
2024-12-05,40430.0,69119.0,109549.0,10,Long
2024-12-06,40430.0,67779.0,108209.0,10,Long
2024-12-08,40430.0,67569.0,107999.0,10,Long
2024-12-09,40430.0,65469.0,105899.0,10,Long
2024-12-10,40430.0,64089.0,104519.0,10,Long
2024-12-11,40430.0,62189.0,102619.0,10,Long
2024-12-12,40430.0,60699.0,101129.0,10,Long
2024-12-13,40430.0,59309.0,99739.0,10,Long
2024-12-15,40430.0,64679.0,105109.0,10,Long
2024-12-16,40430.0,63059.0,103489.0,10,Long
2024-12-17,40430.0,61429.0,101859.0,10,Long
2024-12-18,40430.0,49559.0,89989.0,10,Long
2024-12-19,40430.0,47729.0,88159.0,10,Long
2024-12-20,40430.0,53709.0,94139.0,10,Long
2024-12-22,40430.0,55389.0,95819.0,10,Long
2024-12-23,40430.0,54049.0,94479.0,10,Long
2024-12-24,40430.0,57219.0,97649.0,10,Long
2024-12-25,40430.0,57029.0,97459.0,10,Long
2024-12-26,40430.0,57219.0,97649.0,10,Long
2024-12-27,40430.0,54389.0,94819.0,10,Long
2024-12-29,40430.0,53499.0,93929.0,10,Long
2024-12-30,40430.0,50049.0,90479.0,10,Long
2024-12-31,40430.0,49549.0,89979.0,10,Long
2025-01-01,40430.0,50689.0,91119.0,10,Long
2025-01-02,40430.0,48189.0,88619.0,10,Long
2025-01-03,40430.0,50859.0,91289.0,10,Long
2025-01-05,40430.0,50619.0,91049.0,10,Long
2025-01-06,40430.0,50479.0,90909.0,10,Long
2025-01-07,40430.0,49609.0,90039.0,10,Long
2025-01-08,40430.0,48839.0,89269.0,10,Long
2025-01-09,40430.0,48939.0,89369.0,10,Long
2025-01-10,40430.0,42989.0,83419.0,10,Long
2025-01-12,40430.0,41709.0,82139.0,10,Long
2025-01-13,40430.0,46799.0,87229.0,10,Long
2025-01-14,40430.0,48599.0,89029.0,10,Long
2025-01-15,40430.0,55839.0,96269.0,10,Long
2025-01-16,40430.0,55129.0,95559.0,10,Long
2025-01-17,40430.0,57669.0,98099.0,10,Long
2025-01-19,40430.0,57939.0,98369.0,10,Long
2025-01-20,40430.0,59029.0,99459.0,10,Long
2025-01-21,40430.0,63499.0,103929.0,10,Long
2025-01-22,40430.0,64269.0,104699.0,10,Long
2025-01-23,40430.0,68089.0,108519.0,10,Long
2025-01-24,40430.0,66739.0,107169.0,10,Long
2025-01-26,40430.0,65149.0,105579.0,10,Long
2025-01-27,40430.0,69149.0,109579.0,10,Long
2025-01-28,40430.0,71089.0,111519.0,10,Long
2025-01-29,40430.0,70659.0,111089.0,10,Long
2025-01-30,40430.0,71799.0,112229.0,10,Long
2025-01-31,40430.0,67829.0,108259.0,10,Long
2025-02-02,40430.0,61029.0,101459.0,10,Long
2025-02-03,40430.0,66749.0,107179.0,10,Long
2025-02-04,40430.0,66779.0,107209.0,10,Long
2025-02-05,40430.0,71719.0,112149.0,10,Long
2025-02-06,40430.0,69139.0,109569.0,10,Long
2025-02-07,40430.0,65019.0,105449.0,10,Long
2025-02-09,40430.0,65729.0,106159.0,10,Long
2025-02-10,40430.0,65949.0,106379.0,10,Long
2025-02-11,40430.0,67669.0,108099.0,10,Long
2025-02-12,40430.0,66269.0,106699.0,10,Long
2025-02-13,40430.0,69479.0,109909.0,10,Long
2025-02-14,40430.0,67229.0,107659.0,10,Long
2025-02-16,40430.0,67619.0,108049.0,10,Long
2025-02-17,40430.0,67669.0,108099.0,10,Long
2025-02-18,40430.0,67699.0,108129.0,10,Long
2025-02-19,40430.0,66989.0,107419.0,10,Long
2025-02-20,40430.0,63469.0,103899.0,10,Long
2025-02-21,40430.0,55689.0,96119.0,10,Long
2025-02-23,40430.0,57779.0,98209.0,10,Long
2025-02-24,40430.0,56869.0,97299.0,10,Long
2025-02-25,40430.0,58479.0,98909.0,10,Long
2025-02-26,40430.0,55919.0,96349.0,10,Long
2025-02-27,40430.0,53769.0,94199.0,10,Long
2025-02-28,40430.0,59279.0,99709.0,10,Long
2025-03-02,40430.0,60039.0,100469.0,10,Long
2025-03-03,40430.0,53579.0,94009.0,10,Long
2025-03-04,40430.0,49159.0,89589.0,10,Long
2025-03-05,40430.0,51609.0,92039.0,10,Long
2025-03-06,40430.0,47739.0,88169.0,10,Long
2025-03-07,40430.0,48959.0,89389.0,10,Long
2025-03-09,40430.0,47739.0,88169.0,10,Long
2025-03-10,40430.0,41259.0,81689.0,10,Long
2025-03-11,40430.0,36279.0,76709.0,10,Long
2025-03-12,40430.0,34099.0,74529.0,10,Long
2025-03-13,40430.0,31579.0,72009.0,10,Long
2025-03-14,40430.0,35389.0,75819.0,10,Long
2025-03-16,79289.0,0.0,79289.0,0,
2025-03-17,79289.0,0.0,79289.0,0,
2025-03-18,79289.0,0.0,79289.0,0,
2025-03-19,79289.0,0.0,79289.0,0,
2025-03-20,79289.0,0.0,79289.0,0,
2025-03-21,79289.0,0.0,79289.0,0,
2025-03-23,79289.0,0.0,79289.0,0,
2025-03-24,79289.0,0.0,79289.0,0,
2025-03-25,79289.0,0.0,79289.0,0,
2025-03-26,79289.0,0.0,79289.0,0,
2025-03-27,79289.0,0.0,79289.0,0,
2025-03-28,79289.0,0.0,79289.0,0,
2025-03-30,79289.0,0.0,79289.0,0,
2025-03-31,79289.0,0.0,79289.0,0,
2025-04-01,79289.0,0.0,79289.0,0,
2025-04-02,79289.0,0.0,79289.0,0,
2025-04-03,79289.0,0.0,79289.0,0,
2025-04-04,79289.0,0.0,79289.0,0,
2025-04-06,79289.0,0.0,79289.0,0,
2025-04-07,79289.0,0.0,79289.0,0,
2025-04-08,79289.0,0.0,79289.0,0,
2025-04-09,79289.0,0.0,79289.0,0,
2025-04-10,79289.0,0.0,79289.0,0,
2025-04-11,79289.0,0.0,79289.0,0,
2025-04-13,79289.0,0.0,79289.0,0,
2025-04-14,79289.0,0.0,79289.0,0,
2025-04-15,79289.0,0.0,79289.0,0,
2025-04-16,79289.0,0.0,79289.0,0,
2025-04-17,79289.0,0.0,79289.0,0,
2025-04-20,79289.0,0.0,79289.0,0,
2025-04-21,79289.0,0.0,79289.0,0,
2025-04-22,79289.0,0.0,79289.0,0,
2025-04-23,79289.0,0.0,79289.0,0,
2025-04-24,79289.0,0.0,79289.0,0,
2025-04-25,79289.0,0.0,79289.0,0,
2025-04-27,79289.0,0.0,79289.0,0,
2025-04-28,79289.0,0.0,79289.0,0,
2025-04-29,79289.0,0.0,79289.0,0,
2025-04-30,79289.0,0.0,79289.0,0,
2025-05-01,79289.0,0.0,79289.0,0,
2025-05-02,79289.0,0.0,79289.0,0,
2025-05-04,79289.0,0.0,79289.0,0,
2025-05-05,79289.0,0.0,79289.0,0,
2025-05-06,79289.0,0.0,79289.0,0,
2025-05-07,79289.0,0.0,79289.0,0,
2025-05-08,79289.0,0.0,79289.0,0,
2025-05-09,79289.0,0.0,79289.0,0,
2025-05-11,79289.0,0.0,79289.0,0,
2025-05-12,79289.0,0.0,79289.0,0,
2025-05-13,79289.0,0.0,79289.0,0,
2025-05-14,79289.0,0.0,79289.0,0,
2025-05-15,79289.0,0.0,79289.0,0,
2025-05-16,79289.0,0.0,79289.0,0,
2025-05-18,79289.0,0.0,79289.0,0,
2025-05-19,79289.0,0.0,79289.0,0,
2025-05-20,79289.0,0.0,79289.0,0,
2025-05-21,79289.0,0.0,79289.0,0,
2025-05-22,79289.0,0.0,79289.0,0,
2025-05-23,79289.0,0.0,79289.0,0,
2025-05-25,79289.0,0.0,79289.0,0,
2025-05-26,79289.0,0.0,79289.0,0,
2025-05-27,79289.0,0.0,79289.0,0,
2025-05-28,79289.0,0.0,79289.0,0,
2025-05-29,79289.0,0.0,79289.0,0,
2025-05-30,79289.0,0.0,79289.0,0,
2025-06-01,79289.0,0.0,79289.0,0,
2025-06-02,79289.0,0.0,79289.0,0,
2025-06-03,79289.0,0.0,79289.0,0,
2025-06-04,79289.0,0.0,79289.0,0,
2025-06-05,79289.0,0.0,79289.0,0,
2025-06-06,79289.0,0.0,79289.0,0,
2025-06-08,79289.0,0.0,79289.0,0,
2025-06-09,79289.0,0.0,79289.0,0,
2025-06-10,79289.0,0.0,79289.0,0,
2025-06-11,79289.0,0.0,79289.0,0,
2025-06-12,79289.0,0.0,79289.0,0,
2025-06-13,79289.0,0.0,79289.0,0,
2025-06-15,79289.0,0.0,79289.0,0,
2025-06-16,79289.0,0.0,79289.0,0,
2025-06-17,79289.0,0.0,79289.0,0,
2025-06-18,79289.0,0.0,79289.0,0,
2025-06-19,79289.0,0.0,79289.0,0,
2025-06-20,79289.0,0.0,79289.0,0,
2025-06-22,79289.0,0.0,79289.0,0,
2025-06-23,79289.0,0.0,79289.0,0,
2025-06-24,79289.0,0.0,79289.0,0,
2025-06-25,79289.0,0.0,79289.0,0,
2025-06-26,79289.0,0.0,79289.0,0,
2025-06-27,79289.0,0.0,79289.0,0,
2025-06-29,79289.0,501.0,79790.0,3,Long
2025-06-30,79289.0,447.0,79736.0,3,Long
2025-07-01,79289.0,1995.0,81284.0,3,Long
2025-07-02,79289.0,1800.0,81089.0,3,Long
2025-07-03,79289.0,2352.0,81641.0,3,Long
2025-07-04,79289.0,1911.0,81200.0,3,Long
2025-07-06,79289.0,2313.0,81602.0,3,Long
2025-07-07,79289.0,1278.0,80567.0,3,Long
2025-07-08,79289.0,783.0,80072.0,3,Long
2025-07-09,79289.0,1224.0,80513.0,3,Long
2025-07-10,79289.0,1701.0,80990.0,3,Long
2025-07-11,79289.0,985.0,80274.0,4,Long
2025-07-13,79289.0,369.0,79658.0,4,Long
2025-07-14,79289.0,1381.0,80670.0,4,Long
2025-07-15,79289.0,-571.0,78718.0,4,Long
2025-07-16,78722.0,0.0,78722.0,0,
2025-07-17,78722.0,1239.0,79961.0,3,Long
2025-07-18,78722.0,453.0,79175.0,3,Long
2025-07-20,78722.0,561.0,79283.0,3,Long
2025-07-21,78722.0,618.0,79340.0,3,Long
2025-07-22,78722.0,1314.0,80036.0,3,Long
2025-07-23,78722.0,2094.0,80816.0,3,Long
2025-07-24,78722.0,1929.0,80651.0,3,Long
2025-07-25,78722.0,2067.0,80789.0,4,Long
2025-07-27,78722.0,2759.0,81481.0,4,Long
2025-07-28,78722.0,1931.0,80653.0,4,Long
2025-07-29,78722.0,1119.0,79841.0,4,Long
2025-07-30,78722.0,743.0,79465.0,4,Long
2025-07-31,78722.0,-1301.0,77421.0,4,Long
2025-08-01,78722.0,-3425.0,75297.0,4,Long
2025-08-03,75229.0,0.0,75229.0,0,
2025-08-04,75229.0,0.0,75229.0,0,
2025-08-05,75229.0,3.0,75232.0,3,Long
2025-08-06,75229.0,6.0,75235.0,3,Long
2025-08-07,75229.0,-522.0,74707.0,3,Long
2025-08-08,74701.0,0.0,74701.0,0,
2025-08-10,74701.0,45.0,74746.0,3,Long
2025-08-11,74701.0,-651.0,74050.0,3,Long
2025-08-12,74041.0,0.0,74041.0,0,
2025-08-13,74041.0,1392.0,75433.0,3,Long
2025-08-14,74041.0,2199.0,76240.0,3,Long
2025-08-15,74041.0,1383.0,75424.0,3,Long
2025-08-17,74041.0,1644.0,75685.0,3,Long
2025-08-18,74041.0,1194.0,75235.0,3,Long
2025-08-19,74041.0,963.0,75004.0,3,Long
2025-08-20,74041.0,1311.0,75352.0,3,Long
2025-08-21,74041.0,939.0,74980.0,3,Long
2025-08-22,74041.0,3549.0,77590.0,4,Long
2025-08-24,74041.0,3301.0,77342.0,4,Long
2025-08-25,74041.0,1817.0,75858.0,4,Long
2025-08-26,74041.0,2769.0,76810.0,4,Long
2025-08-27,74041.0,3545.0,77586.0,4,Long
2025-08-28,74041.0,3201.0,77242.0,4,Long
2025-08-29,74041.0,3169.0,77210.0,4,Long
2025-08-31,74041.0,3045.0,77086.0,4,Long
2025-09-01,74041.0,3009.0,77050.0,4,Long
2025-09-02,74041.0,1485.0,75526.0,4,Long
2025-09-03,74041.0,1701.0,75742.0,4,Long
2025-09-04,74041.0,3437.0,77478.0,4,Long
2025-09-05,74041.0,2506.0,76547.0,5,Long
2025-09-07,74041.0,2711.0,76752.0,5,Long
2025-09-08,74041.0,3301.0,77342.0,5,Long
2025-09-09,74041.0,3736.0,77777.0,5,Long
2025-09-10,74041.0,3041.0,77082.0,5,Long
2025-09-11,74041.0,5931.0,79972.0,5,Long
2025-09-12,74041.0,4461.0,78502.0,5,Long
2025-09-14,74041.0,6256.0,80297.0,5,Long
2025-09-15,74041.0,6611.0,80652.0,5,Long
2025-09-16,74041.0,5626.0,79667.0,5,Long
2025-09-17,74041.0,7691.0,81732.0,5,Long
2025-09-18,74041.0,7996.0,82037.0,5,Long
2025-09-19,74041.0,8152.0,82193.0,6,Long
2025-09-21,74041.0,8104.0,82145.0,6,Long
2025-09-22,74041.0,8836.0,82877.0,6,Long
2025-09-23,74041.0,8596.0,82637.0,6,Long
2025-09-24,74041.0,7690.0,81731.0,6,Long
2025-09-25,74041.0,6148.0,80189.0,6,Long
2025-09-26,74041.0,7846.0,81887.0,6,Long
2025-09-28,74041.0,8530.0,82571.0,6,Long
2025-09-29,74041.0,8116.0,82157.0,6,Long
2025-09-30,74041.0,7486.0,81527.0,6,Long
2025-10-01,74041.0,8770.0,82811.0,6,Long
2025-10-02,74041.0,9814.0,83855.0,6,Long
2025-10-03,74041.0,10690.0,84731.0,7,Long
2025-10-05,74041.0,11306.0,85347.0,7,Long
2025-10-06,74041.0,9465.0,83506.0,7,Long
2025-10-07,74041.0,9752.0,83793.0,7,Long
2025-10-08,74041.0,9108.0,83149.0,7,Long
2025-10-09,74041.0,7911.0,81952.0,7,Long
2025-10-10,74041.0,-230.0,73811.0,7,Long
2025-10-12,74041.0,3998.0,78039.0,7,Long
2025-10-13,74041.0,5643.0,79684.0,7,Long
2025-10-14,74041.0,7337.0,81378.0,7,Long
2025-10-15,74041.0,6728.0,80769.0,7,Long
2025-10-16,74041.0,3690.0,77731.0,7,Long
2025-10-17,74041.0,6411.0,80452.0,8,Long
2025-10-19,74041.0,6859.0,80900.0,8,Long
2025-10-20,74041.0,10315.0,84356.0,8,Long
2025-10-21,74041.0,12179.0,86220.0,8,Long
2025-10-22,74041.0,8907.0,82948.0,8,Long
2025-10-23,74041.0,10771.0,84812.0,8,Long
2025-10-24,74041.0,14075.0,88116.0,8,Long
2025-10-26,74041.0,16251.0,90292.0,8,Long
2025-10-27,74041.0,16699.0,90740.0,8,Long
2025-10-28,74041.0,17739.0,91780.0,8,Long
2025-10-29,74041.0,18027.0,92068.0,8,Long
2025-10-30,74041.0,16603.0,90644.0,8,Long
2025-10-31,74041.0,16743.0,90784.0,9,Long
2025-11-02,74041.0,17130.0,91171.0,9,Long
2025-11-03,74041.0,12918.0,86959.0,9,Long
2025-11-04,74041.0,12333.0,86374.0,9,Long
2025-11-05,74041.0,14025.0,88066.0,9,Long
2025-11-06,74041.0,10695.0,84736.0,9,Long
2025-11-07,74041.0,11568.0,85609.0,9,Long
2025-11-09,74041.0,11568.0,85609.0,9,Long
2025-11-10,74041.0,14376.0,88417.0,9,Long
2025-11-11,74041.0,19731.0,93772.0,9,Long
2025-11-12,74041.0,23430.0,97471.0,9,Long
2025-11-13,74041.0,15087.0,89128.0,9,Long
2025-11-14,74041.0,12681.0,86722.0,10,Long
2025-11-16,74041.0,12711.0,86752.0,10,Long
2025-11-17,74041.0,5171.0,79212.0,10,Long
2025-11-18,74041.0,1111.0,75152.0,10,Long
2025-11-19,74041.0,5091.0,79132.0,10,Long
2025-11-20,74041.0,191.0,74232.0,10,Long
2025-11-21,74041.0,3741.0,77782.0,10,Long
2025-11-23,74041.0,4011.0,78052.0,10,Long
2025-11-24,74041.0,4681.0,78722.0,10,Long
2025-11-25,74041.0,12591.0,86632.0,10,Long
2025-11-26,74041.0,15101.0,89142.0,10,Long
2025-11-27,74041.0,15481.0,89522.0,10,Long
2025-11-28,74041.0,17421.0,91462.0,10,Long
2025-11-30,74041.0,14891.0,88932.0,10,Long
2025-12-01,74041.0,12991.0,87032.0,10,Long
2025-12-02,74041.0,16541.0,90582.0,10,Long
2025-12-03,74041.0,20091.0,94132.0,10,Long
2025-12-04,74041.0,19331.0,93372.0,10,Long
2025-12-05,74041.0,20021.0,94062.0,10,Long
2025-12-07,74041.0,20091.0,94132.0,10,Long
2025-12-08,74041.0,17921.0,91962.0,10,Long
2025-12-09,74041.0,16341.0,90382.0,10,Long
2025-12-10,74041.0,19101.0,93142.0,10,Long
2025-12-11,74041.0,28441.0,102482.0,10,Long
2025-12-12,74041.0,25161.0,99202.0,10,Long
2025-12-14,74041.0,30221.0,104262.0,10,Long
2025-12-15,74041.0,27231.0,101272.0,10,Long
2025-12-16,74041.0,24161.0,98202.0,10,Long
2025-12-17,74041.0,22121.0,96162.0,10,Long
2025-12-18,74041.0,22311.0,96352.0,10,Long
2025-12-19,74041.0,24881.0,98922.0,10,Long
2025-12-21,74041.0,24981.0,99022.0,10,Long
2025-12-22,74041.0,26411.0,100452.0,10,Long
2025-12-23,74041.0,27211.0,101252.0,10,Long
2025-12-24,74041.0,30181.0,104222.0,10,Long
2025-12-25,74041.0,30331.0,104372.0,10,Long
2025-12-26,74041.0,30031.0,104072.0,10,Long
2025-12-28,74041.0,29931.0,103972.0,10,Long
2025-12-29,74041.0,27531.0,101572.0,10,Long
2025-12-30,74041.0,26261.0,100302.0,10,Long
2025-12-31,74041.0,23411.0,97452.0,10,Long
2026-01-01,74041.0,24481.0,98522.0,10,Long
2026-01-02,74041.0,25961.0,100002.0,10,Long
2026-01-04,74041.0,26291.0,100332.0,10,Long
2026-01-05,74041.0,32431.0,106472.0,10,Long
2026-01-06,74041.0,37941.0,111982.0,10,Long
2026-01-07,74041.0,31531.0,105572.0,10,Long
2026-01-08,74041.0,34971.0,109012.0,10,Long
2026-01-09,74041.0,37301.0,111342.0,10,Long
2026-01-11,74041.0,34751.0,108792.0,10,Long
2026-01-12,74041.0,37961.0,112002.0,10,Long
2026-01-13,74041.0,32731.0,106772.0,10,Long
2026-01-14,74041.0,32991.0,107032.0,10,Long
2026-01-15,74041.0,37431.0,111472.0,10,Long
2026-01-16,74041.0,35521.0,109562.0,10,Long
2026-01-18,74041.0,31731.0,105772.0,10,Long
2026-01-19,74041.0,30771.0,104812.0,10,Long
2026-01-20,74041.0,27611.0,101652.0,10,Long
2026-01-21,74041.0,33531.0,107572.0,10,Long
2026-01-22,74041.0,35931.0,109972.0,10,Long
2026-01-23,74041.0,31761.0,105802.0,10,Long
2026-01-25,74041.0,31321.0,105362.0,10,Long
2026-01-26,74041.0,35141.0,109182.0,10,Long
2026-01-27,74041.0,31421.0,105462.0,10,Long
2026-01-28,74041.0,31211.0,105252.0,10,Long
2026-01-29,74041.0,29751.0,103792.0,10,Long
2026-01-30,74041.0,29781.0,103822.0,10,Long
2026-02-01,74041.0,26461.0,100502.0,10,Long
2026-02-02,74041.0,35641.0,109682.0,10,Long
2026-02-03,74041.0,33991.0,108032.0,10,Long
2026-02-04,74041.0,35291.0,109332.0,10,Long
2026-02-05,74041.0,28711.0,102752.0,10,Long
2026-02-06,74041.0,41981.0,116022.0,10,Long
2026-02-08,74041.0,42781.0,116822.0,10,Long
2026-02-09,74041.0,42331.0,116372.0,10,Long
2026-02-10,74041.0,43891.0,117932.0,10,Long
2026-02-11,74041.0,43471.0,117512.0,10,Long
2026-02-12,74041.0,34941.0,108982.0,10,Long
2026-02-13,74041.0,35211.0,109252.0,10,Long
2026-02-15,74041.0,36371.0,110412.0,10,Long
2026-02-16,74041.0,34231.0,108272.0,10,Long
2026-02-17,74041.0,36451.0,110492.0,10,Long
2026-02-18,74041.0,36951.0,110992.0,10,Long
2026-02-19,74041.0,35151.0,109192.0,10,Long
2026-02-20,74041.0,36761.0,110802.0,10,Long
2026-02-22,74041.0,33531.0,107572.0,10,Long
2026-02-23,74041.0,29311.0,103352.0,10,Long
2026-02-24,74041.0,32281.0,106322.0,10,Long
2026-02-25,74041.0,34411.0,108452.0,10,Long
2026-02-26,74041.0,32891.0,106932.0,10,Long
2026-02-27,74041.0,29031.0,103072.0,10,Long
2026-03-01,74041.0,25741.0,99782.0,10,Long
2026-03-02,74041.0,25911.0,99952.0,10,Long
2026-03-03,74041.0,23891.0,97932.0,10,Long
2026-03-04,74041.0,26711.0,100752.0,10,Long
2026-03-05,74041.0,20781.0,94822.0,10,Long
2026-03-06,74041.0,14811.0,88852.0,10,Long
2026-03-08,74041.0,6551.0,80592.0,10,Long
