date,realized_points,open_unrealized_points,total_equity_points,open_units,direction
2019-05-05,0.0,0.0,0.0,0,
2019-05-06,0.0,0.0,0.0,0,
2019-05-07,0.0,0.0,0.0,0,
2019-05-08,0.0,0.0,0.0,0,
2019-05-09,0.0,0.0,0.0,0,
2019-05-10,0.0,0.0,0.0,0,
2019-05-12,0.0,0.0,0.0,0,
2019-05-13,0.0,0.0,0.0,0,
2019-05-14,0.0,0.0,0.0,0,
2019-05-15,0.0,0.0,0.0,0,
2019-05-16,0.0,0.0,0.0,0,
2019-05-17,0.0,0.0,0.0,0,
2019-05-19,0.0,0.0,0.0,0,
2019-05-20,0.0,0.0,0.0,0,
2019-05-21,0.0,0.0,0.0,0,
2019-05-22,0.0,0.0,0.0,0,
2019-05-23,0.0,0.0,0.0,0,
2019-05-24,0.0,0.0,0.0,0,
2019-05-26,0.0,0.0,0.0,0,
2019-05-27,0.0,0.0,0.0,0,
2019-05-28,0.0,0.0,0.0,0,
2019-05-29,0.0,0.0,0.0,0,
2019-05-30,0.0,0.0,0.0,0,
2019-05-31,0.0,0.0,0.0,0,
2019-06-02,0.0,0.0,0.0,0,
2019-06-03,0.0,0.0,0.0,0,
2019-06-04,0.0,0.0,0.0,0,
2019-06-05,0.0,0.0,0.0,0,
2019-06-06,0.0,0.0,0.0,0,
2019-06-07,0.0,0.0,0.0,0,
2019-06-09,0.0,-5.25,-5.25,1,Long
2019-06-10,0.0,46.5,46.5,1,Long
2019-06-11,0.0,53.0,53.0,1,Long
2019-06-12,0.0,28.75,28.75,1,Long
2019-06-13,0.0,34.5,34.5,1,Long
2019-06-14,0.0,23.0,23.0,1,Long
2019-06-16,0.0,65.0,65.0,1,Long
2019-06-17,0.0,101.75,101.75,1,Long
2019-06-18,0.0,224.0,224.0,1,Long
2019-06-19,0.0,266.25,266.25,1,Long
2019-06-20,0.0,302.75,302.75,1,Long
2019-06-21,0.0,285.25,285.25,2,Long
2019-06-23,0.0,332.75,332.75,2,Long
2019-06-24,0.0,310.25,310.25,2,Long
2019-06-25,0.0,44.75,44.75,2,Long
2019-06-26,0.0,99.75,99.75,2,Long
2019-06-27,0.0,183.75,183.75,2,Long
2019-06-28,0.0,240.25,240.25,2,Long
2019-06-30,0.0,397.25,397.25,2,Long
2019-07-01,0.0,347.25,347.25,2,Long
2019-07-02,0.0,463.25,463.25,2,Long
2019-07-03,0.0,572.25,572.25,2,Long
2019-07-04,0.0,600.75,600.75,2,Long
2019-07-05,0.0,501.75,501.75,3,Long
2019-07-07,0.0,465.75,465.75,3,Long
2019-07-08,0.0,319.5,319.5,3,Long
2019-07-09,0.0,478.5,478.5,3,Long
2019-07-10,0.0,719.25,719.25,3,Long
2019-07-11,0.0,702.75,702.75,3,Long
2019-07-12,0.0,811.5,811.5,3,Long
2019-07-14,0.0,793.5,793.5,3,Long
2019-07-15,0.0,921.0,921.0,3,Long
2019-07-16,0.0,762.0,762.0,3,Long
2019-07-17,0.0,556.5,556.5,3,Long
2019-07-18,0.0,774.75,774.75,3,Long
2019-07-19,0.0,394.5,394.5,4,Long
2019-07-21,0.0,522.5,522.5,4,Long
2019-07-22,0.0,833.5,833.5,4,Long
2019-07-23,0.0,932.5,932.5,4,Long
2019-07-24,0.0,1185.5,1185.5,4,Long
2019-07-25,0.0,1089.5,1089.5,4,Long
2019-07-26,0.0,1178.5,1178.5,4,Long
2019-07-28,0.0,1190.5,1190.5,4,Long
2019-07-29,0.0,1158.5,1158.5,4,Long
2019-07-30,0.0,1076.5,1076.5,4,Long
2019-07-31,0.0,468.5,468.5,4,Long
2019-08-01,0.0,261.5,261.5,4,Long
2019-08-02,0.0,-48.5,-48.5,4,Long
2019-08-04,-57.5,0.0,-57.5,0,
2019-08-05,-57.5,0.0,-57.5,0,
2019-08-06,-57.5,0.0,-57.5,0,
2019-08-07,-57.5,0.0,-57.5,0,
2019-08-08,-57.5,0.0,-57.5,0,
2019-08-09,-57.5,0.0,-57.5,0,
2019-08-11,-57.5,0.0,-57.5,0,
2019-08-12,-57.5,0.0,-57.5,0,
2019-08-13,-57.5,0.0,-57.5,0,
2019-08-14,-57.5,0.0,-57.5,0,
2019-08-15,-57.5,0.0,-57.5,0,
2019-08-16,-57.5,0.0,-57.5,0,
2019-08-18,-57.5,0.0,-57.5,0,
2019-08-19,-57.5,0.0,-57.5,0,
2019-08-20,-57.5,0.0,-57.5,0,
2019-08-21,-57.5,0.0,-57.5,0,
2019-08-22,-57.5,0.0,-57.5,0,
2019-08-23,-57.5,0.0,-57.5,0,
2019-08-25,-57.5,0.0,-57.5,0,
2019-08-26,-57.5,0.0,-57.5,0,
2019-08-27,-57.5,0.0,-57.5,0,
2019-08-28,-57.5,0.0,-57.5,0,
2019-08-29,-57.5,0.0,-57.5,0,
2019-08-30,-57.5,0.0,-57.5,0,
2019-09-01,-57.5,0.0,-57.5,0,
2019-09-02,-57.5,0.0,-57.5,0,
2019-09-03,-57.5,0.0,-57.5,0,
2019-09-04,-57.5,0.0,-57.5,0,
2019-09-05,-57.5,0.0,-57.5,0,
2019-09-06,-57.5,-8.0,-65.5,1,Long
2019-09-08,-57.5,-9.25,-66.75,1,Long
2019-09-09,-57.5,-30.25,-87.75,1,Long
2019-09-10,-57.5,-62.25,-119.75,1,Long
2019-09-11,-57.5,78.75,21.25,1,Long
2019-09-12,-57.5,60.25,2.75,1,Long
2019-09-13,-57.5,38.25,-19.25,1,Long
2019-09-15,-57.5,-33.75,-91.25,1,Long
2019-09-16,-57.5,12.0,-45.5,1,Long
2019-09-17,-57.5,38.25,-19.25,1,Long
2019-09-18,-57.5,33.0,-24.5,1,Long
2019-09-19,-57.5,54.0,-3.5,1,Long
2019-09-20,-57.5,-41.25,-98.75,2,Long
2019-09-22,-57.5,47.25,-10.25,2,Long
2019-09-23,-57.5,64.75,7.25,2,Long
2019-09-24,-57.5,-200.25,-257.75,2,Long
2019-09-25,-57.5,-73.25,-130.75,2,Long
2019-09-26,-57.5,-151.25,-208.75,2,Long
2019-09-27,-57.5,-274.75,-332.25,2,Long
2019-09-29,-57.5,-259.25,-316.75,2,Long
2019-09-30,-57.5,-143.25,-200.75,2,Long
2019-10-01,-57.5,-261.75,-319.25,2,Long
2019-10-02,-57.5,-587.75,-645.25,2,Long
2019-10-03,-644.25,0.0,-644.25,0,
2019-10-04,-644.25,0.0,-644.25,0,
2019-10-06,-644.25,0.0,-644.25,0,
2019-10-07,-644.25,0.0,-644.25,0,
2019-10-08,-644.25,0.0,-644.25,0,
2019-10-09,-644.25,0.0,-644.25,0,
2019-10-10,-644.25,0.0,-644.25,0,
2019-10-11,-644.25,0.0,-644.25,0,
2019-10-13,-644.25,0.0,-644.25,0,
2019-10-14,-644.25,0.0,-644.25,0,
2019-10-15,-644.25,0.0,-644.25,0,
2019-10-16,-644.25,0.0,-644.25,0,
2019-10-17,-644.25,0.0,-644.25,0,
2019-10-18,-644.25,0.0,-644.25,0,
2019-10-20,-644.25,0.0,-644.25,0,
2019-10-21,-644.25,0.0,-644.25,0,
2019-10-22,-644.25,0.0,-644.25,0,
2019-10-23,-644.25,0.0,-644.25,0,
2019-10-24,-644.25,0.0,-644.25,0,
2019-10-25,-644.25,0.0,-644.25,0,
2019-10-27,-644.25,9.0,-635.25,1,Long
2019-10-28,-644.25,64.75,-579.5,1,Long
2019-10-29,-644.25,11.0,-633.25,1,Long
2019-10-30,-644.25,75.25,-569.0,1,Long
2019-10-31,-644.25,41.5,-602.75,1,Long
2019-11-01,-644.25,115.0,-529.25,1,Long
2019-11-03,-644.25,128.75,-515.5,1,Long
2019-11-04,-644.25,191.75,-452.5,1,Long
2019-11-05,-644.25,165.25,-479.0,1,Long
2019-11-06,-644.25,155.25,-489.0,1,Long
2019-11-07,-644.25,189.25,-455.0,1,Long
2019-11-08,-644.25,212.0,-432.25,2,Long
2019-11-10,-644.25,196.5,-447.75,2,Long
2019-11-11,-644.25,180.0,-464.25,2,Long
2019-11-12,-644.25,221.0,-423.25,2,Long
2019-11-13,-644.25,220.5,-423.75,2,Long
2019-11-14,-644.25,235.0,-409.25,2,Long
2019-11-15,-644.25,339.5,-304.75,2,Long
2019-11-17,-644.25,312.5,-331.75,2,Long
2019-11-18,-644.25,347.5,-296.75,2,Long
2019-11-19,-644.25,327.5,-316.75,2,Long
2019-11-20,-644.25,232.5,-411.75,2,Long
2019-11-21,-644.25,232.0,-412.25,2,Long
2019-11-22,-644.25,256.0,-388.25,3,Long
2019-11-24,-644.25,330.25,-314.0,3,Long
2019-11-25,-644.25,536.5,-107.75,3,Long
2019-11-26,-644.25,614.5,-29.75,3,Long
2019-11-27,-644.25,686.5,42.25,3,Long
2019-11-28,-644.25,757.75,113.5,3,Long
2019-11-29,-644.25,673.75,29.5,3,Long
2019-12-01,-644.25,703.0,58.75,3,Long
2019-12-02,-644.25,322.75,-321.5,3,Long
2019-12-03,-644.25,195.25,-449.0,3,Long
2019-12-04,-644.25,282.25,-362.0,3,Long
2019-12-05,-644.25,354.25,-290.0,3,Long
2019-12-06,-644.25,619.75,-24.5,4,Long
2019-12-08,-644.25,624.75,-19.5,4,Long
2019-12-09,-644.25,439.75,-204.5,4,Long
2019-12-10,-644.25,450.75,-193.5,4,Long
2019-12-11,-644.25,665.75,21.5,4,Long
2019-12-12,-644.25,1014.75,370.5,4,Long
2019-12-13,-644.25,1095.75,451.5,4,Long
2019-12-15,-644.25,1148.75,504.5,4,Long
2019-12-16,-644.25,1401.75,757.5,4,Long
2019-12-17,-644.25,1419.75,775.5,4,Long
2019-12-18,-644.25,1494.75,850.5,4,Long
2019-12-19,-644.25,1726.75,1082.5,4,Long
2019-12-20,-644.25,1847.75,1203.5,5,Long
2019-12-22,-644.25,1907.75,1263.5,5,Long
2019-12-23,-644.25,1942.75,1298.5,5,Long
2019-12-24,-644.25,1946.5,1302.25,5,Long
2019-12-25,-644.25,1947.75,1303.5,5,Long
2019-12-26,-644.25,2336.5,1692.25,5,Long
2019-12-27,-644.25,2190.25,1546.0,5,Long
2019-12-29,-644.25,2285.25,1641.0,5,Long
2019-12-30,-644.25,1971.5,1327.25,5,Long
2019-12-31,-644.25,2154.0,1509.75,5,Long
2020-01-01,-644.25,2176.5,1532.25,5,Long
2020-01-02,-644.25,2790.25,2146.0,5,Long
2020-01-03,-644.25,2347.75,1703.5,5,Long
2020-01-05,-644.25,2186.5,1542.25,5,Long
2020-01-06,-644.25,2541.5,1897.25,5,Long
2020-01-07,-644.25,2056.5,1412.25,5,Long
2020-01-08,-644.25,3056.5,2412.25,5,Long
2020-01-09,-644.25,3374.0,2729.75,5,Long
2020-01-10,-644.25,3187.75,2543.5,5,Long
2020-01-12,-644.25,3234.0,2589.75,5,Long
2020-01-13,-644.25,3821.5,3177.25,5,Long
2020-01-14,-644.25,3451.5,2807.25,5,Long
2020-01-15,-644.25,3667.75,3023.5,5,Long
2020-01-16,-644.25,4025.25,3381.0,5,Long
2020-01-17,-644.25,4152.75,3508.5,5,Long
2020-01-19,-644.25,4220.25,3576.0,5,Long
2020-01-20,-644.25,4146.5,3502.25,5,Long
2020-01-21,-644.25,4187.75,3543.5,5,Long
2020-01-22,-644.25,4209.0,3564.75,5,Long
2020-01-23,-644.25,4646.5,4002.25,5,Long
2020-01-24,-644.25,3982.75,3338.5,5,Long
2020-01-26,-644.25,3369.0,2724.75,5,Long
2020-01-27,-644.25,3190.25,2546.0,5,Long
2020-01-28,-644.25,3796.5,3152.25,5,Long
2020-01-29,-644.25,3905.25,3261.0,5,Long
2020-01-30,-644.25,4386.5,3742.25,5,Long
2020-01-31,-644.25,3359.0,2714.75,5,Long
2020-02-02,-644.25,3397.75,2753.5,5,Long
2020-02-03,-644.25,3745.25,3101.0,5,Long
2020-02-04,-644.25,4986.5,4342.25,5,Long
2020-02-05,-644.25,5201.5,4557.25,5,Long
2020-02-06,-644.25,5630.25,4986.0,5,Long
2020-02-07,-644.25,5296.5,4652.25,5,Long
2020-02-09,-644.25,5077.75,4433.5,5,Long
2020-02-10,-644.25,5922.75,5278.5,5,Long
2020-02-11,-644.25,6002.75,5358.5,5,Long
2020-02-12,-644.25,6179.0,5534.75,5,Long
2020-02-13,-644.25,6345.25,5701.0,5,Long
2020-02-14,-644.25,6450.25,5806.0,5,Long
2020-02-16,-644.25,6616.5,5972.25,5,Long
2020-02-17,-644.25,6310.25,5666.0,5,Long
2020-02-18,-644.25,6617.75,5973.5,5,Long
2020-02-19,-644.25,7021.5,6377.25,5,Long
2020-02-20,-644.25,6160.25,5516.0,5,Long
2020-02-21,-644.25,5577.75,4933.5,5,Long
2020-02-23,-644.25,4845.25,4201.0,5,Long
2020-02-24,4202.25,0.0,4202.25,0,
2020-02-25,4202.25,0.0,4202.25,0,
2020-02-26,4202.25,0.0,4202.25,0,
2020-02-27,4202.25,0.0,4202.25,0,
2020-02-28,4202.25,0.0,4202.25,0,
2020-03-01,4202.25,0.0,4202.25,0,
2020-03-02,4202.25,0.0,4202.25,0,
2020-03-03,4202.25,0.0,4202.25,0,
2020-03-04,4202.25,0.0,4202.25,0,
2020-03-05,4202.25,0.0,4202.25,0,
2020-03-06,4202.25,0.0,4202.25,0,
2020-03-08,4202.25,0.0,4202.25,0,
2020-03-09,4202.25,0.0,4202.25,0,
2020-03-10,4202.25,0.0,4202.25,0,
2020-03-11,4202.25,0.0,4202.25,0,
2020-03-12,4202.25,0.0,4202.25,0,
2020-03-13,4202.25,0.0,4202.25,0,
2020-03-15,4202.25,0.0,4202.25,0,
2020-03-16,4202.25,0.0,4202.25,0,
2020-03-17,4202.25,0.0,4202.25,0,
2020-03-18,4202.25,0.0,4202.25,0,
2020-03-19,4202.25,0.0,4202.25,0,
2020-03-20,4202.25,0.0,4202.25,0,
2020-03-22,4202.25,0.0,4202.25,0,
2020-03-23,4202.25,0.0,4202.25,0,
2020-03-24,4202.25,0.0,4202.25,0,
2020-03-25,4202.25,0.0,4202.25,0,
2020-03-26,4202.25,0.0,4202.25,0,
2020-03-27,4202.25,0.0,4202.25,0,
2020-03-29,4202.25,0.0,4202.25,0,
2020-03-30,4202.25,0.0,4202.25,0,
2020-03-31,4202.25,0.0,4202.25,0,
2020-04-01,4202.25,0.0,4202.25,0,
2020-04-02,4202.25,0.0,4202.25,0,
2020-04-03,4202.25,0.0,4202.25,0,
2020-04-05,4202.25,0.0,4202.25,0,
2020-04-06,4202.25,0.0,4202.25,0,
2020-04-07,4202.25,0.0,4202.25,0,
2020-04-08,4202.25,0.0,4202.25,0,
2020-04-09,4202.25,13.25,4215.5,1,Long
2020-04-12,4202.25,-108.25,4094.0,1,Long
2020-04-13,4202.25,139.0,4341.25,1,Long
2020-04-14,4202.25,447.0,4649.25,1,Long
2020-04-15,4202.25,306.25,4508.5,1,Long
2020-04-16,4202.25,706.75,4909.0,1,Long
2020-04-17,4202.25,581.5,4783.75,1,Long
2020-04-19,4202.25,520.5,4722.75,1,Long
2020-04-20,4202.25,503.75,4706.0,1,Long
2020-04-21,4202.25,231.5,4433.75,1,Long
2020-04-22,4202.25,390.0,4592.25,1,Long
2020-04-23,4202.25,325.75,4528.0,1,Long
2020-04-24,4202.25,540.75,4743.0,2,Long
2020-04-26,4202.25,513.25,4715.5,2,Long
2020-04-27,4202.25,653.25,4855.5,2,Long
2020-04-28,4202.25,541.75,4744.0,2,Long
2020-04-29,4202.25,1188.25,5390.5,2,Long
2020-04-30,4202.25,682.75,4885.0,2,Long
2020-05-01,4202.25,410.25,4612.5,2,Long
2020-05-03,4202.25,172.25,4374.5,2,Long
2020-05-04,4202.25,653.75,4856.0,2,Long
2020-05-05,4202.25,918.75,5121.0,2,Long
2020-05-06,4202.25,935.75,5138.0,2,Long
2020-05-07,4202.25,1288.75,5491.0,2,Long
2020-05-08,4202.25,1448.75,5651.0,3,Long
2020-05-10,4202.25,1545.5,5747.75,3,Long
2020-05-11,4202.25,1616.75,5819.0,3,Long
2020-05-12,4202.25,827.75,5030.0,3,Long
2020-05-13,4202.25,819.5,5021.75,3,Long
2020-05-14,4202.25,1108.25,5310.5,3,Long
2020-05-15,4202.25,1144.25,5346.5,3,Long
2020-05-17,4202.25,1279.25,5481.5,3,Long
2020-05-18,4202.25,1817.75,6020.0,3,Long
2020-05-19,4202.25,1739.75,5942.0,3,Long
2020-05-20,4202.25,2242.25,6444.5,3,Long
2020-05-21,4202.25,1993.25,6195.5,3,Long
2020-05-22,4202.25,2053.25,6255.5,4,Long
2020-05-24,4202.25,2186.25,6388.5,4,Long
2020-05-25,4202.25,2403.25,6605.5,4,Long
2020-05-26,4202.25,1940.25,6142.5,4,Long
2020-05-27,4202.25,2131.25,6333.5,4,Long
2020-05-28,4202.25,2035.25,6237.5,4,Long
2020-05-29,4202.25,2718.25,6920.5,4,Long
2020-05-31,4202.25,2391.25,6593.5,4,Long
2020-06-01,4202.25,2625.25,6827.5,4,Long
2020-06-02,4202.25,3062.25,7264.5,4,Long
2020-06-03,4202.25,3149.25,7351.5,4,Long
2020-06-04,4202.25,2837.25,7039.5,4,Long
2020-06-05,4202.25,3592.25,7794.5,5,Long
2020-06-07,4202.25,3908.5,8110.75,5,Long
2020-06-08,4202.25,3954.75,8157.0,5,Long
2020-06-09,4202.25,4501.0,8703.25,5,Long
2020-06-10,4202.25,4772.25,8974.5,5,Long
2020-06-11,4202.25,2948.5,7150.75,5,Long
2020-06-12,4202.25,2766.0,6968.25,5,Long
2020-06-14,4202.25,2246.0,6448.25,5,Long
2020-06-15,4202.25,3881.0,8083.25,5,Long
2020-06-16,4202.25,4474.75,8677.0,5,Long
2020-06-17,4202.25,4302.25,8504.5,5,Long
2020-06-18,4202.25,4658.5,8860.75,5,Long
2020-06-19,4202.25,4177.25,8379.5,5,Long
2020-06-21,4202.25,4079.75,8282.0,5,Long
2020-06-22,4202.25,5303.5,9505.75,5,Long
2020-06-23,4202.25,5458.5,9660.75,5,Long
2020-06-24,4202.25,4422.25,8624.5,5,Long
2020-06-25,4202.25,5086.0,9288.25,5,Long
2020-06-26,4202.25,3774.75,7977.0,5,Long
2020-06-28,4202.25,3689.75,7892.0,5,Long
2020-06-29,4202.25,4518.5,8720.75,5,Long
2020-06-30,4202.25,4728.5,8930.75,5,Long
2020-07-01,4202.25,5902.25,10104.5,5,Long
2020-07-02,4202.25,6304.75,10507.0,5,Long
2020-07-03,4202.25,6181.0,10383.25,5,Long
2020-07-05,4202.25,6519.75,10722.0,5,Long
2020-07-06,4202.25,7754.75,11957.0,5,Long
2020-07-07,4202.25,7306.0,11508.25,5,Long
2020-07-08,4202.25,7967.25,12169.5,5,Long
2020-07-09,4202.25,8326.0,12528.25,5,Long
2020-07-10,4202.25,8768.5,12970.75,5,Long
2020-07-12,4202.25,8938.5,13140.75,5,Long
2020-07-13,4202.25,7782.25,11984.5,5,Long
2020-07-14,4202.25,8142.25,12344.5,5,Long
2020-07-15,4202.25,7791.0,11993.25,5,Long
2020-07-16,4202.25,7388.5,11590.75,5,Long
2020-07-17,4202.25,7672.25,11874.5,5,Long
2020-07-19,4202.25,7792.25,11994.5,5,Long
2020-07-20,4202.25,9303.5,13505.75,5,Long
2020-07-21,4202.25,8921.0,13123.25,5,Long
2020-07-22,4202.25,8669.75,12872.0,5,Long
2020-07-23,4202.25,7468.5,11670.75,5,Long
2020-07-24,4202.25,6869.75,11072.0,5,Long
2020-07-26,4202.25,6749.75,10952.0,5,Long
2020-07-27,4202.25,8047.25,12249.5,5,Long
2020-07-28,4202.25,7374.75,11577.0,5,Long
2020-07-29,4202.25,7952.25,12154.5,5,Long
2020-07-30,4202.25,9082.25,13284.5,5,Long
2020-07-31,4202.25,9132.25,13334.5,5,Long
2020-08-02,4202.25,9113.5,13315.75,5,Long
2020-08-03,4202.25,9737.25,13939.5,5,Long
2020-08-04,4202.25,9923.5,14125.75,5,Long
2020-08-05,4202.25,10001.0,14203.25,5,Long
2020-08-06,4202.25,10817.25,15019.5,5,Long
2020-08-07,4202.25,10209.75,14412.0,5,Long
2020-08-09,4202.25,10091.0,14293.25,5,Long
2020-08-10,4202.25,9924.75,14127.0,5,Long
2020-08-11,4202.25,9168.5,13370.75,5,Long
2020-08-12,4202.25,10213.5,14415.75,5,Long
2020-08-13,4202.25,10581.0,14783.25,5,Long
2020-08-14,4202.25,10283.5,14485.75,5,Long
2020-08-16,4202.25,10362.25,14564.5,5,Long
2020-08-17,4202.25,11079.75,15282.0,5,Long
2020-08-18,4202.25,11637.25,15839.5,5,Long
2020-08-19,4202.25,11007.25,15209.5,5,Long
2020-08-20,4202.25,12052.25,16254.5,5,Long
2020-08-21,4202.25,12369.75,16572.0,5,Long
2020-08-23,4202.25,12472.25,16674.5,5,Long
2020-08-24,4202.25,12788.5,16990.75,5,Long
2020-08-25,4202.25,13288.5,17490.75,5,Long
2020-08-26,4202.25,14393.5,18595.75,5,Long
2020-08-27,4202.25,14401.0,18603.25,5,Long
2020-08-28,4202.25,14573.5,18775.75,5,Long
2020-08-30,4202.25,14793.5,18995.75,5,Long
2020-08-31,4202.25,15181.0,19383.25,5,Long
2020-09-01,4202.25,16357.25,20559.5,5,Long
2020-09-02,4202.25,16663.5,20865.75,5,Long
2020-09-03,4202.25,12559.75,16762.0,5,Long
2020-09-04,16763.25,0.0,16763.25,0,
2020-09-06,16763.25,0.0,16763.25,0,
2020-09-07,16763.25,0.0,16763.25,0,
2020-09-08,16763.25,0.0,16763.25,0,
2020-09-09,16763.25,0.0,16763.25,0,
2020-09-10,16763.25,0.0,16763.25,0,
2020-09-11,16763.25,0.0,16763.25,0,
2020-09-13,16763.25,0.0,16763.25,0,
2020-09-14,16763.25,0.0,16763.25,0,
2020-09-15,16763.25,0.0,16763.25,0,
2020-09-16,16763.25,0.0,16763.25,0,
2020-09-17,16763.25,0.0,16763.25,0,
2020-09-18,16763.25,0.0,16763.25,0,
2020-09-20,16763.25,0.0,16763.25,0,
2020-09-21,16763.25,0.0,16763.25,0,
2020-09-22,16763.25,0.0,16763.25,0,
2020-09-23,16763.25,0.0,16763.25,0,
2020-09-24,16763.25,0.0,16763.25,0,
2020-09-25,16763.25,0.0,16763.25,0,
2020-09-27,16763.25,0.0,16763.25,0,
2020-09-28,16763.25,0.0,16763.25,0,
2020-09-29,16763.25,0.0,16763.25,0,
2020-09-30,16763.25,0.0,16763.25,0,
2020-10-01,16763.25,0.0,16763.25,0,
2020-10-02,16763.25,0.0,16763.25,0,
2020-10-04,16763.25,0.0,16763.25,0,
2020-10-05,16763.25,0.0,16763.25,0,
2020-10-06,16763.25,0.0,16763.25,0,
2020-10-07,16763.25,0.0,16763.25,0,
2020-10-08,16763.25,0.0,16763.25,0,
2020-10-09,16763.25,0.0,16763.25,0,
2020-10-11,16763.25,0.0,16763.25,0,
2020-10-12,16763.25,365.75,17129.0,1,Long
2020-10-13,16763.25,371.25,17134.5,1,Long
2020-10-14,16763.25,217.5,16980.75,1,Long
2020-10-15,16763.25,172.0,16935.25,1,Long
2020-10-16,16763.25,49.75,16813.0,1,Long
2020-10-18,16763.25,129.5,16892.75,1,Long
2020-10-19,16763.25,-28.5,16734.75,1,Long
2020-10-20,16763.25,-39.75,16723.5,1,Long
2020-10-21,16763.25,-118.25,16645.0,1,Long
2020-10-22,16763.25,-78.75,16684.5,1,Long
2020-10-23,16763.25,-74.0,16689.25,2,Long
2020-10-25,16763.25,-158.5,16604.75,2,Long
2020-10-26,16763.25,-434.5,16328.75,2,Long
2020-10-27,16763.25,-337.5,16425.75,2,Long
2020-10-28,16763.25,-1034.5,15728.75,2,Long
2020-10-29,15728.25,0.0,15728.25,0,
2020-10-30,15728.25,0.0,15728.25,0,
2020-11-01,15728.25,0.0,15728.25,0,
2020-11-02,15728.25,0.0,15728.25,0,
2020-11-03,15728.25,0.0,15728.25,0,
2020-11-04,15728.25,0.0,15728.25,0,
2020-11-05,15728.25,272.25,16000.5,1,Long
2020-11-06,15728.25,300.25,16028.5,1,Long
2020-11-08,15728.25,438.0,16166.25,1,Long
2020-11-09,15728.25,59.75,15788.0,1,Long
2020-11-10,15728.25,-197.0,15531.25,1,Long
2020-11-11,15728.25,102.0,15830.25,1,Long
2020-11-12,15728.25,57.0,15785.25,1,Long
2020-11-13,15728.25,151.75,15880.0,2,Long
2020-11-15,15728.25,350.25,16078.5,2,Long
2020-11-16,15728.25,356.75,16085.0,2,Long
2020-11-17,15728.25,217.75,15946.0,2,Long
2020-11-18,15728.25,20.25,15748.5,2,Long
2020-11-19,15728.25,134.25,15862.5,2,Long
2020-11-20,15728.25,81.75,15810.0,2,Long
2020-11-22,15728.25,122.25,15850.5,2,Long
2020-11-23,15728.25,163.25,15891.5,2,Long
2020-11-24,15728.25,511.75,16240.0,2,Long
2020-11-25,15728.25,618.75,16347.0,2,Long
2020-11-26,15728.25,568.75,16297.0,2,Long
2020-11-27,15728.25,806.75,16535.0,3,Long
2020-11-29,15728.25,936.5,16664.75,3,Long
2020-11-30,15728.25,1032.5,16760.75,3,Long
2020-12-01,15728.25,1338.5,17066.75,3,Long
2020-12-02,15728.25,1384.25,17112.5,3,Long
2020-12-03,15728.25,1441.25,17169.5,3,Long
2020-12-04,15728.25,1516.25,17244.5,3,Long
2020-12-06,15728.25,1619.75,17348.0,3,Long
2020-12-07,15728.25,1711.25,17439.5,3,Long
2020-12-08,15728.25,1927.25,17655.5,3,Long
2020-12-09,15728.25,1075.25,16803.5,3,Long
2020-12-10,15728.25,1195.25,16923.5,3,Long
2020-12-11,15728.25,1085.0,16813.25,4,Long
2020-12-13,15728.25,1285.0,17013.25,4,Long
2020-12-14,15728.25,1537.0,17265.25,4,Long
2020-12-15,15728.25,1999.0,17727.25,4,Long
2020-12-16,15728.25,2350.0,18078.25,4,Long
2020-12-17,15728.25,2619.0,18347.25,4,Long
2020-12-18,15728.25,2612.0,18340.25,4,Long
2020-12-20,15728.25,2615.0,18343.25,4,Long
2020-12-21,15728.25,2424.0,18152.25,4,Long
2020-12-22,15728.25,2500.0,18228.25,4,Long
2020-12-23,15728.25,2238.0,17966.25,4,Long
2020-12-24,15728.25,2435.0,18163.25,4,Long
2020-12-27,15728.25,2556.0,18284.25,4,Long
2020-12-28,15728.25,3026.0,18754.25,4,Long
2020-12-29,15728.25,2997.0,18725.25,4,Long
2020-12-30,15728.25,3013.0,18741.25,4,Long
2020-12-31,15728.25,3156.0,18884.25,4,Long
2021-01-03,15728.25,3074.0,18802.25,4,Long
2021-01-04,15728.25,2318.0,18046.25,4,Long
2021-01-05,15728.25,2798.0,18526.25,4,Long
2021-01-06,15728.25,2310.0,18038.25,4,Long
2021-01-07,15728.25,3372.0,19100.25,4,Long
2021-01-08,15728.25,4117.0,19845.25,5,Long
2021-01-10,15728.25,3907.0,19635.25,5,Long
2021-01-11,15728.25,3104.5,18832.75,5,Long
2021-01-12,15728.25,2978.25,18706.5,5,Long
2021-01-13,15728.25,3344.5,19072.75,5,Long
2021-01-14,15728.25,3079.5,18807.75,5,Long
2021-01-15,15728.25,2313.25,18041.5,5,Long
2021-01-17,15728.25,2224.5,17952.75,5,Long
2021-01-18,15728.25,2652.0,18380.25,5,Long
2021-01-19,15728.25,3743.25,19471.5,5,Long
2021-01-20,15728.25,5067.0,20795.25,5,Long
2021-01-21,15728.25,5413.25,21141.5,5,Long
2021-01-22,15728.25,5253.25,20981.5,5,Long
2021-01-24,15728.25,5484.5,21212.75,5,Long
2021-01-25,15728.25,5804.5,21532.75,5,Long
2021-01-26,15728.25,6290.75,22019.0,5,Long
2021-01-27,15728.25,3384.5,19112.75,5,Long
2021-01-28,15728.25,4178.25,19906.5,5,Long
2021-01-29,15728.25,2848.25,18576.5,5,Long
2021-01-31,18469.0,0.0,18469.0,0,
2021-02-01,18469.0,0.0,18469.0,0,
2021-02-02,18469.0,0.0,18469.0,0,
2021-02-03,18469.0,0.0,18469.0,0,
2021-02-04,18469.0,0.0,18469.0,0,
2021-02-05,18469.0,50.75,18519.75,1,Long
2021-02-07,18469.0,85.75,18554.75,1,Long
2021-02-08,18469.0,128.5,18597.5,1,Long
2021-02-09,18469.0,134.5,18603.5,1,Long
2021-02-10,18469.0,100.75,18569.75,1,Long
2021-02-11,18469.0,178.0,18647.0,1,Long
2021-02-12,18469.0,268.75,18737.75,1,Long
2021-02-14,18469.0,272.75,18741.75,1,Long
2021-02-15,18469.0,305.0,18774.0,1,Long
2021-02-16,18469.0,178.5,18647.5,1,Long
2021-02-17,18469.0,150.0,18619.0,1,Long
2021-02-18,18469.0,62.5,18531.5,1,Long
2021-02-19,18469.0,19.0,18488.0,2,Long
2021-02-21,18469.0,59.0,18528.0,2,Long
2021-02-22,18469.0,-668.0,17801.0,2,Long
2021-02-23,17801.0,0.0,17801.0,0,
2021-02-24,17801.0,0.0,17801.0,0,
2021-02-25,17801.0,0.0,17801.0,0,
2021-02-26,17801.0,0.0,17801.0,0,
2021-02-28,17801.0,0.0,17801.0,0,
2021-03-01,17801.0,0.0,17801.0,0,
2021-03-02,17801.0,0.0,17801.0,0,
2021-03-03,17801.0,0.0,17801.0,0,
2021-03-04,17801.0,0.0,17801.0,0,
2021-03-05,17801.0,0.0,17801.0,0,
2021-03-07,17801.0,0.0,17801.0,0,
2021-03-08,17801.0,0.0,17801.0,0,
2021-03-09,17801.0,0.0,17801.0,0,
2021-03-10,17801.0,0.0,17801.0,0,
2021-03-11,17801.0,0.0,17801.0,0,
2021-03-12,17801.0,0.0,17801.0,0,
2021-03-14,17801.0,0.0,17801.0,0,
2021-03-15,17801.0,0.0,17801.0,0,
2021-03-16,17801.0,0.0,17801.0,0,
2021-03-17,17801.0,0.0,17801.0,0,
2021-03-18,17801.0,0.0,17801.0,0,
2021-03-19,17801.0,0.0,17801.0,0,
2021-03-21,17801.0,0.0,17801.0,0,
2021-03-22,17801.0,0.0,17801.0,0,
2021-03-23,17801.0,0.0,17801.0,0,
2021-03-24,17801.0,0.0,17801.0,0,
2021-03-25,17801.0,0.0,17801.0,0,
2021-03-26,17801.0,0.0,17801.0,0,
2021-03-28,17801.0,0.0,17801.0,0,
2021-03-29,17801.0,0.0,17801.0,0,
2021-03-30,17801.0,0.0,17801.0,0,
2021-03-31,17801.0,0.0,17801.0,0,
2021-04-01,17801.0,0.0,17801.0,0,
2021-04-02,17801.0,0.0,17801.0,0,
2021-04-04,17801.0,0.0,17801.0,0,
2021-04-05,17801.0,0.0,17801.0,0,
2021-04-06,17801.0,-21.5,17779.5,1,Long
2021-04-07,17801.0,22.25,17823.25,1,Long
2021-04-08,17801.0,186.25,17987.25,1,Long
2021-04-09,17801.0,193.0,17994.0,1,Long
2021-04-11,17801.0,163.0,17964.0,1,Long
2021-04-12,17801.0,201.5,18002.5,1,Long
2021-04-13,17801.0,351.0,18152.0,1,Long
2021-04-14,17801.0,195.75,17996.75,1,Long
2021-04-15,17801.0,394.5,18195.5,1,Long
2021-04-16,17801.0,402.5,18203.5,2,Long
2021-04-18,17801.0,340.0,18141.0,2,Long
2021-04-19,17801.0,192.5,17993.5,2,Long
2021-04-20,17801.0,-150.0,17651.0,2,Long
2021-04-21,17801.0,124.5,17925.5,2,Long
2021-04-22,17801.0,-123.0,17678.0,2,Long
2021-04-23,17801.0,169.0,17970.0,2,Long
2021-04-25,17801.0,178.5,17979.5,2,Long
2021-04-26,17801.0,413.0,18214.0,2,Long
2021-04-27,17801.0,284.0,18085.0,2,Long
2021-04-28,17801.0,302.0,18103.0,2,Long
2021-04-29,17801.0,189.5,17990.5,2,Long
2021-04-30,17801.0,98.0,17899.0,3,Long
2021-05-02,17801.0,140.75,17941.75,3,Long
2021-05-03,17801.0,-191.5,17609.5,3,Long
2021-05-04,17801.0,-925.0,16876.0,3,Long
2021-05-05,17801.0,-997.75,16803.25,3,Long
2021-05-06,17801.0,-663.25,17137.75,3,Long
2021-05-07,17801.0,-346.75,17454.25,3,Long
2021-05-09,17801.0,-283.0,17518.0,3,Long
2021-05-10,17801.0,-1495.75,16305.25,3,Long
2021-05-11,16303.0,0.0,16303.0,0,
2021-05-12,16303.0,0.0,16303.0,0,
2021-05-13,16303.0,0.0,16303.0,0,
2021-05-14,16303.0,0.0,16303.0,0,
2021-05-16,16303.0,0.0,16303.0,0,
2021-05-17,16303.0,0.0,16303.0,0,
2021-05-18,16303.0,0.0,16303.0,0,
2021-05-19,16303.0,0.0,16303.0,0,
2021-05-20,16303.0,0.0,16303.0,0,
2021-05-21,16303.0,0.0,16303.0,0,
2021-05-23,16303.0,0.0,16303.0,0,
2021-05-24,16303.0,0.0,16303.0,0,
2021-05-25,16303.0,0.0,16303.0,0,
2021-05-26,16303.0,0.0,16303.0,0,
2021-05-27,16303.0,0.0,16303.0,0,
2021-05-28,16303.0,0.0,16303.0,0,
2021-05-30,16303.0,0.0,16303.0,0,
2021-05-31,16303.0,0.0,16303.0,0,
2021-06-01,16303.0,0.0,16303.0,0,
2021-06-02,16303.0,0.0,16303.0,0,
2021-06-03,16303.0,0.0,16303.0,0,
2021-06-04,16303.0,0.0,16303.0,0,
2021-06-06,16303.0,-4.5,16298.5,1,Long
2021-06-07,16303.0,50.75,16353.75,1,Long
2021-06-08,16303.0,45.0,16348.0,1,Long
2021-06-09,16303.0,43.0,16346.0,1,Long
2021-06-10,16303.0,195.75,16498.75,1,Long
2021-06-11,16303.0,212.75,16515.75,1,Long
2021-06-13,16303.0,237.5,16540.5,1,Long
2021-06-14,16303.0,334.25,16637.25,1,Long
2021-06-15,16303.0,259.25,16562.25,1,Long
2021-06-16,16303.0,114.5,16417.5,1,Long
2021-06-17,16303.0,403.5,16706.5,1,Long
2021-06-18,16303.0,201.5,16504.5,2,Long
2021-06-20,16303.0,242.0,16545.0,2,Long
2021-06-21,16303.0,435.5,16738.5,2,Long
2021-06-22,16303.0,710.5,17013.5,2,Long
2021-06-23,16303.0,738.0,17041.0,2,Long
2021-06-24,16303.0,858.5,17161.5,2,Long
2021-06-25,16303.0,828.0,17131.0,2,Long
2021-06-27,16303.0,875.0,17178.0,2,Long
2021-06-28,16303.0,1149.0,17452.0,2,Long
2021-06-29,16303.0,1341.0,17644.0,2,Long
2021-06-30,16303.0,1286.5,17589.5,2,Long
2021-07-01,16303.0,1231.5,17534.5,2,Long
2021-07-02,16303.0,1551.5,17854.5,3,Long
2021-07-04,16303.0,1593.5,17896.5,3,Long
2021-07-05,16303.0,1592.75,17895.75,3,Long
2021-07-06,16303.0,1744.25,18047.25,3,Long
2021-07-07,16303.0,1880.75,18183.75,3,Long
2021-07-08,16303.0,1526.0,17829.0,3,Long
2021-07-09,16303.0,1893.5,18196.5,3,Long
2021-07-11,16303.0,1938.5,18241.5,3,Long
2021-07-12,16303.0,2089.25,18392.25,3,Long
2021-07-13,16303.0,1985.0,18288.0,3,Long
2021-07-14,16303.0,2162.75,18465.75,3,Long
2021-07-15,16303.0,1721.0,18024.0,3,Long
2021-07-16,16303.0,1471.0,17774.0,4,Long
2021-07-18,16303.0,1361.0,17664.0,4,Long
2021-07-19,16303.0,1148.0,17451.0,4,Long
2021-07-20,16303.0,1762.0,18065.0,4,Long
2021-07-21,16303.0,2132.0,18435.0,4,Long
2021-07-22,16303.0,2673.0,18976.0,4,Long
2021-07-23,16303.0,3160.0,19463.0,4,Long
2021-07-25,16303.0,3274.0,19577.0,4,Long
2021-07-26,16303.0,3236.0,19539.0,4,Long
2021-07-27,16303.0,2471.0,18774.0,4,Long
2021-07-28,16303.0,2743.0,19046.0,4,Long
2021-07-29,16303.0,2270.0,18573.0,4,Long
2021-07-30,16303.0,2680.0,18983.0,5,Long
2021-08-01,16303.0,2852.5,19155.5,5,Long
2021-08-02,16303.0,2650.0,18953.0,5,Long
2021-08-03,16303.0,2998.75,19301.75,5,Long
2021-08-04,16303.0,3262.5,19565.5,5,Long
2021-08-05,16303.0,3646.25,19949.25,5,Long
2021-08-06,16303.0,3307.5,19610.5,5,Long
2021-08-08,16303.0,2953.75,19256.75,5,Long
2021-08-09,16303.0,3437.5,19740.5,5,Long
2021-08-10,16303.0,3021.25,19324.25,5,Long
2021-08-11,16303.0,2822.5,19125.5,5,Long
2021-08-12,16303.0,3182.5,19485.5,5,Long
2021-08-13,16303.0,3462.5,19765.5,5,Long
2021-08-15,16303.0,3413.75,19716.75,5,Long
2021-08-16,16303.0,3496.25,19799.25,5,Long
2021-08-17,16303.0,2628.75,18931.75,5,Long
2021-08-18,16303.0,2071.25,18374.25,5,Long
2021-08-19,16303.0,2427.5,18730.5,5,Long
2021-08-20,16303.0,3318.75,19621.75,5,Long
2021-08-22,16303.0,3380.0,19683.0,5,Long
2021-08-23,16303.0,4491.25,20794.25,5,Long
2021-08-24,16303.0,4632.5,20935.5,5,Long
2021-08-25,16303.0,4652.5,20955.5,5,Long
2021-08-26,16303.0,4235.0,20538.0,5,Long
2021-08-27,16303.0,4983.75,21286.75,5,Long
2021-08-29,16303.0,5106.25,21409.25,5,Long
2021-08-30,16303.0,5835.0,22138.0,5,Long
2021-08-31,16303.0,5828.75,22131.75,5,Long
2021-09-01,16303.0,5936.25,22239.25,5,Long
2021-09-02,16303.0,5828.75,22131.75,5,Long
2021-09-03,16303.0,6111.25,22414.25,5,Long
2021-09-05,16303.0,6095.0,22398.0,5,Long
2021-09-06,16303.0,6290.0,22593.0,5,Long
2021-09-07,16303.0,6153.75,22456.75,5,Long
2021-09-08,16303.0,5843.75,22146.75,5,Long
2021-09-09,16303.0,5663.75,21966.75,5,Long
2021-09-10,16303.0,5032.5,21335.5,5,Long
2021-09-12,16303.0,5266.25,21569.25,5,Long
2021-09-13,16303.0,5070.0,21373.0,5,Long
2021-09-14,16303.0,4878.75,21181.75,5,Long
2021-09-15,16303.0,5352.5,21655.5,5,Long
2021-09-16,16303.0,5251.25,21554.25,5,Long
2021-09-17,16303.0,4268.75,20571.75,5,Long
2021-09-19,20571.75,0.0,20571.75,0,
2021-09-20,20571.75,0.0,20571.75,0,
2021-09-21,20571.75,0.0,20571.75,0,
2021-09-22,20571.75,0.0,20571.75,0,
2021-09-23,20571.75,0.0,20571.75,0,
2021-09-24,20571.75,0.0,20571.75,0,
2021-09-26,20571.75,0.0,20571.75,0,
2021-09-27,20571.75,0.0,20571.75,0,
2021-09-28,20571.75,0.0,20571.75,0,
2021-09-29,20571.75,0.0,20571.75,0,
2021-09-30,20571.75,0.0,20571.75,0,
2021-10-01,20571.75,0.0,20571.75,0,
2021-10-03,20571.75,0.0,20571.75,0,
2021-10-04,20571.75,0.0,20571.75,0,
2021-10-05,20571.75,0.0,20571.75,0,
2021-10-06,20571.75,0.0,20571.75,0,
2021-10-07,20571.75,0.0,20571.75,0,
2021-10-08,20571.75,0.0,20571.75,0,
2021-10-10,20571.75,0.0,20571.75,0,
2021-10-11,20571.75,0.0,20571.75,0,
2021-10-12,20571.75,0.0,20571.75,0,
2021-10-13,20571.75,0.0,20571.75,0,
2021-10-14,20571.75,0.0,20571.75,0,
2021-10-15,20571.75,0.0,20571.75,0,
2021-10-17,20571.75,0.0,20571.75,0,
2021-10-18,20571.75,0.0,20571.75,0,
2021-10-19,20571.75,117.0,20688.75,1,Long
2021-10-20,20571.75,43.0,20614.75,1,Long
2021-10-21,20571.75,99.5,20671.25,1,Long
2021-10-22,20571.75,31.75,20603.5,1,Long
2021-10-24,20571.75,14.0,20585.75,1,Long
2021-10-25,20571.75,246.75,20818.5,1,Long
2021-10-26,20571.75,267.75,20839.5,1,Long
2021-10-27,20571.75,334.0,20905.75,1,Long
2021-10-28,20571.75,380.0,20951.75,1,Long
2021-10-29,20571.75,644.5,21216.25,2,Long
2021-10-31,20571.75,667.5,21239.25,2,Long
2021-11-01,20571.75,659.0,21230.75,2,Long
2021-11-02,20571.75,792.0,21363.75,2,Long
2021-11-03,20571.75,1278.5,21850.25,2,Long
2021-11-04,20571.75,1587.0,22158.75,2,Long
2021-11-05,20571.75,1593.0,22164.75,2,Long
2021-11-07,20571.75,1531.0,22102.75,2,Long
2021-11-08,20571.75,1528.0,22099.75,2,Long
2021-11-09,20571.75,1278.0,21849.75,2,Long
2021-11-10,20571.75,887.5,21459.25,2,Long
2021-11-11,20571.75,1035.5,21607.25,2,Long
2021-11-12,20571.75,1330.5,21902.25,3,Long
2021-11-14,20571.75,1404.0,21975.75,3,Long
2021-11-15,20571.75,1294.5,21866.25,3,Long
2021-11-16,20571.75,1641.0,22212.75,3,Long
2021-11-17,20571.75,1713.75,22285.5,3,Long
2021-11-18,20571.75,2213.25,22785.0,3,Long
2021-11-19,20571.75,2490.0,23061.75,3,Long
2021-11-21,20571.75,2491.5,23063.25,3,Long
2021-11-22,20571.75,1915.5,22487.25,3,Long
2021-11-23,20571.75,1584.75,22156.5,3,Long
2021-11-24,20571.75,1798.5,22370.25,3,Long
2021-11-25,20571.75,1838.25,22410.0,3,Long
2021-11-26,20571.75,859.5,21431.25,3,Long
2021-11-28,21435.75,0.0,21435.75,0,
2021-11-29,21435.75,0.0,21435.75,0,
2021-11-30,21435.75,0.0,21435.75,0,
2021-12-01,21435.75,0.0,21435.75,0,
2021-12-02,21435.75,0.0,21435.75,0,
2021-12-03,21435.75,0.0,21435.75,0,
2021-12-05,21435.75,0.0,21435.75,0,
2021-12-06,21435.75,0.0,21435.75,0,
2021-12-07,21435.75,0.0,21435.75,0,
2021-12-08,21435.75,0.0,21435.75,0,
2021-12-09,21435.75,0.0,21435.75,0,
2021-12-10,21435.75,0.0,21435.75,0,
2021-12-12,21435.75,0.0,21435.75,0,
2021-12-13,21435.75,0.0,21435.75,0,
2021-12-14,21435.75,0.0,21435.75,0,
2021-12-15,21435.75,0.0,21435.75,0,
2021-12-16,21435.75,0.0,21435.75,0,
2021-12-17,21435.75,0.0,21435.75,0,
2021-12-19,21435.75,0.0,21435.75,0,
2021-12-20,21435.75,0.0,21435.75,0,
2021-12-21,21435.75,0.0,21435.75,0,
2021-12-22,21435.75,0.0,21435.75,0,
2021-12-23,21435.75,0.0,21435.75,0,
2021-12-26,21435.75,0.0,21435.75,0,
2021-12-27,21435.75,0.0,21435.75,0,
2021-12-28,21435.75,-15.75,21420.0,1,Long
2021-12-29,21435.75,-91.75,21344.0,1,Long
2021-12-30,21435.75,-116.75,21319.0,1,Long
2021-12-31,21435.75,-221.5,21214.25,1,Long
2022-01-02,21435.75,-170.75,21265.0,1,Long
2022-01-03,21435.75,-71.0,21364.75,1,Long
2022-01-04,21435.75,-322.0,21113.75,1,Long
2022-01-05,21435.75,-770.5,20665.25,1,Long
2022-01-06,21435.75,-737.5,20698.25,1,Long
2022-01-07,21435.75,-982.25,20453.5,1,Long
2022-01-09,20470.25,0.0,20470.25,0,
2022-01-10,20470.25,0.0,20470.25,0,
2022-01-11,20470.25,0.0,20470.25,0,
2022-01-12,20470.25,0.0,20470.25,0,
2022-01-13,20470.25,0.0,20470.25,0,
2022-01-14,20470.25,0.0,20470.25,0,
2022-01-16,20470.25,0.0,20470.25,0,
2022-01-17,20470.25,0.0,20470.25,0,
2022-01-18,20470.25,0.0,20470.25,0,
2022-01-19,20470.25,0.0,20470.25,0,
2022-01-20,20470.25,0.0,20470.25,0,
2022-01-21,20470.25,0.0,20470.25,0,
2022-01-23,20470.25,0.0,20470.25,0,
2022-01-24,20470.25,0.0,20470.25,0,
2022-01-25,20470.25,0.0,20470.25,0,
2022-01-26,20470.25,0.0,20470.25,0,
2022-01-27,20470.25,0.0,20470.25,0,
2022-01-28,20470.25,0.0,20470.25,0,
2022-01-30,20470.25,0.0,20470.25,0,
2022-01-31,20470.25,0.0,20470.25,0,
2022-02-01,20470.25,0.0,20470.25,0,
2022-02-02,20470.25,0.0,20470.25,0,
2022-02-03,20470.25,0.0,20470.25,0,
2022-02-04,20470.25,0.0,20470.25,0,
2022-02-06,20470.25,0.0,20470.25,0,
2022-02-07,20470.25,0.0,20470.25,0,
2022-02-08,20470.25,0.0,20470.25,0,
2022-02-09,20470.25,0.0,20470.25,0,
2022-02-10,20470.25,0.0,20470.25,0,
2022-02-11,20470.25,0.0,20470.25,0,
2022-02-13,20470.25,0.0,20470.25,0,
2022-02-14,20470.25,0.0,20470.25,0,
2022-02-15,20470.25,0.0,20470.25,0,
2022-02-16,20470.25,0.0,20470.25,0,
2022-02-17,20470.25,0.0,20470.25,0,
2022-02-18,20470.25,0.0,20470.25,0,
2022-02-20,20470.25,0.0,20470.25,0,
2022-02-21,20470.25,0.0,20470.25,0,
2022-02-22,20470.25,0.0,20470.25,0,
2022-02-23,20470.25,0.0,20470.25,0,
2022-02-24,20470.25,0.0,20470.25,0,
2022-02-25,20470.25,0.0,20470.25,0,
2022-02-27,20470.25,0.0,20470.25,0,
2022-02-28,20470.25,0.0,20470.25,0,
2022-03-01,20470.25,0.0,20470.25,0,
2022-03-02,20470.25,0.0,20470.25,0,
2022-03-03,20470.25,0.0,20470.25,0,
2022-03-04,20470.25,0.0,20470.25,0,
2022-03-06,20470.25,0.0,20470.25,0,
2022-03-07,20470.25,0.0,20470.25,0,
2022-03-08,20470.25,0.0,20470.25,0,
2022-03-09,20470.25,0.0,20470.25,0,
2022-03-10,20470.25,0.0,20470.25,0,
2022-03-11,20470.25,0.0,20470.25,0,
2022-03-13,20470.25,0.0,20470.25,0,
2022-03-14,20470.25,0.0,20470.25,0,
2022-03-15,20470.25,0.0,20470.25,0,
2022-03-16,20470.25,0.0,20470.25,0,
2022-03-17,20470.25,0.0,20470.25,0,
2022-03-18,20470.25,0.0,20470.25,0,
2022-03-20,20470.25,0.0,20470.25,0,
2022-03-21,20470.25,0.0,20470.25,0,
2022-03-22,20470.25,0.0,20470.25,0,
2022-03-23,20470.25,-192.0,20278.25,1,Long
2022-03-24,20470.25,84.0,20554.25,1,Long
2022-03-25,20470.25,86.5,20556.75,1,Long
2022-03-27,20470.25,55.0,20525.25,1,Long
2022-03-28,20470.25,307.0,20777.25,1,Long
2022-03-29,20470.25,555.5,21025.75,1,Long
2022-03-30,20470.25,437.75,20908.0,1,Long
2022-03-31,20470.25,246.5,20716.75,1,Long
2022-04-01,20470.25,262.5,20732.75,2,Long
2022-04-03,20470.25,193.5,20663.75,2,Long
2022-04-04,20470.25,860.0,21330.25,2,Long
2022-04-05,20470.25,225.5,20695.75,2,Long
2022-04-06,20470.25,-547.0,19923.25,2,Long
2022-04-07,20470.25,-312.5,20157.75,2,Long
2022-04-08,20470.25,-787.5,19682.75,2,Long
2022-04-10,20470.25,-815.0,19655.25,2,Long
2022-04-11,20470.25,-1478.5,18991.75,2,Long
2022-04-12,18991.25,0.0,18991.25,0,
2022-04-13,18991.25,0.0,18991.25,0,
2022-04-14,18991.25,0.0,18991.25,0,
2022-04-17,18991.25,0.0,18991.25,0,
2022-04-18,18991.25,0.0,18991.25,0,
2022-04-19,18991.25,0.0,18991.25,0,
2022-04-20,18991.25,0.0,18991.25,0,
2022-04-21,18991.25,0.0,18991.25,0,
2022-04-22,18991.25,0.0,18991.25,0,
2022-04-24,18991.25,0.0,18991.25,0,
2022-04-25,18991.25,0.0,18991.25,0,
2022-04-26,18991.25,0.0,18991.25,0,
2022-04-27,18991.25,0.0,18991.25,0,
2022-04-28,18991.25,0.0,18991.25,0,
2022-04-29,18991.25,0.0,18991.25,0,
2022-05-01,18991.25,0.0,18991.25,0,
2022-05-02,18991.25,0.0,18991.25,0,
2022-05-03,18991.25,0.0,18991.25,0,
2022-05-04,18991.25,0.0,18991.25,0,
2022-05-05,18991.25,0.0,18991.25,0,
2022-05-06,18991.25,0.0,18991.25,0,
2022-05-08,18991.25,0.0,18991.25,0,
2022-05-09,18991.25,0.0,18991.25,0,
2022-05-10,18991.25,0.0,18991.25,0,
2022-05-11,18991.25,0.0,18991.25,0,
2022-05-12,18991.25,0.0,18991.25,0,
2022-05-13,18991.25,0.0,18991.25,0,
2022-05-15,18991.25,0.0,18991.25,0,
2022-05-16,18991.25,0.0,18991.25,0,
2022-05-17,18991.25,0.0,18991.25,0,
2022-05-18,18991.25,0.0,18991.25,0,
2022-05-19,18991.25,0.0,18991.25,0,
2022-05-20,18991.25,0.0,18991.25,0,
2022-05-22,18991.25,0.0,18991.25,0,
2022-05-23,18991.25,0.0,18991.25,0,
2022-05-24,18991.25,0.0,18991.25,0,
2022-05-25,18991.25,0.0,18991.25,0,
2022-05-26,18991.25,0.0,18991.25,0,
2022-05-27,18991.25,0.0,18991.25,0,
2022-05-29,18991.25,0.0,18991.25,0,
2022-05-30,18991.25,0.0,18991.25,0,
2022-05-31,18991.25,0.0,18991.25,0,
2022-06-01,18991.25,0.0,18991.25,0,
2022-06-02,18991.25,0.0,18991.25,0,
2022-06-03,18991.25,-371.5,18619.75,1,Long
2022-06-05,18991.25,-371.5,18619.75,1,Long
2022-06-06,18991.25,-318.25,18673.0,1,Long
2022-06-07,18991.25,-250.75,18740.5,1,Long
2022-06-08,18991.25,-297.0,18694.25,1,Long
2022-06-09,18991.25,-633.0,18358.25,1,Long
2022-06-10,18991.25,-1059.75,17931.5,1,Long
2022-06-12,18991.25,-1227.5,17763.75,1,Long
2022-06-13,17763.0,0.0,17763.0,0,
2022-06-14,17763.0,0.0,17763.0,0,
2022-06-15,17763.0,0.0,17763.0,0,
2022-06-16,17763.0,0.0,17763.0,0,
2022-06-17,17763.0,0.0,17763.0,0,
2022-06-19,17763.0,0.0,17763.0,0,
2022-06-20,17763.0,0.0,17763.0,0,
2022-06-21,17763.0,0.0,17763.0,0,
2022-06-22,17763.0,0.0,17763.0,0,
2022-06-23,17763.0,0.0,17763.0,0,
2022-06-24,17763.0,0.0,17763.0,0,
2022-06-26,17763.0,0.0,17763.0,0,
2022-06-27,17763.0,0.0,17763.0,0,
2022-06-28,17763.0,0.0,17763.0,0,
2022-06-29,17763.0,0.0,17763.0,0,
2022-06-30,17763.0,0.0,17763.0,0,
2022-07-01,17763.0,0.0,17763.0,0,
2022-07-03,17763.0,0.0,17763.0,0,
2022-07-04,17763.0,0.0,17763.0,0,
2022-07-05,17763.0,0.0,17763.0,0,
2022-07-06,17763.0,0.0,17763.0,0,
2022-07-07,17763.0,0.0,17763.0,0,
2022-07-08,17763.0,0.0,17763.0,0,
2022-07-10,17763.0,0.0,17763.0,0,
2022-07-11,17763.0,0.0,17763.0,0,
2022-07-12,17763.0,0.0,17763.0,0,
2022-07-13,17763.0,0.0,17763.0,0,
2022-07-14,17763.0,0.0,17763.0,0,
2022-07-15,17763.0,0.0,17763.0,0,
2022-07-17,17763.0,0.0,17763.0,0,
2022-07-18,17763.0,0.0,17763.0,0,
2022-07-19,17763.0,0.0,17763.0,0,
2022-07-20,17763.0,0.0,17763.0,0,
2022-07-21,17763.0,112.25,17875.25,1,Long
2022-07-22,17763.0,-8.5,17754.5,1,Long
2022-07-24,17763.0,-32.5,17730.5,1,Long
2022-07-25,17763.0,-137.25,17625.75,1,Long
2022-07-26,17763.0,-155.5,17607.5,1,Long
2022-07-27,17763.0,141.5,17904.5,1,Long
2022-07-28,17763.0,457.25,18220.25,1,Long
2022-07-29,17763.0,514.25,18277.25,2,Long
2022-07-31,17763.0,403.75,18166.75,2,Long
2022-08-01,17763.0,466.75,18229.75,2,Long
2022-08-02,17763.0,371.25,18134.25,2,Long
2022-08-03,17763.0,1033.75,18796.75,2,Long
2022-08-04,17763.0,1231.75,18994.75,2,Long
2022-08-05,17763.0,994.75,18757.75,2,Long
2022-08-07,17763.0,920.75,18683.75,2,Long
2022-08-08,17763.0,1006.75,18769.75,2,Long
2022-08-09,17763.0,670.75,18433.75,2,Long
2022-08-10,17763.0,1363.25,19126.25,2,Long
2022-08-11,17763.0,1236.75,18999.75,2,Long
2022-08-12,17763.0,1741.75,19504.75,3,Long
2022-08-14,17763.0,1621.0,19384.0,3,Long
2022-08-15,17763.0,2044.0,19807.0,3,Long
2022-08-16,17763.0,1956.25,19719.25,3,Long
2022-08-17,17763.0,1366.75,19129.75,3,Long
2022-08-18,17763.0,1582.0,19345.0,3,Long
2022-08-19,17763.0,749.5,18512.5,3,Long
2022-08-21,17763.0,562.75,18325.75,3,Long
2022-08-22,17763.0,-132.5,17630.5,3,Long
2022-08-23,17763.0,-313.25,17449.75,3,Long
2022-08-24,17763.0,-196.25,17566.75,3,Long
2022-08-25,17763.0,433.75,18196.75,3,Long
2022-08-26,17763.0,-1325.0,16438.0,3,Long
2022-08-28,16216.0,0.0,16216.0,0,
2022-08-29,16216.0,0.0,16216.0,0,
2022-08-30,16216.0,0.0,16216.0,0,
2022-08-31,16216.0,0.0,16216.0,0,
2022-09-01,16216.0,0.0,16216.0,0,
2022-09-02,16216.0,0.0,16216.0,0,
2022-09-04,16216.0,0.0,16216.0,0,
2022-09-05,16216.0,0.0,16216.0,0,
2022-09-06,16216.0,0.0,16216.0,0,
2022-09-07,16216.0,0.0,16216.0,0,
2022-09-08,16216.0,0.0,16216.0,0,
2022-09-09,16216.0,0.0,16216.0,0,
2022-09-11,16216.0,0.0,16216.0,0,
2022-09-12,16216.0,0.0,16216.0,0,
2022-09-13,16216.0,0.0,16216.0,0,
2022-09-14,16216.0,0.0,16216.0,0,
2022-09-15,16216.0,0.0,16216.0,0,
2022-09-16,16216.0,0.0,16216.0,0,
2022-09-18,16216.0,0.0,16216.0,0,
2022-09-19,16216.0,0.0,16216.0,0,
2022-09-20,16216.0,0.0,16216.0,0,
2022-09-21,16216.0,0.0,16216.0,0,
2022-09-22,16216.0,0.0,16216.0,0,
2022-09-23,16216.0,0.0,16216.0,0,
2022-09-25,16216.0,0.0,16216.0,0,
2022-09-26,16216.0,0.0,16216.0,0,
2022-09-27,16216.0,0.0,16216.0,0,
2022-09-28,16216.0,0.0,16216.0,0,
2022-09-29,16216.0,0.0,16216.0,0,
2022-09-30,16216.0,0.0,16216.0,0,
2022-10-02,16216.0,0.0,16216.0,0,
2022-10-03,16216.0,0.0,16216.0,0,
2022-10-04,16216.0,0.0,16216.0,0,
2022-10-05,16216.0,0.0,16216.0,0,
2022-10-06,16216.0,0.0,16216.0,0,
2022-10-07,16216.0,0.0,16216.0,0,
2022-10-09,16216.0,0.0,16216.0,0,
2022-10-10,16216.0,0.0,16216.0,0,
2022-10-11,16216.0,0.0,16216.0,0,
2022-10-12,16216.0,0.0,16216.0,0,
2022-10-13,16216.0,0.0,16216.0,0,
2022-10-14,16216.0,0.0,16216.0,0,
2022-10-16,16216.0,0.0,16216.0,0,
2022-10-17,16216.0,0.0,16216.0,0,
2022-10-18,16216.0,0.0,16216.0,0,
2022-10-19,16216.0,0.0,16216.0,0,
2022-10-20,16216.0,0.0,16216.0,0,
2022-10-21,16216.0,0.0,16216.0,0,
2022-10-23,16216.0,0.0,16216.0,0,
2022-10-24,16216.0,0.0,16216.0,0,
2022-10-25,16216.0,0.0,16216.0,0,
2022-10-26,16216.0,0.0,16216.0,0,
2022-10-27,16216.0,0.0,16216.0,0,
2022-10-28,16216.0,0.0,16216.0,0,
2022-10-30,16216.0,0.0,16216.0,0,
2022-10-31,16216.0,0.0,16216.0,0,
2022-11-01,16216.0,0.0,16216.0,0,
2022-11-02,16216.0,0.0,16216.0,0,
2022-11-03,16216.0,0.0,16216.0,0,
2022-11-04,16216.0,0.0,16216.0,0,
2022-11-06,16216.0,0.0,16216.0,0,
2022-11-07,16216.0,0.0,16216.0,0,
2022-11-08,16216.0,0.0,16216.0,0,
2022-11-09,16216.0,0.0,16216.0,0,
2022-11-10,16216.0,0.0,16216.0,0,
2022-11-11,16216.0,0.0,16216.0,0,
2022-11-13,16216.0,15.25,16231.25,1,Long
2022-11-14,16216.0,-29.0,16187.0,1,Long
2022-11-15,16216.0,102.75,16318.75,1,Long
2022-11-16,16216.0,-16.0,16200.0,1,Long
2022-11-17,16216.0,-76.25,16139.75,1,Long
2022-11-18,16216.0,-86.5,16129.5,1,Long
2022-11-20,16216.0,-87.0,16129.0,1,Long
2022-11-21,16216.0,-202.0,16014.0,1,Long
2022-11-22,16216.0,-51.0,16165.0,1,Long
2022-11-23,16216.0,92.5,16308.5,1,Long
2022-11-24,16216.0,121.75,16337.75,1,Long
2022-11-25,16216.0,-12.0,16204.0,2,Long
2022-11-27,16216.0,-126.5,16089.5,2,Long
2022-11-28,16216.0,-342.5,15873.5,2,Long
2022-11-29,16216.0,-573.5,15642.5,2,Long
2022-11-30,16216.0,566.0,16782.0,2,Long
2022-12-01,16216.0,500.0,16716.0,2,Long
2022-12-02,16216.0,379.5,16595.5,2,Long
2022-12-04,16216.0,423.0,16639.0,2,Long
2022-12-05,16216.0,58.5,16274.5,2,Long
2022-12-06,16216.0,-423.5,15792.5,2,Long
2022-12-07,16216.0,-559.0,15657.0,2,Long
2022-12-08,16216.0,-305.0,15911.0,2,Long
2022-12-09,16216.0,-518.25,15697.75,3,Long
2022-12-11,16216.0,-569.25,15646.75,3,Long
2022-12-12,16216.0,306.0,16522.0,3,Long
2022-12-13,16216.0,702.0,16918.0,3,Long
2022-12-14,16216.0,471.75,16687.75,3,Long
2022-12-15,16216.0,-801.0,15415.0,3,Long
2022-12-16,16216.0,-1219.5,14996.5,3,Long
2022-12-18,16216.0,-1119.0,15097.0,3,Long
2022-12-19,16216.0,-1536.75,14679.25,3,Long
2022-12-20,14679.25,0.0,14679.25,0,
2022-12-21,14679.25,0.0,14679.25,0,
2022-12-22,14679.25,0.0,14679.25,0,
2022-12-23,14679.25,0.0,14679.25,0,
2022-12-26,14679.25,0.0,14679.25,0,
2022-12-27,14679.25,0.0,14679.25,0,
2022-12-28,14679.25,0.0,14679.25,0,
2022-12-29,14679.25,0.0,14679.25,0,
2022-12-30,14679.25,0.0,14679.25,0,
2023-01-02,14679.25,0.0,14679.25,0,
2023-01-03,14679.25,0.0,14679.25,0,
2023-01-04,14679.25,0.0,14679.25,0,
2023-01-05,14679.25,0.0,14679.25,0,
2023-01-06,14679.25,0.0,14679.25,0,
2023-01-08,14679.25,0.0,14679.25,0,
2023-01-09,14679.25,0.0,14679.25,0,
2023-01-10,14679.25,0.0,14679.25,0,
2023-01-11,14679.25,0.0,14679.25,0,
2023-01-12,14679.25,0.0,14679.25,0,
2023-01-13,14679.25,0.0,14679.25,0,
2023-01-15,14679.25,0.0,14679.25,0,
2023-01-16,14679.25,0.0,14679.25,0,
2023-01-17,14679.25,0.0,14679.25,0,
2023-01-18,14679.25,0.0,14679.25,0,
2023-01-19,14679.25,0.0,14679.25,0,
2023-01-20,14679.25,0.0,14679.25,0,
2023-01-22,14679.25,-19.5,14659.75,1,Long
2023-01-23,14679.25,240.75,14920.0,1,Long
2023-01-24,14679.25,162.25,14841.5,1,Long
2023-01-25,14679.25,229.5,14908.75,1,Long
2023-01-26,14679.25,362.0,15041.25,1,Long
2023-01-27,14679.25,542.0,15221.25,1,Long
2023-01-29,14679.25,527.75,15207.0,1,Long
2023-01-30,14679.25,324.5,15003.75,1,Long
2023-01-31,14679.25,425.5,15104.75,1,Long
2023-02-01,14679.25,867.5,15546.75,1,Long
2023-02-02,14679.25,985.75,15665.0,1,Long
2023-02-03,14679.25,947.0,15626.25,2,Long
2023-02-05,14679.25,895.5,15574.75,2,Long
2023-02-06,14679.25,786.0,15465.25,2,Long
2023-02-07,14679.25,1214.0,15893.25,2,Long
2023-02-08,14679.25,836.0,15515.25,2,Long
2023-02-09,14679.25,583.5,15262.75,2,Long
2023-02-10,14679.25,387.0,15066.25,2,Long
2023-02-12,14679.25,327.5,15006.75,2,Long
2023-02-13,14679.25,791.5,15470.75,2,Long
2023-02-14,14679.25,929.5,15608.75,2,Long
2023-02-15,14679.25,1207.0,15886.25,2,Long
2023-02-16,14679.25,569.0,15248.25,2,Long
2023-02-17,14679.25,495.0,15174.25,3,Long
2023-02-19,14679.25,423.75,15103.0,3,Long
2023-02-20,14679.25,481.5,15160.75,3,Long
2023-02-21,14679.25,-312.0,14367.25,3,Long
2023-02-22,14679.25,-152.25,14527.0,3,Long
2023-02-23,14679.25,-133.5,14545.75,3,Long
2023-02-24,14679.25,-658.5,14020.75,3,Long
2023-02-26,14679.25,-603.0,14076.25,3,Long
2023-02-27,14679.25,-375.0,14304.25,3,Long
2023-02-28,14679.25,-588.75,14090.5,3,Long
2023-03-01,14679.25,-741.0,13938.25,3,Long
2023-03-02,14679.25,-543.75,14135.5,3,Long
2023-03-03,14679.25,354.5,15033.75,4,Long
2023-03-05,14679.25,217.5,14896.75,4,Long
2023-03-06,14679.25,370.5,15049.75,4,Long
2023-03-07,14679.25,-245.5,14433.75,4,Long
2023-03-08,14679.25,-51.5,14627.75,4,Long
2023-03-09,14679.25,-1008.5,13670.75,4,Long
2023-03-10,14679.25,-1410.5,13268.75,4,Long
2023-03-12,13762.75,0.0,13762.75,0,
2023-03-13,13762.75,0.0,13762.75,0,
2023-03-14,13762.75,0.0,13762.75,0,
2023-03-15,13762.75,0.0,13762.75,0,
2023-03-16,13762.75,0.0,13762.75,0,
2023-03-17,13762.75,-73.25,13689.5,1,Long
2023-03-19,13762.75,-17.0,13745.75,1,Long
2023-03-20,13762.75,-30.0,13732.75,1,Long
2023-03-21,13762.75,145.5,13908.25,1,Long
2023-03-22,13762.75,-4.25,13758.5,1,Long
2023-03-23,13762.75,142.0,13904.75,1,Long
2023-03-24,13762.75,201.25,13964.0,1,Long
2023-03-26,13762.75,224.75,13987.5,1,Long
2023-03-27,13762.75,99.5,13862.25,1,Long
2023-03-28,13762.75,36.5,13799.25,1,Long
2023-03-29,13762.75,220.0,13982.75,1,Long
2023-03-30,13762.75,373.0,14135.75,1,Long
2023-03-31,13762.75,628.25,14391.0,2,Long
2023-04-02,13762.75,491.25,14254.0,2,Long
2023-04-03,13762.75,505.25,14268.0,2,Long
2023-04-04,13762.75,492.75,14255.5,2,Long
2023-04-05,13762.75,125.25,13888.0,2,Long
2023-04-06,13762.75,330.25,14093.0,2,Long
2023-04-07,13762.75,372.75,14135.5,2,Long
2023-04-09,13762.75,323.75,14086.5,2,Long
2023-04-10,13762.75,355.75,14118.5,2,Long
2023-04-11,13762.75,190.25,13953.0,2,Long
2023-04-12,13762.75,-125.75,13637.0,2,Long
2023-04-13,13762.75,394.75,14157.5,2,Long
2023-04-14,13762.75,427.0,14189.75,3,Long
2023-04-16,13762.75,388.75,14151.5,3,Long
2023-04-17,13762.75,365.5,14128.25,3,Long
2023-04-18,13762.75,354.25,14117.0,3,Long
2023-04-19,13762.75,213.25,13976.0,3,Long
2023-04-20,13762.75,76.0,13838.75,3,Long
2023-04-21,13762.75,55.0,13817.75,3,Long
2023-04-23,13762.75,34.0,13796.75,3,Long
2023-04-24,13762.75,-22.25,13740.5,3,Long
2023-04-25,13762.75,-290.75,13472.0,3,Long
2023-04-26,13762.75,-299.75,13463.0,3,Long
2023-04-27,13762.75,460.0,14222.75,3,Long
2023-04-28,13762.75,846.5,14609.25,4,Long
2023-04-30,13762.75,767.5,14530.25,4,Long
2023-05-01,13762.75,681.5,14444.25,4,Long
2023-05-02,13762.75,267.5,14030.25,4,Long
2023-05-03,13762.75,-70.5,13692.25,4,Long
2023-05-04,13762.75,-86.5,13676.25,4,Long
2023-05-05,13762.75,780.5,14543.25,4,Long
2023-05-07,13762.75,755.5,14518.25,4,Long
2023-05-08,13762.75,886.5,14649.25,4,Long
2023-05-09,13762.75,640.5,14403.25,4,Long
2023-05-10,13762.75,1225.5,14988.25,4,Long
2023-05-11,13762.75,1357.5,15120.25,4,Long
2023-05-12,13762.75,1005.75,14768.5,5,Long
2023-05-14,13762.75,989.5,14752.25,5,Long
2023-05-15,13762.75,1449.5,15212.25,5,Long
2023-05-16,13762.75,1655.75,15418.5,5,Long
2023-05-17,13762.75,2374.5,16137.25,5,Long
2023-05-18,13762.75,3805.75,17568.5,5,Long
2023-05-19,13762.75,3365.75,17128.5,5,Long
2023-05-21,13762.75,3427.0,17189.75,5,Long
2023-05-22,13762.75,3874.5,17637.25,5,Long
2023-05-23,13762.75,2900.75,16663.5,5,Long
2023-05-24,13762.75,3394.5,17157.25,5,Long
2023-05-25,13762.75,3984.5,17747.25,5,Long
2023-05-26,13762.75,6014.5,19777.25,5,Long
2023-05-28,13762.75,6242.0,20004.75,5,Long
2023-05-29,13762.75,6089.5,19852.25,5,Long
2023-05-30,13762.75,6268.25,20031.0,5,Long
2023-05-31,13762.75,5709.5,19472.25,5,Long
2023-06-01,13762.75,6575.75,20338.5,5,Long
2023-06-02,13762.75,7092.0,20854.75,5,Long
2023-06-04,13762.75,6842.0,20604.75,5,Long
2023-06-05,13762.75,6988.25,20751.0,5,Long
2023-06-06,13762.75,7134.5,20897.25,5,Long
2023-06-07,13762.75,5810.75,19573.5,5,Long
2023-06-08,13762.75,6659.5,20422.25,5,Long
2023-06-09,13762.75,6974.5,20737.25,5,Long
2023-06-11,13762.75,7115.75,20878.5,5,Long
2023-06-12,13762.75,9173.25,22936.0,5,Long
2023-06-13,13762.75,9685.75,23448.5,5,Long
2023-06-14,13762.75,10230.75,23993.5,5,Long
2023-06-15,13762.75,10955.75,24718.5,5,Long
2023-06-16,13762.75,10665.75,24428.5,5,Long
2023-06-18,13762.75,10674.5,24437.25,5,Long
2023-06-19,13762.75,10402.0,24164.75,5,Long
2023-06-20,13762.75,10468.25,24231.0,5,Long
2023-06-21,13762.75,9363.25,23126.0,5,Long
2023-06-22,13762.75,10267.0,24029.75,5,Long
2023-06-23,13762.75,9435.75,23198.5,5,Long
2023-06-25,13762.75,9662.0,23424.75,5,Long
2023-06-26,13762.75,8623.25,22386.0,5,Long
2023-06-27,13762.75,9454.5,23217.25,5,Long
2023-06-28,13762.75,10019.5,23782.25,5,Long
2023-06-29,13762.75,9742.0,23504.75,5,Long
2023-06-30,13762.75,10745.75,24508.5,5,Long
2023-07-02,13762.75,10913.25,24676.0,5,Long
2023-07-03,13762.75,10847.0,24609.75,5,Long
2023-07-04,13762.75,10860.75,24623.5,5,Long
2023-07-05,13762.75,10948.25,24711.0,5,Long
2023-07-06,13762.75,10290.75,24053.5,5,Long
2023-07-07,13762.75,10117.0,23879.75,5,Long
2023-07-09,13762.75,10063.25,23826.0,5,Long
2023-07-10,13762.75,10120.75,23883.5,5,Long
2023-07-11,13762.75,10482.0,24244.75,5,Long
2023-07-12,13762.75,11518.25,25281.0,5,Long
2023-07-13,13762.75,12720.75,26483.5,5,Long
2023-07-14,13762.75,12620.75,26383.5,5,Long
2023-07-16,13762.75,12493.25,26256.0,5,Long
2023-07-17,13762.75,13249.5,27012.25,5,Long
2023-07-18,13762.75,13964.5,27727.25,5,Long
2023-07-19,13762.75,13443.25,27206.0,5,Long
2023-07-20,13762.75,12058.25,25821.0,5,Long
2023-07-21,13762.75,11933.25,25696.0,5,Long
2023-07-23,13762.75,11904.5,25667.25,5,Long
2023-07-24,13762.75,11995.75,25758.5,5,Long
2023-07-25,13762.75,12347.0,26109.75,5,Long
2023-07-26,13762.75,12424.5,26187.25,5,Long
2023-07-27,13762.75,12090.75,25853.5,5,Long
2023-07-28,13762.75,13385.75,27148.5,5,Long
2023-07-30,13762.75,13594.5,27357.25,5,Long
2023-07-31,13762.75,13459.5,27222.25,5,Long
2023-08-01,13762.75,12923.25,26686.0,5,Long
2023-08-02,13762.75,11618.25,25381.0,5,Long
2023-08-03,13762.75,11564.5,25327.25,5,Long
2023-08-04,13762.75,10983.25,24746.0,5,Long
2023-08-06,24769.75,0.0,24769.75,0,
2023-08-07,24769.75,0.0,24769.75,0,
2023-08-08,24769.75,0.0,24769.75,0,
2023-08-09,24769.75,0.0,24769.75,0,
2023-08-10,24769.75,0.0,24769.75,0,
2023-08-11,24769.75,0.0,24769.75,0,
2023-08-13,24769.75,0.0,24769.75,0,
2023-08-14,24769.75,0.0,24769.75,0,
2023-08-15,24769.75,0.0,24769.75,0,
2023-08-16,24769.75,0.0,24769.75,0,
2023-08-17,24769.75,0.0,24769.75,0,
2023-08-18,24769.75,0.0,24769.75,0,
2023-08-20,24769.75,0.0,24769.75,0,
2023-08-21,24769.75,0.0,24769.75,0,
2023-08-22,24769.75,0.0,24769.75,0,
2023-08-23,24769.75,0.0,24769.75,0,
2023-08-24,24769.75,0.0,24769.75,0,
2023-08-25,24769.75,0.0,24769.75,0,
2023-08-27,24769.75,0.0,24769.75,0,
2023-08-28,24769.75,0.0,24769.75,0,
2023-08-29,24769.75,0.0,24769.75,0,
2023-08-30,24769.75,68.25,24838.0,1,Long
2023-08-31,24769.75,101.75,24871.5,1,Long
2023-09-01,24769.75,77.75,24847.5,1,Long
2023-09-03,24769.75,82.0,24851.75,1,Long
2023-09-04,24769.75,91.5,24861.25,1,Long
2023-09-05,24769.75,87.25,24857.0,1,Long
2023-09-06,24769.75,-43.5,24726.25,1,Long
2023-09-07,24769.75,-154.0,24615.75,1,Long
2023-09-08,24769.75,-79.75,24690.0,2,Long
2023-09-10,24769.75,-63.25,24706.5,2,Long
2023-09-11,24769.75,608.25,25378.0,2,Long
2023-09-12,24769.75,302.25,25072.0,2,Long
2023-09-13,24769.75,450.25,25220.0,2,Long
2023-09-14,24769.75,645.25,25415.0,2,Long
2023-09-15,24769.75,57.25,24827.0,2,Long
2023-09-17,24769.75,117.25,24887.0,2,Long
2023-09-18,24769.75,139.75,24909.5,2,Long
2023-09-19,24769.75,57.75,24827.5,2,Long
2023-09-20,24769.75,-481.75,24288.0,2,Long
2023-09-21,24769.75,-1006.25,23763.5,2,Long
2023-09-22,23763.5,0.0,23763.5,0,
2023-09-24,23763.5,0.0,23763.5,0,
2023-09-25,23763.5,0.0,23763.5,0,
2023-09-26,23763.5,0.0,23763.5,0,
2023-09-27,23763.5,0.0,23763.5,0,
2023-09-28,23763.5,0.0,23763.5,0,
2023-09-29,23763.5,0.0,23763.5,0,
2023-10-01,23763.5,0.0,23763.5,0,
2023-10-02,23763.5,0.0,23763.5,0,
2023-10-03,23763.5,0.0,23763.5,0,
2023-10-04,23763.5,0.0,23763.5,0,
2023-10-05,23763.5,0.0,23763.5,0,
2023-10-06,23763.5,0.0,23763.5,0,
2023-10-08,23763.5,0.0,23763.5,0,
2023-10-09,23763.5,0.0,23763.5,0,
2023-10-10,23763.5,0.0,23763.5,0,
2023-10-11,23763.5,0.0,23763.5,0,
2023-10-12,23763.5,-84.75,23678.75,1,Long
2023-10-13,23763.5,-308.0,23455.5,1,Long
2023-10-15,23763.5,-248.5,23515.0,1,Long
2023-10-16,23763.5,-124.0,23639.5,1,Long
2023-10-17,23763.5,-203.75,23559.75,1,Long
2023-10-18,23763.5,-377.0,23386.5,1,Long
2023-10-19,23763.5,-571.5,23192.0,1,Long
2023-10-20,23763.5,-800.0,22963.5,2,Long
2023-10-22,23763.5,-676.5,23087.0,2,Long
2023-10-23,23763.5,-571.0,23192.5,2,Long
2023-10-24,23763.5,-466.0,23297.5,2,Long
2023-10-25,23763.5,-1396.0,22367.5,2,Long
2023-10-26,22367.0,0.0,22367.0,0,
2023-10-27,22367.0,0.0,22367.0,0,
2023-10-29,22367.0,0.0,22367.0,0,
2023-10-30,22367.0,0.0,22367.0,0,
2023-10-31,22367.0,0.0,22367.0,0,
2023-11-01,22367.0,0.0,22367.0,0,
2023-11-02,22367.0,0.0,22367.0,0,
2023-11-03,22367.0,0.0,22367.0,0,
2023-11-05,22367.0,-11.25,22355.75,1,Long
2023-11-06,22367.0,21.75,22388.75,1,Long
2023-11-07,22367.0,181.25,22548.25,1,Long
2023-11-08,22367.0,171.0,22538.0,1,Long
2023-11-09,22367.0,45.75,22412.75,1,Long
2023-11-10,22367.0,394.25,22761.25,1,Long
2023-11-12,22367.0,373.25,22740.25,1,Long
2023-11-13,22367.0,371.5,22738.5,1,Long
2023-11-14,22367.0,717.75,23084.75,1,Long
2023-11-15,22367.0,678.0,23045.0,1,Long
2023-11-16,22367.0,698.75,23065.75,1,Long
2023-11-17,22367.0,687.75,23054.75,2,Long
2023-11-19,22367.0,667.25,23034.25,2,Long
2023-11-20,22367.0,1141.25,23508.25,2,Long
2023-11-21,22367.0,848.25,23215.25,2,Long
2023-11-22,22367.0,1031.25,23398.25,2,Long
2023-11-23,22367.0,1068.75,23435.75,2,Long
2023-11-24,22367.0,961.25,23328.25,2,Long
2023-11-26,22367.0,912.25,23279.25,2,Long
2023-11-27,22367.0,959.25,23326.25,2,Long
2023-11-28,22367.0,1046.25,23413.25,2,Long
2023-11-29,22367.0,1033.75,23400.75,2,Long
2023-11-30,22367.0,868.75,23235.75,2,Long
2023-12-01,22367.0,1014.5,23381.5,3,Long
2023-12-03,22367.0,897.5,23264.5,3,Long
2023-12-04,22367.0,470.0,22837.0,3,Long
2023-12-05,22367.0,705.5,23072.5,3,Long
2023-12-06,22367.0,371.0,22738.0,3,Long
2023-12-07,22367.0,981.5,23348.5,3,Long
2023-12-08,22367.0,1199.0,23566.0,3,Long
2023-12-10,22367.0,1235.0,23602.0,3,Long
2023-12-11,22367.0,2285.75,24652.75,3,Long
2023-12-12,22367.0,2750.0,25117.0,3,Long
2023-12-13,22367.0,3369.5,25736.5,3,Long
2023-12-14,22367.0,3203.0,25570.0,3,Long
2023-12-15,22367.0,3350.5,25717.5,4,Long
2023-12-17,22367.0,3381.5,25748.5,4,Long
2023-12-18,22367.0,3783.5,26150.5,4,Long
2023-12-19,22367.0,4197.5,26564.5,4,Long
2023-12-20,22367.0,3333.5,25700.5,4,Long
2023-12-21,22367.0,3854.5,26221.5,4,Long
2023-12-22,22367.0,3936.5,26303.5,4,Long
2023-12-25,22367.0,4102.5,26469.5,4,Long
2023-12-26,22367.0,4444.5,26811.5,4,Long
2023-12-27,22367.0,4573.5,26940.5,4,Long
2023-12-28,22367.0,4489.5,26856.5,4,Long
2023-12-29,22367.0,4089.0,26456.0,5,Long
2024-01-01,22367.0,4217.75,26584.75,5,Long
2024-01-02,22367.0,2691.5,25058.5,5,Long
2024-01-03,22367.0,1816.5,24183.5,5,Long
2024-01-04,24183.5,0.0,24183.5,0,
2024-01-05,24183.5,0.0,24183.5,0,
2024-01-07,24183.5,0.0,24183.5,0,
2024-01-08,24183.5,0.0,24183.5,0,
2024-01-09,24183.5,0.0,24183.5,0,
2024-01-10,24183.5,0.0,24183.5,0,
2024-01-11,24183.5,0.0,24183.5,0,
2024-01-12,24183.5,0.0,24183.5,0,
2024-01-14,24183.5,0.0,24183.5,0,
2024-01-15,24183.5,0.0,24183.5,0,
2024-01-16,24183.5,0.0,24183.5,0,
2024-01-17,24183.5,-125.5,24058.0,1,Long
2024-01-18,24183.5,169.5,24353.0,1,Long
2024-01-19,24183.5,484.0,24667.5,1,Long
2024-01-21,24183.5,504.5,24688.0,1,Long
2024-01-22,24183.5,485.25,24668.75,1,Long
2024-01-23,24183.5,596.75,24780.25,1,Long
2024-01-24,24183.5,637.75,24821.25,1,Long
2024-01-25,24183.5,563.25,24746.75,1,Long
2024-01-26,24183.5,498.75,24682.25,2,Long
2024-01-28,24183.5,448.75,24632.25,2,Long
2024-01-29,24183.5,933.25,25116.75,2,Long
2024-01-30,24183.5,385.75,24569.25,2,Long
2024-01-31,24183.5,54.25,24237.75,2,Long
2024-02-01,24183.5,676.25,24859.75,2,Long
2024-02-02,24183.5,861.25,25044.75,2,Long
2024-02-04,24183.5,904.25,25087.75,2,Long
2024-02-05,24183.5,881.75,25065.25,2,Long
2024-02-06,24183.5,793.25,24976.75,2,Long
2024-02-07,24183.5,1174.25,25357.75,2,Long
2024-02-08,24183.5,1223.75,25407.25,2,Long
2024-02-09,24183.5,1567.5,25751.0,3,Long
2024-02-11,24183.5,1559.25,25742.75,3,Long
2024-02-12,24183.5,1266.0,25449.5,3,Long
2024-02-13,24183.5,525.0,24708.5,3,Long
2024-02-14,24183.5,1090.5,25274.0,3,Long
2024-02-15,24183.5,1311.75,25495.25,3,Long
2024-02-16,24183.5,618.0,24801.5,3,Long
2024-02-18,24183.5,786.75,24970.25,3,Long
2024-02-19,24183.5,699.0,24882.5,3,Long
2024-02-20,24183.5,159.0,24342.5,3,Long
2024-02-21,24183.5,566.25,24749.75,3,Long
2024-02-22,24183.5,1578.75,25762.25,3,Long
2024-02-23,24183.5,1291.5,25475.0,4,Long
2024-02-25,24183.5,1377.5,25561.0,4,Long
2024-02-26,24183.5,1299.5,25483.0,4,Long
2024-02-27,24183.5,1467.5,25651.0,4,Long
2024-02-28,24183.5,926.5,25110.0,4,Long
2024-02-29,24183.5,1685.5,25869.0,4,Long
2024-03-01,24183.5,2733.5,26917.0,4,Long
2024-03-03,24183.5,2821.5,27005.0,4,Long
2024-03-04,24183.5,2340.5,26524.0,4,Long
2024-03-05,24183.5,1297.5,25481.0,4,Long
2024-03-06,24183.5,1521.5,25705.0,4,Long
2024-03-07,24183.5,2512.5,26696.0,4,Long
2024-03-08,24183.5,1655.25,25838.75,5,Long
2024-03-10,24183.5,1592.75,25776.25,5,Long
2024-03-11,24183.5,2849.0,27032.5,5,Long
2024-03-12,24183.5,3771.5,27955.0,5,Long
2024-03-13,24183.5,3244.0,27427.5,5,Long
2024-03-14,24183.5,2571.5,26755.0,5,Long
2024-03-15,24183.5,1696.5,25880.0,5,Long
2024-03-17,24183.5,1774.0,25957.5,5,Long
2024-03-18,24183.5,2336.5,26520.0,5,Long
2024-03-19,24183.5,2721.5,26905.0,5,Long
2024-03-20,24183.5,4272.75,28456.25,5,Long
2024-03-21,24183.5,4324.0,28507.5,5,Long
2024-03-22,24183.5,4199.0,28382.5,5,Long
2024-03-24,24183.5,4309.0,28492.5,5,Long
2024-03-25,24183.5,4081.5,28265.0,5,Long
2024-03-26,24183.5,3825.25,28008.75,5,Long
2024-03-27,24183.5,3780.25,27963.75,5,Long
2024-03-28,24183.5,3705.25,27888.75,5,Long
2024-03-31,24183.5,4421.5,28605.0,5,Long
2024-04-01,24183.5,3730.25,27913.75,5,Long
2024-04-02,24183.5,3021.5,27205.0,5,Long
2024-04-03,24183.5,3607.75,27791.25,5,Long
2024-04-04,24183.5,1836.5,26020.0,5,Long
2024-04-05,24183.5,2931.5,27115.0,5,Long
2024-04-07,24183.5,2974.0,27157.5,5,Long
2024-04-08,24183.5,2887.75,27071.25,5,Long
2024-04-09,24183.5,3219.0,27402.5,5,Long
2024-04-10,24183.5,2171.5,26355.0,5,Long
2024-04-11,24183.5,3830.25,28013.75,5,Long
2024-04-12,24183.5,2236.5,26420.0,5,Long
2024-04-14,24183.5,2567.75,26751.25,5,Long
2024-04-15,24183.5,731.5,24915.0,5,Long
2024-04-16,24921.25,0.0,24921.25,0,
2024-04-17,24921.25,0.0,24921.25,0,
2024-04-18,24921.25,0.0,24921.25,0,
2024-04-19,24921.25,0.0,24921.25,0,
2024-04-21,24921.25,0.0,24921.25,0,
2024-04-22,24921.25,0.0,24921.25,0,
2024-04-23,24921.25,0.0,24921.25,0,
2024-04-24,24921.25,0.0,24921.25,0,
2024-04-25,24921.25,0.0,24921.25,0,
2024-04-26,24921.25,0.0,24921.25,0,
2024-04-28,24921.25,0.0,24921.25,0,
2024-04-29,24921.25,0.0,24921.25,0,
2024-04-30,24921.25,0.0,24921.25,0,
2024-05-01,24921.25,0.0,24921.25,0,
2024-05-02,24921.25,0.0,24921.25,0,
2024-05-03,24921.25,0.0,24921.25,0,
2024-05-05,24921.25,0.0,24921.25,0,
2024-05-06,24921.25,0.0,24921.25,0,
2024-05-07,24921.25,20.5,24941.75,1,Long
2024-05-08,24921.25,-22.0,24899.25,1,Long
2024-05-09,24921.25,47.5,24968.75,1,Long
2024-05-10,24921.25,55.75,24977.0,1,Long
2024-05-12,24921.25,61.75,24983.0,1,Long
2024-05-13,24921.25,100.0,25021.25,1,Long
2024-05-14,24921.25,233.25,25154.5,1,Long
2024-05-15,24921.25,537.25,25458.5,1,Long
2024-05-16,24921.25,467.5,25388.75,1,Long
2024-05-17,24921.25,463.0,25384.25,2,Long
2024-05-19,24921.25,529.5,25450.75,2,Long
2024-05-20,24921.25,699.0,25620.25,2,Long
2024-05-21,24921.25,822.5,25743.75,2,Long
2024-05-22,24921.25,945.0,25866.25,2,Long
2024-05-23,24921.25,597.5,25518.75,2,Long
2024-05-24,24921.25,938.5,25859.75,2,Long
2024-05-26,24921.25,868.0,25789.25,2,Long
2024-05-27,24921.25,1011.5,25932.75,2,Long
2024-05-28,24921.25,1055.0,25976.25,2,Long
2024-05-29,24921.25,642.0,25563.25,2,Long
2024-05-30,24921.25,313.0,25234.25,2,Long
2024-05-31,24921.25,397.5,25318.75,3,Long
2024-06-02,24921.25,458.25,25379.5,3,Long
2024-06-03,24921.25,633.75,25555.0,3,Long
2024-06-04,24921.25,895.5,25816.75,3,Long
2024-06-05,24921.25,1956.0,26877.25,3,Long
2024-06-06,24921.25,1907.25,26828.5,3,Long
2024-06-07,24921.25,1775.25,26696.5,3,Long
2024-06-09,24921.25,1763.25,26684.5,3,Long
2024-06-10,24921.25,1936.5,26857.75,3,Long
2024-06-11,24921.25,2452.5,27373.75,3,Long
2024-06-12,24921.25,3483.0,28404.25,3,Long
2024-06-13,24921.25,3537.75,28459.0,3,Long
2024-06-14,24921.25,3811.0,28732.25,4,Long
2024-06-16,24921.25,3872.0,28793.25,4,Long
2024-06-17,24921.25,5846.0,30767.25,4,Long
2024-06-18,24921.25,5919.0,30840.25,4,Long
2024-06-19,24921.25,5970.0,30891.25,4,Long
2024-06-20,24921.25,5304.0,30225.25,4,Long
2024-06-21,24921.25,5062.0,29983.25,4,Long
2024-06-23,24921.25,5059.0,29980.25,4,Long
2024-06-24,24921.25,4113.0,29034.25,4,Long
2024-06-25,24921.25,4889.0,29810.25,4,Long
2024-06-26,24921.25,4701.0,29622.25,4,Long
2024-06-27,24921.25,5408.0,30329.25,4,Long
2024-06-28,24921.25,4859.0,29780.25,5,Long
2024-06-30,24921.25,4754.0,29675.25,5,Long
2024-07-01,24921.25,5119.0,30040.25,5,Long
2024-07-02,24921.25,6212.75,31134.0,5,Long
2024-07-03,24921.25,7035.25,31956.5,5,Long
2024-07-04,24921.25,6976.5,31897.75,5,Long
2024-07-05,24921.25,7975.25,32896.5,5,Long
2024-07-07,24921.25,7976.5,32897.75,5,Long
2024-07-08,24921.25,8715.25,33636.5,5,Long
2024-07-09,24921.25,8511.5,33432.75,5,Long
2024-07-10,24921.25,9430.25,34351.5,5,Long
2024-07-11,24921.25,7096.5,32017.75,5,Long
2024-07-12,24921.25,7722.75,32644.0,5,Long
2024-07-14,24921.25,7824.0,32745.25,5,Long
2024-07-15,24921.25,8182.75,33104.0,5,Long
2024-07-16,24921.25,7850.25,32771.5,5,Long
2024-07-17,24921.25,5316.5,30237.75,5,Long
2024-07-18,30232.75,0.0,30232.75,0,
2024-07-19,30232.75,0.0,30232.75,0,
2024-07-21,30232.75,0.0,30232.75,0,
2024-07-22,30232.75,0.0,30232.75,0,
2024-07-23,30232.75,0.0,30232.75,0,
2024-07-24,30232.75,0.0,30232.75,0,
2024-07-25,30232.75,0.0,30232.75,0,
2024-07-26,30232.75,0.0,30232.75,0,
2024-07-28,30232.75,0.0,30232.75,0,
2024-07-29,30232.75,0.0,30232.75,0,
2024-07-30,30232.75,0.0,30232.75,0,
2024-07-31,30232.75,0.0,30232.75,0,
2024-08-01,30232.75,0.0,30232.75,0,
2024-08-02,30232.75,0.0,30232.75,0,
2024-08-04,30232.75,0.0,30232.75,0,
2024-08-05,30232.75,0.0,30232.75,0,
2024-08-06,30232.75,0.0,30232.75,0,
2024-08-07,30232.75,0.0,30232.75,0,
2024-08-08,30232.75,0.0,30232.75,0,
2024-08-09,30232.75,0.0,30232.75,0,
2024-08-11,30232.75,0.0,30232.75,0,
2024-08-12,30232.75,0.0,30232.75,0,
2024-08-13,30232.75,0.0,30232.75,0,
2024-08-14,30232.75,-10.0,30222.75,1,Long
2024-08-15,30232.75,497.0,30729.75,1,Long
2024-08-16,30232.75,487.5,30720.25,1,Long
2024-08-18,30232.75,531.5,30764.25,1,Long
2024-08-19,30232.75,744.0,30976.75,1,Long
2024-08-20,30232.75,673.0,30905.75,1,Long
2024-08-21,30232.75,819.5,31052.25,1,Long
2024-08-22,30232.75,521.75,30754.5,1,Long
2024-08-23,30232.75,674.5,30907.25,2,Long
2024-08-25,30232.75,645.0,30877.75,2,Long
2024-08-26,30232.75,261.5,30494.25,2,Long
2024-08-27,30232.75,293.0,30525.75,2,Long
2024-08-28,30232.75,-495.5,29737.25,2,Long
2024-08-29,30232.75,-21.0,30211.75,2,Long
2024-08-30,30232.75,307.0,30539.75,2,Long
2024-09-01,30232.75,291.0,30523.75,2,Long
2024-09-02,30232.75,280.0,30512.75,2,Long
2024-09-03,30232.75,-966.0,29266.75,2,Long
2024-09-04,30232.75,-1015.5,29217.25,2,Long
2024-09-05,30232.75,-1056.0,29176.75,2,Long
2024-09-06,30232.75,-2126.0,28106.75,2,Long
2024-09-08,28150.75,0.0,28150.75,0,
2024-09-09,28150.75,0.0,28150.75,0,
2024-09-10,28150.75,0.0,28150.75,0,
2024-09-11,28150.75,0.0,28150.75,0,
2024-09-12,28150.75,0.0,28150.75,0,
2024-09-13,28150.75,0.0,28150.75,0,
2024-09-15,28150.75,40.25,28191.0,1,Long
2024-09-16,28150.75,174.75,28325.5,1,Long
2024-09-17,28150.75,207.25,28358.0,1,Long
2024-09-18,28150.75,265.25,28416.0,1,Long
2024-09-19,28150.75,551.0,28701.75,1,Long
2024-09-20,28150.75,516.25,28667.0,1,Long
2024-09-22,28150.75,564.0,28714.75,1,Long
2024-09-23,28150.75,570.25,28721.0,1,Long
2024-09-24,28150.75,681.5,28832.25,1,Long
2024-09-25,28150.75,779.5,28930.25,1,Long
2024-09-26,28150.75,845.75,28996.5,1,Long
2024-09-27,28150.75,674.5,28825.25,2,Long
2024-09-29,28150.75,832.5,28983.25,2,Long
2024-09-30,28150.75,782.5,28933.25,2,Long
2024-10-01,28150.75,152.5,28303.25,2,Long
2024-10-02,28150.75,397.0,28547.75,2,Long
2024-10-03,28150.75,253.5,28404.25,2,Long
2024-10-04,28150.75,694.0,28844.75,2,Long
2024-10-06,28150.75,748.5,28899.25,2,Long
2024-10-07,28150.75,253.5,28404.25,2,Long
2024-10-08,28150.75,833.5,28984.25,2,Long
2024-10-09,28150.75,1188.0,29338.75,2,Long
2024-10-10,28150.75,1190.5,29341.25,2,Long
2024-10-11,28150.75,1051.5,29202.25,3,Long
2024-10-13,28150.75,1095.75,29246.5,3,Long
2024-10-14,28150.75,1710.0,29860.75,3,Long
2024-10-15,28150.75,870.0,29020.75,3,Long
2024-10-16,28150.75,756.0,28906.75,3,Long
2024-10-17,28150.75,1029.75,29180.5,3,Long
2024-10-18,28150.75,1267.5,29418.25,3,Long
2024-10-20,28150.75,1355.25,29506.0,3,Long
2024-10-21,28150.75,1362.0,29512.75,3,Long
2024-10-22,28150.75,1403.25,29554.0,3,Long
2024-10-23,28150.75,684.75,28835.5,3,Long
2024-10-24,28150.75,957.75,29108.5,3,Long
2024-10-25,28150.75,1204.0,29354.75,4,Long
2024-10-27,28150.75,1689.0,29839.75,4,Long
2024-10-28,28150.75,1327.0,29477.75,4,Long
2024-10-29,28150.75,2287.0,30437.75,4,Long
2024-10-30,28150.75,1001.0,29151.75,4,Long
2024-10-31,28150.75,-409.0,27741.75,4,Long
2024-11-01,28150.75,-27.0,28123.75,4,Long
2024-11-03,28150.75,-165.0,27985.75,4,Long
2024-11-04,28150.75,-352.0,27798.75,4,Long
2024-11-05,28150.75,671.0,28821.75,4,Long
2024-11-06,28150.75,2859.0,31009.75,4,Long
2024-11-07,28150.75,4202.0,32352.75,4,Long
2024-11-08,28150.75,4211.5,32362.25,5,Long
2024-11-10,28150.75,4596.5,32747.25,5,Long
2024-11-11,28150.75,4156.5,32307.25,5,Long
2024-11-12,28150.75,3876.5,32027.25,5,Long
2024-11-13,28150.75,3906.5,32057.25,5,Long
2024-11-14,28150.75,2824.0,30974.75,5,Long
2024-11-15,28150.75,594.0,28744.75,5,Long
2024-11-17,28150.75,917.75,29068.5,5,Long
2024-11-18,28150.75,1187.75,29338.5,5,Long
2024-11-19,28150.75,1991.5,30142.25,5,Long
2024-11-20,28150.75,1839.0,29989.75,5,Long
2024-11-21,28150.75,1944.0,30094.75,5,Long
2024-11-22,28150.75,2467.75,30618.5,5,Long
2024-11-24,28150.75,2754.0,30904.75,5,Long
2024-11-25,28150.75,2246.5,30397.25,5,Long
2024-11-26,28150.75,3004.0,31154.75,5,Long
2024-11-27,28150.75,2191.5,30342.25,5,Long
2024-11-28,28150.75,2514.0,30664.75,5,Long
2024-11-29,28150.75,3032.75,31183.5,5,Long
2024-12-01,28150.75,2897.75,31048.5,5,Long
2024-12-02,28150.75,4144.0,32294.75,5,Long
2024-12-03,28150.75,4739.0,32889.75,5,Long
2024-12-04,28150.75,5626.5,33777.25,5,Long
2024-12-05,28150.75,5354.0,33504.75,5,Long
2024-12-06,28150.75,6245.25,34396.0,5,Long
2024-12-08,28150.75,6364.0,34514.75,5,Long
2024-12-09,28150.75,5402.75,33553.5,5,Long
2024-12-10,28150.75,5217.75,33368.5,5,Long
2024-12-11,28150.75,6866.5,35017.25,5,Long
2024-12-12,28150.75,6797.75,34948.5,5,Long
2024-12-13,28150.75,6877.75,35028.5,5,Long
2024-12-15,28150.75,7021.5,35172.25,5,Long
2024-12-16,28150.75,8570.25,36721.0,5,Long
2024-12-17,28150.75,9446.5,37597.25,5,Long
2024-12-18,28150.75,5430.25,33581.0,5,Long
2024-12-19,33587.25,0.0,33587.25,0,
2024-12-20,33587.25,0.0,33587.25,0,
2024-12-22,33587.25,0.0,33587.25,0,
2024-12-23,33587.25,0.0,33587.25,0,
2024-12-24,33587.25,0.0,33587.25,0,
2024-12-25,33587.25,0.0,33587.25,0,
2024-12-26,33587.25,0.0,33587.25,0,
2024-12-27,33587.25,0.0,33587.25,0,
2024-12-29,33587.25,0.0,33587.25,0,
2024-12-30,33587.25,0.0,33587.25,0,
2024-12-31,33587.25,0.0,33587.25,0,
2025-01-01,33587.25,0.0,33587.25,0,
2025-01-02,33587.25,0.0,33587.25,0,
2025-01-03,33587.25,0.0,33587.25,0,
2025-01-05,33587.25,0.0,33587.25,0,
2025-01-06,33587.25,0.0,33587.25,0,
2025-01-07,33587.25,0.0,33587.25,0,
2025-01-08,33587.25,0.0,33587.25,0,
2025-01-09,33587.25,0.0,33587.25,0,
2025-01-10,33587.25,0.0,33587.25,0,
2025-01-12,33587.25,0.0,33587.25,0,
2025-01-13,33587.25,0.0,33587.25,0,
2025-01-14,33587.25,0.0,33587.25,0,
2025-01-15,33587.25,0.0,33587.25,0,
2025-01-16,33587.25,0.0,33587.25,0,
2025-01-17,33587.25,0.0,33587.25,0,
2025-01-19,33587.25,0.0,33587.25,0,
2025-01-20,33587.25,0.0,33587.25,0,
2025-01-21,33587.25,0.0,33587.25,0,
2025-01-22,33587.25,0.0,33587.25,0,
2025-01-23,33587.25,45.25,33632.5,1,Long
2025-01-24,33587.25,-57.0,33530.25,1,Long
2025-01-26,33587.25,-299.5,33287.75,1,Long
2025-01-27,33587.25,-638.0,32949.25,1,Long
2025-01-28,33587.25,-420.0,33167.25,1,Long
2025-01-29,33587.25,-427.0,33160.25,1,Long
2025-01-30,33587.25,-267.0,33320.25,1,Long
2025-01-31,33587.25,-421.0,33166.25,2,Long
2025-02-02,33587.25,-1337.0,32250.25,2,Long
2025-02-03,33587.25,-420.5,33166.75,2,Long
2025-02-04,33587.25,-429.0,33158.25,2,Long
2025-02-05,33587.25,-16.0,33571.25,2,Long
2025-02-06,33587.25,144.5,33731.75,2,Long
2025-02-07,33587.25,-412.5,33174.75,2,Long
2025-02-09,33587.25,-270.5,33316.75,2,Long
2025-02-10,33587.25,27.0,33614.25,2,Long
2025-02-11,33587.25,58.5,33645.75,2,Long
2025-02-12,33587.25,213.0,33800.25,2,Long
2025-02-13,33587.25,605.5,34192.75,2,Long
2025-02-14,33587.25,847.75,34435.0,3,Long
2025-02-16,33587.25,873.25,34460.5,3,Long
2025-02-17,33587.25,900.25,34487.5,3,Long
2025-02-18,33587.25,990.25,34577.5,3,Long
2025-02-19,33587.25,891.25,34478.5,3,Long
2025-02-20,33587.25,723.25,34310.5,3,Long
2025-02-21,33587.25,-782.75,32804.5,3,Long
2025-02-23,33587.25,-487.25,33100.0,3,Long
2025-02-24,33587.25,-1605.5,31981.75,3,Long
2025-02-25,33587.25,-2084.75,31502.5,3,Long
2025-02-26,31501.75,0.0,31501.75,0,
2025-02-27,31501.75,0.0,31501.75,0,
2025-02-28,31501.75,0.0,31501.75,0,
2025-03-02,31501.75,0.0,31501.75,0,
2025-03-03,31501.75,0.0,31501.75,0,
2025-03-04,31501.75,0.0,31501.75,0,
2025-03-05,31501.75,0.0,31501.75,0,
2025-03-06,31501.75,0.0,31501.75,0,
2025-03-07,31501.75,0.0,31501.75,0,
2025-03-09,31501.75,0.0,31501.75,0,
2025-03-10,31501.75,0.0,31501.75,0,
2025-03-11,31501.75,0.0,31501.75,0,
2025-03-12,31501.75,0.0,31501.75,0,
2025-03-13,31501.75,0.0,31501.75,0,
2025-03-14,31501.75,0.0,31501.75,0,
2025-03-16,31501.75,0.0,31501.75,0,
2025-03-17,31501.75,0.0,31501.75,0,
2025-03-18,31501.75,0.0,31501.75,0,
2025-03-19,31501.75,0.0,31501.75,0,
2025-03-20,31501.75,0.0,31501.75,0,
2025-03-21,31501.75,0.0,31501.75,0,
2025-03-23,31501.75,0.0,31501.75,0,
2025-03-24,31501.75,0.0,31501.75,0,
2025-03-25,31501.75,0.0,31501.75,0,
2025-03-26,31501.75,0.0,31501.75,0,
2025-03-27,31501.75,0.0,31501.75,0,
2025-03-28,31501.75,0.0,31501.75,0,
2025-03-30,31501.75,0.0,31501.75,0,
2025-03-31,31501.75,0.0,31501.75,0,
2025-04-01,31501.75,0.0,31501.75,0,
2025-04-02,31501.75,0.0,31501.75,0,
2025-04-03,31501.75,0.0,31501.75,0,
2025-04-04,31501.75,0.0,31501.75,0,
2025-04-06,31501.75,0.0,31501.75,0,
2025-04-07,31501.75,0.0,31501.75,0,
2025-04-08,31501.75,0.0,31501.75,0,
2025-04-09,31501.75,0.0,31501.75,0,
2025-04-10,31501.75,-956.0,30545.75,1,Long
2025-04-11,31501.75,-493.75,31008.0,1,Long
2025-04-13,31501.75,-299.75,31202.0,1,Long
2025-04-14,31501.75,-462.5,31039.25,1,Long
2025-04-15,31501.75,-584.5,30917.25,1,Long
2025-04-16,31501.75,-910.25,30591.5,1,Long
2025-04-17,31501.75,-882.75,30619.0,1,Long
2025-04-20,31501.75,-998.5,30503.25,1,Long
2025-04-21,31501.75,-1309.5,30192.25,1,Long
2025-04-22,31501.75,-551.5,30950.25,1,Long
2025-04-23,31501.75,-473.25,31028.5,1,Long
2025-04-24,31501.75,99.75,31601.5,1,Long
2025-04-25,31501.75,322.5,31824.25,2,Long
2025-04-27,31501.75,121.5,31623.25,2,Long
2025-04-28,31501.75,270.0,31771.75,2,Long
2025-04-29,31501.75,339.5,31841.25,2,Long
2025-04-30,31501.75,1047.0,32548.75,2,Long
2025-05-01,31501.75,793.5,32295.25,2,Long
2025-05-02,31501.75,1614.0,33115.75,2,Long
2025-05-04,31501.75,1383.5,32885.25,2,Long
2025-05-05,31501.75,1230.0,32731.75,2,Long
2025-05-06,31501.75,1348.0,32849.75,2,Long
2025-05-07,31501.75,1117.5,32619.25,2,Long
2025-05-08,31501.75,1491.5,32993.25,2,Long
2025-05-09,31501.75,1510.0,33011.75,3,Long
2025-05-11,31501.75,2429.5,33931.25,3,Long
2025-05-12,31501.75,3796.0,35297.75,3,Long
2025-05-13,31501.75,4947.25,36449.0,3,Long
2025-05-14,31501.75,5197.0,36698.75,3,Long
2025-05-15,31501.75,5314.75,36816.5,3,Long
2025-05-16,31501.75,5283.25,36785.0,3,Long
2025-05-18,31501.75,5215.0,36716.75,3,Long
2025-05-19,31501.75,5689.75,37191.5,3,Long
2025-05-20,31501.75,5365.75,36867.5,3,Long
2025-05-21,31501.75,4512.25,36014.0,3,Long
2025-05-22,31501.75,4606.75,36108.5,3,Long
2025-05-23,31501.75,3867.75,35369.5,4,Long
2025-05-25,31501.75,4809.75,36311.5,4,Long
2025-05-26,31501.75,4998.75,36500.5,4,Long
2025-05-27,31501.75,5936.75,37438.5,4,Long
2025-05-28,31501.75,7118.75,38620.5,4,Long
2025-05-29,31501.75,5322.75,36824.5,4,Long
2025-05-30,31501.75,5530.75,37032.5,4,Long
2025-06-01,31501.75,5268.75,36770.5,4,Long
2025-06-02,31501.75,6033.75,37535.5,4,Long
2025-06-03,31501.75,6875.75,38377.5,4,Long
2025-06-04,31501.75,7019.75,38521.5,4,Long
2025-06-05,31501.75,6238.75,37740.5,4,Long
2025-06-06,31501.75,7303.5,38805.25,5,Long
2025-06-08,31501.75,7063.5,38565.25,5,Long
2025-06-09,31501.75,7414.75,38916.5,5,Long
2025-06-10,31501.75,8028.5,39530.25,5,Long
2025-06-11,31501.75,7447.25,38949.0,5,Long
2025-06-12,31501.75,7174.75,38676.5,5,Long
2025-06-13,31501.75,6524.75,38026.5,5,Long
2025-06-15,31501.75,6691.0,38192.75,5,Long
2025-06-16,31501.75,8333.5,39835.25,5,Long
2025-06-17,31501.75,7782.25,39284.0,5,Long
2025-06-18,31501.75,7998.5,39500.25,5,Long
2025-06-19,31501.75,7689.75,39191.5,5,Long
2025-06-20,31501.75,7624.75,39126.5,5,Long
2025-06-22,31501.75,7058.5,38560.25,5,Long
2025-06-23,31501.75,9436.0,40937.75,5,Long
2025-06-24,31501.75,10376.0,41877.75,5,Long
2025-06-25,31501.75,10579.75,42081.5,5,Long
2025-06-26,31501.75,11643.5,43145.25,5,Long
2025-06-27,31501.75,11956.0,43457.75,5,Long
2025-06-29,31501.75,12341.0,43842.75,5,Long
2025-06-30,31501.75,12662.25,44164.0,5,Long
2025-07-01,31501.75,11796.0,43297.75,5,Long
2025-07-02,31501.75,12497.25,43999.0,5,Long
2025-07-03,31501.75,13428.5,44930.25,5,Long
2025-07-04,31501.75,12777.25,44279.0,5,Long
2025-07-06,31501.75,13173.5,44675.25,5,Long
2025-07-07,31501.75,12624.75,44126.5,5,Long
2025-07-08,31501.75,12761.0,44262.75,5,Long
2025-07-09,31501.75,13429.75,44931.5,5,Long
2025-07-10,31501.75,13477.25,44979.0,5,Long
2025-07-11,31501.75,12941.0,44442.75,5,Long
2025-07-13,31501.75,12587.25,44089.0,5,Long
2025-07-14,31501.75,13312.25,44814.0,5,Long
2025-07-15,31501.75,13326.0,44827.75,5,Long
2025-07-16,31501.75,13457.25,44959.0,5,Long
2025-07-17,31501.75,14656.0,46157.75,5,Long
2025-07-18,31501.75,14398.5,45900.25,5,Long
2025-07-20,31501.75,14554.75,46056.5,5,Long
2025-07-21,31501.75,14987.25,46489.0,5,Long
2025-07-22,31501.75,14563.5,46065.25,5,Long
2025-07-23,31501.75,15259.75,46761.5,5,Long
2025-07-24,31501.75,15286.0,46787.75,5,Long
2025-07-25,31501.75,15491.0,46992.75,5,Long
2025-07-27,31501.75,15926.0,47427.75,5,Long
2025-07-28,31501.75,15897.25,47399.0,5,Long
2025-07-29,31501.75,15628.5,47130.25,5,Long
2025-07-30,31501.75,16879.75,48381.5,5,Long
2025-07-31,31501.75,14742.25,46244.0,5,Long
2025-08-01,31501.75,12599.75,44101.5,5,Long
2025-08-03,44009.0,0.0,44009.0,0,
2025-08-04,44009.0,0.0,44009.0,0,
2025-08-05,44009.0,0.0,44009.0,0,
2025-08-06,44009.0,0.0,44009.0,0,
2025-08-07,44009.0,0.0,44009.0,0,
2025-08-08,44009.0,0.0,44009.0,0,
2025-08-10,44009.0,-59.5,43949.5,1,Long
2025-08-11,44009.0,-130.5,43878.5,1,Long
2025-08-12,44009.0,193.25,44202.25,1,Long
2025-08-13,44009.0,182.0,44191.0,1,Long
2025-08-14,44009.0,121.5,44130.5,1,Long
2025-08-15,44009.0,29.25,44038.25,1,Long
2025-08-17,44009.0,83.75,44092.75,1,Long
2025-08-18,44009.0,37.5,44046.5,1,Long
2025-08-19,44009.0,-345.25,43663.75,1,Long
2025-08-20,44009.0,-447.75,43561.25,1,Long
2025-08-21,44009.0,-519.25,43489.75,1,Long
2025-08-22,44009.0,-166.5,43842.5,2,Long
2025-08-24,44009.0,-183.0,43826.0,2,Long
2025-08-25,44009.0,-339.0,43670.0,2,Long
2025-08-26,44009.0,-104.0,43905.0,2,Long
2025-08-27,44009.0,-315.5,43693.5,2,Long
2025-08-28,44009.0,164.5,44173.5,2,Long
2025-08-29,44009.0,-423.0,43586.0,2,Long
2025-08-31,44009.0,-256.0,43753.0,2,Long
2025-09-01,44009.0,-441.0,43568.0,2,Long
2025-09-02,44009.0,-663.0,43346.0,2,Long
2025-09-03,44009.0,-456.0,43553.0,2,Long
2025-09-04,44009.0,80.5,44089.5,2,Long
2025-09-05,44009.0,21.25,44030.25,3,Long
2025-09-07,44009.0,335.5,44344.5,3,Long
2025-09-08,44009.0,424.0,44433.0,3,Long
2025-09-09,44009.0,659.5,44668.5,3,Long
2025-09-10,44009.0,704.5,44713.5,3,Long
2025-09-11,44009.0,1060.0,45069.0,3,Long
2025-09-12,44009.0,1345.75,45354.75,3,Long
2025-09-14,44009.0,1335.25,45344.25,3,Long
2025-09-15,44009.0,1917.25,45926.25,3,Long
2025-09-16,44009.0,2631.25,46640.25,3,Long
2025-09-17,44009.0,2754.25,46763.25,3,Long
2025-09-18,44009.0,3222.25,47231.25,3,Long
2025-09-19,44009.0,3603.25,47612.25,4,Long
2025-09-21,44009.0,3563.25,47572.25,4,Long
2025-09-22,44009.0,4148.25,48157.25,4,Long
2025-09-23,44009.0,3521.25,47530.25,4,Long
2025-09-24,44009.0,3181.25,47190.25,4,Long
2025-09-25,44009.0,2625.25,46634.25,4,Long
2025-09-26,44009.0,3068.25,47077.25,4,Long
2025-09-28,44009.0,3247.25,47256.25,4,Long
2025-09-29,44009.0,3454.25,47463.25,4,Long
2025-09-30,44009.0,3479.25,47488.25,4,Long
2025-10-01,44009.0,4248.25,48257.25,4,Long
2025-10-02,44009.0,4655.25,48664.25,4,Long
2025-10-03,44009.0,4047.0,48056.0,5,Long
2025-10-05,44009.0,4473.25,48482.25,5,Long
2025-10-06,44009.0,4849.5,48858.5,5,Long
2025-10-07,44009.0,4307.0,48316.0,5,Long
2025-10-08,44009.0,6034.5,50043.5,5,Long
2025-10-09,44009.0,5814.5,49823.5,5,Long
2025-10-10,44009.0,80.75,44089.75,5,Long
2025-10-12,45558.5,0.0,45558.5,0,
2025-10-13,45558.5,0.0,45558.5,0,
2025-10-14,45558.5,0.0,45558.5,0,
2025-10-15,45558.5,0.0,45558.5,0,
2025-10-16,45558.5,0.0,45558.5,0,
2025-10-17,45558.5,0.0,45558.5,0,
2025-10-19,45558.5,0.0,45558.5,0,
2025-10-20,45558.5,0.0,45558.5,0,
2025-10-21,45558.5,0.0,45558.5,0,
2025-10-22,45558.5,0.0,45558.5,0,
2025-10-23,45558.5,0.0,45558.5,0,
2025-10-24,45558.5,0.0,45558.5,0,
2025-10-26,45558.5,0.0,45558.5,0,
2025-10-27,45558.5,277.75,45836.25,1,Long
2025-10-28,45558.5,467.0,46025.5,1,Long
2025-10-29,45558.5,518.75,46077.25,1,Long
2025-10-30,45558.5,453.5,46012.0,1,Long
2025-10-31,45558.5,266.75,45825.25,1,Long
2025-11-02,45558.5,363.75,45922.25,1,Long
2025-11-03,45558.5,352.0,45910.5,1,Long
2025-11-04,45558.5,-213.25,45345.25,1,Long
2025-11-05,45558.5,56.0,45614.5,1,Long
2025-11-06,45558.5,-400.25,45158.25,1,Long
2025-11-07,45558.5,-489.75,45068.75,1,Long
2025-11-09,45558.5,-381.0,45177.5,1,Long
2025-11-10,45558.5,25.75,45584.25,1,Long
2025-11-11,45558.5,-66.75,45491.75,1,Long
2025-11-12,45558.5,-176.5,45382.0,1,Long
2025-11-13,45558.5,-609.0,44949.5,1,Long
2025-11-14,44949.0,0.0,44949.0,0,
2025-11-16,44949.0,0.0,44949.0,0,
2025-11-17,44949.0,0.0,44949.0,0,
2025-11-18,44949.0,0.0,44949.0,0,
2025-11-19,44949.0,0.0,44949.0,0,
2025-11-20,44949.0,0.0,44949.0,0,
2025-11-21,44949.0,0.0,44949.0,0,
2025-11-23,44949.0,0.0,44949.0,0,
2025-11-24,44949.0,0.0,44949.0,0,
2025-11-25,44949.0,0.0,44949.0,0,
2025-11-26,44949.0,0.0,44949.0,0,
2025-11-27,44949.0,0.0,44949.0,0,
2025-11-28,44949.0,0.0,44949.0,0,
2025-11-30,44949.0,0.0,44949.0,0,
2025-12-01,44949.0,0.0,44949.0,0,
2025-12-02,44949.0,0.0,44949.0,0,
2025-12-03,44949.0,0.0,44949.0,0,
2025-12-04,44949.0,0.0,44949.0,0,
2025-12-05,44949.0,0.0,44949.0,0,
2025-12-07,44949.0,0.0,44949.0,0,
2025-12-08,44949.0,0.0,44949.0,0,
2025-12-09,44949.0,0.0,44949.0,0,
2025-12-10,44949.0,0.0,44949.0,0,
2025-12-11,44949.0,0.0,44949.0,0,
2025-12-12,44949.0,0.0,44949.0,0,
2025-12-14,44949.0,0.0,44949.0,0,
2025-12-15,44949.0,0.0,44949.0,0,
2025-12-16,44949.0,0.0,44949.0,0,
2025-12-17,44949.0,0.0,44949.0,0,
2025-12-18,44949.0,0.0,44949.0,0,
2025-12-19,44949.0,0.0,44949.0,0,
2025-12-21,44949.0,0.0,44949.0,0,
2025-12-22,44949.0,0.0,44949.0,0,
2025-12-23,44949.0,0.0,44949.0,0,
2025-12-24,44949.0,0.0,44949.0,0,
2025-12-25,44949.0,17.25,44966.25,1,Long
2025-12-26,44949.0,-13.0,44936.0,1,Long
2025-12-28,44949.0,0.0,44949.0,1,Long
2025-12-29,44949.0,-163.0,44786.0,1,Long
2025-12-30,44949.0,-213.25,44735.75,1,Long
2025-12-31,44949.0,-435.5,44513.5,1,Long
2026-01-01,44949.0,-373.0,44576.0,1,Long
2026-01-02,44949.0,-462.0,44487.0,2,Long
2026-01-04,44949.0,-334.0,44615.0,2,Long
2026-01-05,44949.0,-117.5,44831.5,2,Long
2026-01-06,44949.0,400.5,45349.5,2,Long
2026-01-07,44949.0,397.5,45346.5,2,Long
2026-01-08,44949.0,102.0,45051.0,2,Long
2026-01-09,44949.0,613.5,45562.5,2,Long
2026-01-11,44949.0,538.5,45487.5,2,Long
2026-01-12,44949.0,542.0,45491.0,2,Long
2026-01-13,44949.0,532.5,45481.5,2,Long
2026-01-14,44949.0,-38.5,44910.5,2,Long
2026-01-15,44949.0,233.5,45182.5,2,Long
2026-01-16,44949.0,93.0,45042.0,3,Long
2026-01-18,44949.0,-551.25,44397.75,3,Long
2026-01-19,44949.0,-816.75,44132.25,3,Long
2026-01-20,44949.0,-1603.5,43345.5,3,Long
2026-01-21,43347.0,0.0,43347.0,0,
2026-01-22,43347.0,0.0,43347.0,0,
2026-01-23,43347.0,0.0,43347.0,0,
2026-01-25,43347.0,0.0,43347.0,0,
2026-01-26,43347.0,0.0,43347.0,0,
2026-01-27,43347.0,0.0,43347.0,0,
2026-01-28,43347.0,32.0,43379.0,1,Long
2026-01-29,43347.0,-166.0,43181.0,1,Long
2026-01-30,43347.0,-499.25,42847.75,1,Long
2026-02-01,43347.0,-604.5,42742.5,1,Long
2026-02-02,43347.0,-190.0,43157.0,1,Long
2026-02-03,43347.0,-710.25,42636.75,1,Long
2026-02-04,43347.0,-1070.25,42276.75,1,Long
2026-02-05,42277.5,0.0,42277.5,0,
2026-02-06,42277.5,0.0,42277.5,0,
2026-02-08,42277.5,0.0,42277.5,0,
2026-02-09,42277.5,0.0,42277.5,0,
2026-02-10,42277.5,0.0,42277.5,0,
2026-02-11,42277.5,0.0,42277.5,0,
2026-02-12,42277.5,0.0,42277.5,0,
2026-02-13,42277.5,0.0,42277.5,0,
2026-02-15,42277.5,0.0,42277.5,0,
2026-02-16,42277.5,0.0,42277.5,0,
2026-02-17,42277.5,0.0,42277.5,0,
2026-02-18,42277.5,0.0,42277.5,0,
2026-02-19,42277.5,0.0,42277.5,0,
2026-02-20,42277.5,0.0,42277.5,0,
2026-02-22,42277.5,0.0,42277.5,0,
2026-02-23,42277.5,0.0,42277.5,0,
2026-02-24,42277.5,0.0,42277.5,0,
2026-02-25,42277.5,0.0,42277.5,0,
2026-02-26,42277.5,0.0,42277.5,0,
2026-02-27,42277.5,0.0,42277.5,0,
2026-03-01,42277.5,0.0,42277.5,0,
2026-03-02,42277.5,0.0,42277.5,0,
2026-03-03,42277.5,0.0,42277.5,0,
2026-03-04,42277.5,0.0,42277.5,0,
2026-03-05,42277.5,0.0,42277.5,0,
2026-03-06,42277.5,0.0,42277.5,0,
2026-03-08,42277.5,0.0,42277.5,0,
