date,realized_points,open_unrealized_points,total_equity_points,open_units,direction
2019-05-05,0.0,0.0,0.0,0,
2019-05-06,0.0,0.0,0.0,0,
2019-05-07,0.0,0.0,0.0,0,
2019-05-08,0.0,0.0,0.0,0,
2019-05-09,0.0,0.0,0.0,0,
2019-05-10,0.0,0.0,0.0,0,
2019-05-12,0.0,0.0,0.0,0,
2019-05-13,0.0,0.0,0.0,0,
2019-05-14,0.0,0.0,0.0,0,
2019-05-15,0.0,0.0,0.0,0,
2019-05-16,0.0,0.0,0.0,0,
2019-05-17,0.0,0.0,0.0,0,
2019-05-19,0.0,0.0,0.0,0,
2019-05-20,0.0,0.0,0.0,0,
2019-05-21,0.0,0.0,0.0,0,
2019-05-22,0.0,0.0,0.0,0,
2019-05-23,0.0,0.0,0.0,0,
2019-05-24,0.0,0.0,0.0,0,
2019-05-26,0.0,0.0,0.0,0,
2019-05-27,0.0,0.0,0.0,0,
2019-05-28,0.0,0.0,0.0,0,
2019-05-29,0.0,0.0,0.0,0,
2019-05-30,0.0,0.0,0.0,0,
2019-05-31,0.0,0.0,0.0,0,
2019-06-02,0.0,0.0,0.0,0,
2019-06-03,0.0,0.0,0.0,0,
2019-06-04,0.0,0.0,0.0,0,
2019-06-05,0.0,0.0,0.0,0,
2019-06-06,0.0,0.0,0.0,0,
2019-06-07,0.0,152.75,152.75,1,Long
2019-06-09,0.0,180.0,180.0,1,Long
2019-06-10,0.0,231.75,231.75,1,Long
2019-06-11,0.0,238.25,238.25,1,Long
2019-06-12,0.0,214.0,214.0,1,Long
2019-06-13,0.0,219.75,219.75,1,Long
2019-06-14,0.0,208.25,208.25,1,Long
2019-06-16,0.0,250.25,250.25,1,Long
2019-06-17,0.0,287.0,287.0,1,Long
2019-06-18,0.0,409.25,409.25,1,Long
2019-06-19,0.0,451.5,451.5,1,Long
2019-06-20,0.0,488.0,488.0,1,Long
2019-06-21,0.0,470.5,470.5,2,Long
2019-06-23,0.0,518.0,518.0,2,Long
2019-06-24,0.0,495.5,495.5,2,Long
2019-06-25,0.0,230.0,230.0,2,Long
2019-06-26,0.0,285.0,285.0,2,Long
2019-06-27,0.0,369.0,369.0,2,Long
2019-06-28,0.0,425.5,425.5,2,Long
2019-06-30,0.0,582.5,582.5,2,Long
2019-07-01,0.0,532.5,532.5,2,Long
2019-07-02,0.0,648.5,648.5,2,Long
2019-07-03,0.0,757.5,757.5,2,Long
2019-07-04,0.0,786.0,786.0,2,Long
2019-07-05,0.0,687.0,687.0,4,Long
2019-07-07,0.0,639.0,639.0,4,Long
2019-07-08,0.0,444.0,444.0,4,Long
2019-07-09,0.0,656.0,656.0,4,Long
2019-07-10,0.0,977.0,977.0,4,Long
2019-07-11,0.0,955.0,955.0,4,Long
2019-07-12,0.0,1100.0,1100.0,4,Long
2019-07-14,0.0,1076.0,1076.0,4,Long
2019-07-15,0.0,1246.0,1246.0,4,Long
2019-07-16,0.0,1034.0,1034.0,4,Long
2019-07-17,0.0,760.0,760.0,4,Long
2019-07-18,0.0,1051.0,1051.0,4,Long
2019-07-19,0.0,544.0,544.0,6,Long
2019-07-21,0.0,736.0,736.0,6,Long
2019-07-22,0.0,1202.5,1202.5,6,Long
2019-07-23,0.0,1351.0,1351.0,6,Long
2019-07-24,0.0,1730.5,1730.5,6,Long
2019-07-25,0.0,1586.5,1586.5,6,Long
2019-07-26,0.0,1720.0,1720.0,6,Long
2019-07-28,0.0,1738.0,1738.0,6,Long
2019-07-29,0.0,1690.0,1690.0,6,Long
2019-07-30,0.0,1567.0,1567.0,6,Long
2019-07-31,0.0,655.0,655.0,6,Long
2019-08-01,0.0,344.5,344.5,6,Long
2019-08-02,350.5,0.0,350.5,0,
2019-08-04,350.5,0.0,350.5,0,
2019-08-05,350.5,0.0,350.5,0,
2019-08-06,350.5,0.0,350.5,0,
2019-08-07,350.5,0.0,350.5,0,
2019-08-08,350.5,0.0,350.5,0,
2019-08-09,350.5,0.0,350.5,0,
2019-08-11,350.5,0.0,350.5,0,
2019-08-12,350.5,0.0,350.5,0,
2019-08-13,350.5,0.0,350.5,0,
2019-08-14,350.5,0.0,350.5,0,
2019-08-15,350.5,0.0,350.5,0,
2019-08-16,350.5,0.0,350.5,0,
2019-08-18,350.5,0.0,350.5,0,
2019-08-19,350.5,0.0,350.5,0,
2019-08-20,350.5,0.0,350.5,0,
2019-08-21,350.5,0.0,350.5,0,
2019-08-22,350.5,0.0,350.5,0,
2019-08-23,350.5,0.0,350.5,0,
2019-08-25,350.5,0.0,350.5,0,
2019-08-26,350.5,0.0,350.5,0,
2019-08-27,350.5,0.0,350.5,0,
2019-08-28,350.5,0.0,350.5,0,
2019-08-29,350.5,0.0,350.5,0,
2019-08-30,350.5,0.0,350.5,0,
2019-09-01,350.5,0.0,350.5,0,
2019-09-02,350.5,0.0,350.5,0,
2019-09-03,350.5,0.0,350.5,0,
2019-09-04,350.5,0.0,350.5,0,
2019-09-05,350.5,150.25,500.75,1,Long
2019-09-06,350.5,142.75,493.25,1,Long
2019-09-08,350.5,141.5,492.0,1,Long
2019-09-09,350.5,120.5,471.0,1,Long
2019-09-10,350.5,88.5,439.0,1,Long
2019-09-11,350.5,229.5,580.0,1,Long
2019-09-12,350.5,211.0,561.5,1,Long
2019-09-13,350.5,189.0,539.5,2,Long
2019-09-15,350.5,45.0,395.5,2,Long
2019-09-16,350.5,136.5,487.0,2,Long
2019-09-17,350.5,189.0,539.5,2,Long
2019-09-18,350.5,178.5,529.0,2,Long
2019-09-19,350.5,220.5,571.0,2,Long
2019-09-20,350.5,30.0,380.5,2,Long
2019-09-22,350.5,118.5,469.0,2,Long
2019-09-23,350.5,136.0,486.5,2,Long
2019-09-24,350.5,-129.0,221.5,2,Long
2019-09-25,350.5,-2.0,348.5,2,Long
2019-09-26,350.5,-80.0,270.5,2,Long
2019-09-27,350.5,-203.5,147.0,2,Long
2019-09-29,171.0,0.0,171.0,0,
2019-09-30,171.0,57.75,228.75,1,Long
2019-10-01,171.0,-1.5,169.5,1,Long
2019-10-02,168.5,0.0,168.5,0,
2019-10-03,168.5,0.0,168.5,0,
2019-10-04,168.5,0.0,168.5,0,
2019-10-06,168.5,0.0,168.5,0,
2019-10-07,168.5,0.0,168.5,0,
2019-10-08,168.5,0.0,168.5,0,
2019-10-09,168.5,0.0,168.5,0,
2019-10-10,168.5,0.0,168.5,0,
2019-10-11,168.5,0.0,168.5,0,
2019-10-13,168.5,0.0,168.5,0,
2019-10-14,168.5,0.0,168.5,0,
2019-10-15,168.5,0.0,168.5,0,
2019-10-16,168.5,0.0,168.5,0,
2019-10-17,168.5,0.0,168.5,0,
2019-10-18,168.5,0.0,168.5,0,
2019-10-20,168.5,0.0,168.5,0,
2019-10-21,168.5,0.0,168.5,0,
2019-10-22,168.5,0.0,168.5,0,
2019-10-23,168.5,0.0,168.5,0,
2019-10-24,168.5,0.0,168.5,0,
2019-10-25,168.5,114.5,283.0,1,Long
2019-10-27,168.5,133.0,301.5,1,Long
2019-10-28,168.5,188.75,357.25,1,Long
2019-10-29,168.5,135.0,303.5,1,Long
2019-10-30,168.5,199.25,367.75,1,Long
2019-10-31,168.5,165.5,334.0,1,Long
2019-11-01,168.5,239.0,407.5,1,Long
2019-11-03,168.5,252.75,421.25,1,Long
2019-11-04,168.5,315.75,484.25,1,Long
2019-11-05,168.5,289.25,457.75,1,Long
2019-11-06,168.5,279.25,447.75,1,Long
2019-11-07,168.5,313.25,481.75,1,Long
2019-11-08,168.5,336.0,504.5,2,Long
2019-11-10,168.5,320.5,489.0,2,Long
2019-11-11,168.5,304.0,472.5,2,Long
2019-11-12,168.5,345.0,513.5,2,Long
2019-11-13,168.5,344.5,513.0,2,Long
2019-11-14,168.5,359.0,527.5,2,Long
2019-11-15,168.5,463.5,632.0,2,Long
2019-11-17,168.5,436.5,605.0,2,Long
2019-11-18,168.5,471.5,640.0,2,Long
2019-11-19,168.5,451.5,620.0,2,Long
2019-11-20,168.5,356.5,525.0,2,Long
2019-11-21,168.5,356.0,524.5,2,Long
2019-11-22,168.5,380.0,548.5,4,Long
2019-11-24,168.5,479.0,647.5,4,Long
2019-11-25,168.5,754.0,922.5,4,Long
2019-11-26,168.5,858.0,1026.5,4,Long
2019-11-27,168.5,954.0,1122.5,4,Long
2019-11-28,168.5,1049.0,1217.5,4,Long
2019-11-29,168.5,937.0,1105.5,4,Long
2019-12-01,168.5,976.0,1144.5,4,Long
2019-12-02,168.5,469.0,637.5,4,Long
2019-12-03,168.5,299.0,467.5,4,Long
2019-12-04,168.5,415.0,583.5,4,Long
2019-12-05,168.5,511.0,679.5,4,Long
2019-12-06,168.5,865.0,1033.5,6,Long
2019-12-08,168.5,872.5,1041.0,6,Long
2019-12-09,168.5,595.0,763.5,6,Long
2019-12-10,168.5,611.5,780.0,6,Long
2019-12-11,168.5,934.0,1102.5,6,Long
2019-12-12,168.5,1457.5,1626.0,6,Long
2019-12-13,168.5,1579.0,1747.5,6,Long
2019-12-15,168.5,1658.5,1827.0,6,Long
2019-12-16,168.5,2038.0,2206.5,6,Long
2019-12-17,168.5,2065.0,2233.5,6,Long
2019-12-18,168.5,2177.5,2346.0,6,Long
2019-12-19,168.5,2525.5,2694.0,6,Long
2019-12-20,168.5,2707.0,2875.5,8,Long
2019-12-22,168.5,2803.0,2971.5,8,Long
2019-12-23,168.5,2859.0,3027.5,8,Long
2019-12-24,168.5,2865.0,3033.5,8,Long
2019-12-25,168.5,2867.0,3035.5,8,Long
2019-12-26,168.5,3489.0,3657.5,8,Long
2019-12-27,168.5,3255.0,3423.5,8,Long
2019-12-29,168.5,3407.0,3575.5,8,Long
2019-12-30,168.5,2905.0,3073.5,8,Long
2019-12-31,168.5,3197.0,3365.5,8,Long
2020-01-01,168.5,3233.0,3401.5,8,Long
2020-01-02,168.5,4215.0,4383.5,8,Long
2020-01-03,168.5,3507.0,3675.5,9,Long
2020-01-05,168.5,3216.75,3385.25,9,Long
2020-01-06,168.5,3855.75,4024.25,9,Long
2020-01-07,168.5,2982.75,3151.25,9,Long
2020-01-08,168.5,4782.75,4951.25,9,Long
2020-01-09,168.5,5354.25,5522.75,9,Long
2020-01-10,168.5,5019.0,5187.5,9,Long
2020-01-12,168.5,5102.25,5270.75,9,Long
2020-01-13,168.5,6159.75,6328.25,9,Long
2020-01-14,168.5,5493.75,5662.25,9,Long
2020-01-15,168.5,5883.0,6051.5,9,Long
2020-01-16,168.5,6526.5,6695.0,9,Long
2020-01-17,168.5,6756.0,6924.5,10,Long
2020-01-19,168.5,6891.0,7059.5,10,Long
2020-01-20,168.5,6743.5,6912.0,10,Long
2020-01-21,168.5,6826.0,6994.5,10,Long
2020-01-22,168.5,6868.5,7037.0,10,Long
2020-01-23,168.5,7743.5,7912.0,10,Long
2020-01-24,168.5,6416.0,6584.5,10,Long
2020-01-26,168.5,5188.5,5357.0,10,Long
2020-01-27,168.5,4831.0,4999.5,10,Long
2020-01-28,168.5,6043.5,6212.0,10,Long
2020-01-29,168.5,6261.0,6429.5,10,Long
2020-01-30,168.5,7223.5,7392.0,10,Long
2020-01-31,168.5,5168.5,5337.0,10,Long
2020-02-02,168.5,5246.0,5414.5,10,Long
2020-02-03,168.5,5941.0,6109.5,10,Long
2020-02-04,168.5,8423.5,8592.0,10,Long
2020-02-05,168.5,8853.5,9022.0,10,Long
2020-02-06,168.5,9711.0,9879.5,10,Long
2020-02-07,168.5,9043.5,9212.0,10,Long
2020-02-09,168.5,8606.0,8774.5,10,Long
2020-02-10,168.5,10296.0,10464.5,10,Long
2020-02-11,168.5,10456.0,10624.5,10,Long
2020-02-12,168.5,10808.5,10977.0,10,Long
2020-02-13,168.5,11141.0,11309.5,10,Long
2020-02-14,168.5,11351.0,11519.5,10,Long
2020-02-16,168.5,11683.5,11852.0,10,Long
2020-02-17,168.5,11071.0,11239.5,10,Long
2020-02-18,168.5,11686.0,11854.5,10,Long
2020-02-19,168.5,12493.5,12662.0,10,Long
2020-02-20,168.5,10771.0,10939.5,10,Long
2020-02-21,168.5,9606.0,9774.5,10,Long
2020-02-23,8869.5,0.0,8869.5,0,
2020-02-24,8869.5,0.0,8869.5,0,
2020-02-25,8869.5,0.0,8869.5,0,
2020-02-26,8869.5,0.0,8869.5,0,
2020-02-27,8869.5,0.0,8869.5,0,
2020-02-28,8869.5,0.0,8869.5,0,
2020-03-01,8869.5,0.0,8869.5,0,
2020-03-02,8869.5,0.0,8869.5,0,
2020-03-03,8869.5,0.0,8869.5,0,
2020-03-04,8869.5,0.0,8869.5,0,
2020-03-05,8869.5,0.0,8869.5,0,
2020-03-06,8869.5,0.0,8869.5,0,
2020-03-08,8869.5,0.0,8869.5,0,
2020-03-09,8869.5,0.0,8869.5,0,
2020-03-10,8869.5,0.0,8869.5,0,
2020-03-11,8869.5,0.0,8869.5,0,
2020-03-12,8869.5,0.0,8869.5,0,
2020-03-13,8869.5,0.0,8869.5,0,
2020-03-15,8869.5,0.0,8869.5,0,
2020-03-16,8869.5,0.0,8869.5,0,
2020-03-17,8869.5,0.0,8869.5,0,
2020-03-18,8869.5,0.0,8869.5,0,
2020-03-19,8869.5,0.0,8869.5,0,
2020-03-20,8869.5,0.0,8869.5,0,
2020-03-22,8869.5,0.0,8869.5,0,
2020-03-23,8869.5,0.0,8869.5,0,
2020-03-24,8869.5,0.0,8869.5,0,
2020-03-25,8869.5,0.0,8869.5,0,
2020-03-26,8869.5,0.0,8869.5,0,
2020-03-27,8869.5,0.0,8869.5,0,
2020-03-29,8869.5,0.0,8869.5,0,
2020-03-30,8869.5,0.0,8869.5,0,
2020-03-31,8869.5,0.0,8869.5,0,
2020-04-01,8869.5,0.0,8869.5,0,
2020-04-02,8869.5,0.0,8869.5,0,
2020-04-03,8869.5,0.0,8869.5,0,
2020-04-05,8869.5,0.0,8869.5,0,
2020-04-06,8869.5,0.0,8869.5,0,
2020-04-07,8869.5,0.0,8869.5,0,
2020-04-08,8869.5,183.0,9052.5,1,Long
2020-04-09,8869.5,198.5,9068.0,1,Long
2020-04-12,8869.5,77.0,8946.5,1,Long
2020-04-13,8869.5,324.25,9193.75,1,Long
2020-04-14,8869.5,632.25,9501.75,1,Long
2020-04-15,8869.5,491.5,9361.0,1,Long
2020-04-16,8869.5,892.0,9761.5,1,Long
2020-04-17,8869.5,766.75,9636.25,1,Long
2020-04-19,8869.5,705.75,9575.25,1,Long
2020-04-20,8869.5,689.0,9558.5,1,Long
2020-04-21,8869.5,416.75,9286.25,1,Long
2020-04-22,8869.5,575.25,9444.75,1,Long
2020-04-23,8869.5,511.0,9380.5,1,Long
2020-04-24,8869.5,726.0,9595.5,2,Long
2020-04-26,8869.5,698.5,9568.0,2,Long
2020-04-27,8869.5,838.5,9708.0,2,Long
2020-04-28,8869.5,727.0,9596.5,2,Long
2020-04-29,8869.5,1373.5,10243.0,2,Long
2020-04-30,8869.5,868.0,9737.5,2,Long
2020-05-01,8869.5,595.5,9465.0,2,Long
2020-05-03,8869.5,357.5,9227.0,2,Long
2020-05-04,8869.5,839.0,9708.5,2,Long
2020-05-05,8869.5,1104.0,9973.5,2,Long
2020-05-06,8869.5,1121.0,9990.5,2,Long
2020-05-07,8869.5,1474.0,10343.5,2,Long
2020-05-08,8869.5,1634.0,10503.5,4,Long
2020-05-10,8869.5,1763.0,10632.5,4,Long
2020-05-11,8869.5,1858.0,10727.5,4,Long
2020-05-12,8869.5,806.0,9675.5,4,Long
2020-05-13,8869.5,795.0,9664.5,4,Long
2020-05-14,8869.5,1180.0,10049.5,4,Long
2020-05-15,8869.5,1228.0,10097.5,4,Long
2020-05-17,8869.5,1408.0,10277.5,4,Long
2020-05-18,8869.5,2126.0,10995.5,4,Long
2020-05-19,8869.5,2022.0,10891.5,4,Long
2020-05-20,8869.5,2692.0,11561.5,4,Long
2020-05-21,8869.5,2360.0,11229.5,4,Long
2020-05-22,8869.5,2440.0,11309.5,6,Long
2020-05-24,8869.5,2639.5,11509.0,6,Long
2020-05-25,8869.5,2965.0,11834.5,6,Long
2020-05-26,8869.5,2270.5,11140.0,6,Long
2020-05-27,8869.5,2557.0,11426.5,6,Long
2020-05-28,8869.5,2413.0,11282.5,6,Long
2020-05-29,8869.5,3437.5,12307.0,6,Long
2020-05-31,8869.5,2947.0,11816.5,6,Long
2020-06-01,8869.5,3298.0,12167.5,6,Long
2020-06-02,8869.5,3953.5,12823.0,6,Long
2020-06-03,8869.5,4084.0,12953.5,6,Long
2020-06-04,8869.5,3616.0,12485.5,6,Long
2020-06-05,8869.5,4748.5,13618.0,8,Long
2020-06-07,8869.5,5254.5,14124.0,8,Long
2020-06-08,8869.5,5328.5,14198.0,8,Long
2020-06-09,8869.5,6202.5,15072.0,8,Long
2020-06-10,8869.5,6636.5,15506.0,8,Long
2020-06-11,8869.5,3718.5,12588.0,8,Long
2020-06-12,8869.5,3426.5,12296.0,8,Long
2020-06-14,8869.5,2594.5,11464.0,8,Long
2020-06-15,8869.5,5210.5,14080.0,8,Long
2020-06-16,8869.5,6160.5,15030.0,8,Long
2020-06-17,8869.5,5884.5,14754.0,8,Long
2020-06-18,8869.5,6454.5,15324.0,8,Long
2020-06-19,8869.5,5684.5,14554.0,9,Long
2020-06-21,8869.5,5509.0,14378.5,9,Long
2020-06-22,8869.5,7711.75,16581.25,9,Long
2020-06-23,8869.5,7990.75,16860.25,9,Long
2020-06-24,8869.5,6125.5,14995.0,9,Long
2020-06-25,8869.5,7320.25,16189.75,9,Long
2020-06-26,8869.5,4960.0,13829.5,9,Long
2020-06-28,8869.5,4807.0,13676.5,9,Long
2020-06-29,8869.5,6298.75,15168.25,9,Long
2020-06-30,8869.5,6676.75,15546.25,9,Long
2020-07-01,8869.5,8789.5,17659.0,9,Long
2020-07-02,8869.5,9514.0,18383.5,9,Long
2020-07-03,8869.5,9291.25,18160.75,10,Long
2020-07-05,8869.5,9968.75,18838.25,10,Long
2020-07-06,8869.5,12438.75,21308.25,10,Long
2020-07-07,8869.5,11541.25,20410.75,10,Long
2020-07-08,8869.5,12863.75,21733.25,10,Long
2020-07-09,8869.5,13581.25,22450.75,10,Long
2020-07-10,8869.5,14466.25,23335.75,10,Long
2020-07-12,8869.5,14806.25,23675.75,10,Long
2020-07-13,8869.5,12493.75,21363.25,10,Long
2020-07-14,8869.5,13213.75,22083.25,10,Long
2020-07-15,8869.5,12511.25,21380.75,10,Long
2020-07-16,8869.5,11706.25,20575.75,10,Long
2020-07-17,8869.5,12273.75,21143.25,10,Long
2020-07-19,8869.5,12513.75,21383.25,10,Long
2020-07-20,8869.5,15536.25,24405.75,10,Long
2020-07-21,8869.5,14771.25,23640.75,10,Long
2020-07-22,8869.5,14268.75,23138.25,10,Long
2020-07-23,8869.5,11866.25,20735.75,10,Long
2020-07-24,8869.5,10668.75,19538.25,10,Long
2020-07-26,8869.5,10428.75,19298.25,10,Long
2020-07-27,8869.5,13023.75,21893.25,10,Long
2020-07-28,8869.5,11678.75,20548.25,10,Long
2020-07-29,8869.5,12833.75,21703.25,10,Long
2020-07-30,8869.5,15093.75,23963.25,10,Long
2020-07-31,8869.5,15193.75,24063.25,10,Long
2020-08-02,8869.5,15156.25,24025.75,10,Long
2020-08-03,8869.5,16403.75,25273.25,10,Long
2020-08-04,8869.5,16776.25,25645.75,10,Long
2020-08-05,8869.5,16931.25,25800.75,10,Long
2020-08-06,8869.5,18563.75,27433.25,10,Long
2020-08-07,8869.5,17348.75,26218.25,10,Long
2020-08-09,8869.5,17111.25,25980.75,10,Long
2020-08-10,8869.5,16778.75,25648.25,10,Long
2020-08-11,8869.5,15266.25,24135.75,10,Long
2020-08-12,8869.5,17356.25,26225.75,10,Long
2020-08-13,8869.5,18091.25,26960.75,10,Long
2020-08-14,8869.5,17496.25,26365.75,10,Long
2020-08-16,8869.5,17653.75,26523.25,10,Long
2020-08-17,8869.5,19088.75,27958.25,10,Long
2020-08-18,8869.5,20203.75,29073.25,10,Long
2020-08-19,8869.5,18943.75,27813.25,10,Long
2020-08-20,8869.5,21033.75,29903.25,10,Long
2020-08-21,8869.5,21668.75,30538.25,10,Long
2020-08-23,8869.5,21873.75,30743.25,10,Long
2020-08-24,8869.5,22506.25,31375.75,10,Long
2020-08-25,8869.5,23506.25,32375.75,10,Long
2020-08-26,8869.5,25716.25,34585.75,10,Long
2020-08-27,8869.5,25731.25,34600.75,10,Long
2020-08-28,8869.5,26076.25,34945.75,10,Long
2020-08-30,8869.5,26516.25,35385.75,10,Long
2020-08-31,8869.5,27291.25,36160.75,10,Long
2020-09-01,8869.5,29643.75,38513.25,10,Long
2020-09-02,8869.5,30256.25,39125.75,10,Long
2020-09-03,39123.25,0.0,39123.25,0,
2020-09-04,39123.25,0.0,39123.25,0,
2020-09-06,39123.25,0.0,39123.25,0,
2020-09-07,39123.25,0.0,39123.25,0,
2020-09-08,39123.25,0.0,39123.25,0,
2020-09-09,39123.25,0.0,39123.25,0,
2020-09-10,39123.25,0.0,39123.25,0,
2020-09-11,39123.25,0.0,39123.25,0,
2020-09-13,39123.25,0.0,39123.25,0,
2020-09-14,39123.25,0.0,39123.25,0,
2020-09-15,39123.25,0.0,39123.25,0,
2020-09-16,39123.25,0.0,39123.25,0,
2020-09-17,39123.25,0.0,39123.25,0,
2020-09-18,39123.25,0.0,39123.25,0,
2020-09-20,39123.25,0.0,39123.25,0,
2020-09-21,39123.25,0.0,39123.25,0,
2020-09-22,39123.25,0.0,39123.25,0,
2020-09-23,39123.25,0.0,39123.25,0,
2020-09-24,39123.25,0.0,39123.25,0,
2020-09-25,39123.25,0.0,39123.25,0,
2020-09-27,39123.25,0.0,39123.25,0,
2020-09-28,39123.25,0.0,39123.25,0,
2020-09-29,39123.25,0.0,39123.25,0,
2020-09-30,39123.25,0.0,39123.25,0,
2020-10-01,39123.25,0.0,39123.25,0,
2020-10-02,39123.25,0.0,39123.25,0,
2020-10-04,39123.25,0.0,39123.25,0,
2020-10-05,39123.25,0.0,39123.25,0,
2020-10-06,39123.25,0.0,39123.25,0,
2020-10-07,39123.25,0.0,39123.25,0,
2020-10-08,39123.25,0.0,39123.25,0,
2020-10-09,39123.25,0.0,39123.25,0,
2020-10-11,39123.25,14.75,39138.0,1,Long
2020-10-12,39123.25,380.5,39503.75,1,Long
2020-10-13,39123.25,386.0,39509.25,1,Long
2020-10-14,39123.25,232.25,39355.5,1,Long
2020-10-15,39123.25,186.75,39310.0,1,Long
2020-10-16,39123.25,64.5,39187.75,1,Long
2020-10-18,39123.25,144.25,39267.5,1,Long
2020-10-19,39123.25,-13.75,39109.5,1,Long
2020-10-20,39109.75,0.0,39109.75,0,
2020-10-21,39109.75,0.0,39109.75,0,
2020-10-22,39109.75,0.0,39109.75,0,
2020-10-23,39109.75,0.0,39109.75,0,
2020-10-25,39109.75,0.0,39109.75,0,
2020-10-26,39109.75,0.0,39109.75,0,
2020-10-27,39109.75,0.0,39109.75,0,
2020-10-28,39109.75,0.0,39109.75,0,
2020-10-29,39109.75,0.0,39109.75,0,
2020-10-30,39109.75,0.0,39109.75,0,
2020-11-01,39109.75,0.0,39109.75,0,
2020-11-02,39109.75,0.0,39109.75,0,
2020-11-03,39109.75,0.0,39109.75,0,
2020-11-04,39109.75,478.0,39587.75,1,Long
2020-11-05,39109.75,749.75,39859.5,1,Long
2020-11-06,39109.75,777.75,39887.5,1,Long
2020-11-08,39109.75,915.5,40025.25,1,Long
2020-11-09,39109.75,537.25,39647.0,1,Long
2020-11-10,39109.75,280.5,39390.25,1,Long
2020-11-11,39109.75,579.5,39689.25,1,Long
2020-11-12,39109.75,534.5,39644.25,1,Long
2020-11-13,39109.75,629.25,39739.0,2,Long
2020-11-15,39109.75,827.75,39937.5,2,Long
2020-11-16,39109.75,834.25,39944.0,2,Long
2020-11-17,39109.75,695.25,39805.0,2,Long
2020-11-18,39109.75,497.75,39607.5,2,Long
2020-11-19,39109.75,611.75,39721.5,2,Long
2020-11-20,39109.75,559.25,39669.0,2,Long
2020-11-22,39109.75,599.75,39709.5,2,Long
2020-11-23,39109.75,640.75,39750.5,2,Long
2020-11-24,39109.75,989.25,40099.0,2,Long
2020-11-25,39109.75,1096.25,40206.0,2,Long
2020-11-26,39109.75,1046.25,40156.0,2,Long
2020-11-27,39109.75,1284.25,40394.0,4,Long
2020-11-29,39109.75,1457.25,40567.0,4,Long
2020-11-30,39109.75,1585.25,40695.0,4,Long
2020-12-01,39109.75,1993.25,41103.0,4,Long
2020-12-02,39109.75,2054.25,41164.0,4,Long
2020-12-03,39109.75,2130.25,41240.0,4,Long
2020-12-04,39109.75,2230.25,41340.0,4,Long
2020-12-06,39109.75,2368.25,41478.0,4,Long
2020-12-07,39109.75,2490.25,41600.0,4,Long
2020-12-08,39109.75,2778.25,41888.0,4,Long
2020-12-09,39109.75,1642.25,40752.0,4,Long
2020-12-10,39109.75,1802.25,40912.0,4,Long
2020-12-11,39109.75,1655.25,40765.0,6,Long
2020-12-13,39109.75,1955.25,41065.0,6,Long
2020-12-14,39109.75,2333.25,41443.0,6,Long
2020-12-15,39109.75,3026.25,42136.0,6,Long
2020-12-16,39109.75,3552.75,42662.5,6,Long
2020-12-17,39109.75,3956.25,43066.0,6,Long
2020-12-18,39109.75,3945.75,43055.5,6,Long
2020-12-20,39109.75,3950.25,43060.0,6,Long
2020-12-21,39109.75,3663.75,42773.5,6,Long
2020-12-22,39109.75,3777.75,42887.5,6,Long
2020-12-23,39109.75,3384.75,42494.5,6,Long
2020-12-24,39109.75,3680.25,42790.0,6,Long
2020-12-27,39109.75,3861.75,42971.5,6,Long
2020-12-28,39109.75,4566.75,43676.5,6,Long
2020-12-29,39109.75,4523.25,43633.0,6,Long
2020-12-30,39109.75,4547.25,43657.0,6,Long
2020-12-31,39109.75,4761.75,43871.5,6,Long
2021-01-03,39109.75,4638.75,43748.5,6,Long
2021-01-04,39109.75,3504.75,42614.5,6,Long
2021-01-05,39109.75,4224.75,43334.5,6,Long
2021-01-06,39109.75,3492.75,42602.5,6,Long
2021-01-07,39109.75,5085.75,44195.5,6,Long
2021-01-08,39109.75,6203.25,45313.0,8,Long
2021-01-10,39109.75,5867.25,44977.0,8,Long
2021-01-11,39109.75,4583.25,43693.0,8,Long
2021-01-12,39109.75,4381.25,43491.0,8,Long
2021-01-13,39109.75,4967.25,44077.0,8,Long
2021-01-14,39109.75,4543.25,43653.0,8,Long
2021-01-15,39109.75,3317.25,42427.0,8,Long
2021-01-17,39109.75,3175.25,42285.0,8,Long
2021-01-18,39109.75,3859.25,42969.0,8,Long
2021-01-19,39109.75,5605.25,44715.0,8,Long
2021-01-20,39109.75,7723.25,46833.0,8,Long
2021-01-21,39109.75,8277.25,47387.0,8,Long
2021-01-22,39109.75,8021.25,47131.0,9,Long
2021-01-24,39109.75,8437.5,47547.25,9,Long
2021-01-25,39109.75,9013.5,48123.25,9,Long
2021-01-26,39109.75,9888.75,48998.5,9,Long
2021-01-27,39109.75,4657.5,43767.25,9,Long
2021-01-28,39109.75,6086.25,45196.0,9,Long
2021-01-29,45198.25,0.0,45198.25,0,
2021-01-31,45198.25,0.0,45198.25,0,
2021-02-01,45198.25,0.0,45198.25,0,
2021-02-02,45198.25,0.0,45198.25,0,
2021-02-03,45198.25,0.0,45198.25,0,
2021-02-04,45198.25,109.75,45308.0,1,Long
2021-02-05,45198.25,159.75,45358.0,1,Long
2021-02-07,45198.25,194.75,45393.0,1,Long
2021-02-08,45198.25,237.5,45435.75,1,Long
2021-02-09,45198.25,243.5,45441.75,1,Long
2021-02-10,45198.25,209.75,45408.0,1,Long
2021-02-11,45198.25,287.0,45485.25,1,Long
2021-02-12,45198.25,377.75,45576.0,2,Long
2021-02-14,45198.25,385.75,45584.0,2,Long
2021-02-15,45198.25,450.25,45648.5,2,Long
2021-02-16,45198.25,197.25,45395.5,2,Long
2021-02-17,45198.25,140.25,45338.5,2,Long
2021-02-18,45198.25,-34.75,45163.5,2,Long
2021-02-19,45198.25,-121.75,45076.5,2,Long
2021-02-21,45198.25,-81.75,45116.5,2,Long
2021-02-22,45116.5,0.0,45116.5,0,
2021-02-23,45116.5,0.0,45116.5,0,
2021-02-24,45116.5,0.0,45116.5,0,
2021-02-25,45116.5,0.0,45116.5,0,
2021-02-26,45116.5,0.0,45116.5,0,
2021-02-28,45116.5,0.0,45116.5,0,
2021-03-01,45116.5,0.0,45116.5,0,
2021-03-02,45116.5,0.0,45116.5,0,
2021-03-03,45116.5,0.0,45116.5,0,
2021-03-04,45116.5,0.0,45116.5,0,
2021-03-05,45116.5,0.0,45116.5,0,
2021-03-07,45116.5,0.0,45116.5,0,
2021-03-08,45116.5,0.0,45116.5,0,
2021-03-09,45116.5,0.0,45116.5,0,
2021-03-10,45116.5,0.0,45116.5,0,
2021-03-11,45116.5,0.0,45116.5,0,
2021-03-12,45116.5,0.0,45116.5,0,
2021-03-14,45116.5,0.0,45116.5,0,
2021-03-15,45116.5,0.0,45116.5,0,
2021-03-16,45116.5,0.0,45116.5,0,
2021-03-17,45116.5,0.0,45116.5,0,
2021-03-18,45116.5,0.0,45116.5,0,
2021-03-19,45116.5,0.0,45116.5,0,
2021-03-21,45116.5,0.0,45116.5,0,
2021-03-22,45116.5,0.0,45116.5,0,
2021-03-23,45116.5,0.0,45116.5,0,
2021-03-24,45116.5,0.0,45116.5,0,
2021-03-25,45116.5,0.0,45116.5,0,
2021-03-26,45116.5,0.0,45116.5,0,
2021-03-28,45116.5,0.0,45116.5,0,
2021-03-29,45116.5,0.0,45116.5,0,
2021-03-30,45116.5,0.0,45116.5,0,
2021-03-31,45116.5,0.0,45116.5,0,
2021-04-01,45116.5,0.0,45116.5,0,
2021-04-02,45116.5,0.0,45116.5,0,
2021-04-04,45116.5,0.0,45116.5,0,
2021-04-05,45116.5,265.0,45381.5,1,Long
2021-04-06,45116.5,243.0,45359.5,1,Long
2021-04-07,45116.5,286.75,45403.25,1,Long
2021-04-08,45116.5,450.75,45567.25,1,Long
2021-04-09,45116.5,457.5,45574.0,1,Long
2021-04-11,45116.5,427.5,45544.0,1,Long
2021-04-12,45116.5,466.0,45582.5,1,Long
2021-04-13,45116.5,615.5,45732.0,1,Long
2021-04-14,45116.5,460.25,45576.75,1,Long
2021-04-15,45116.5,659.0,45775.5,1,Long
2021-04-16,45116.5,667.0,45783.5,2,Long
2021-04-18,45116.5,604.5,45721.0,2,Long
2021-04-19,45116.5,457.0,45573.5,2,Long
2021-04-20,45116.5,114.5,45231.0,2,Long
2021-04-21,45116.5,389.0,45505.5,2,Long
2021-04-22,45116.5,141.5,45258.0,2,Long
2021-04-23,45116.5,433.5,45550.0,2,Long
2021-04-25,45116.5,443.0,45559.5,2,Long
2021-04-26,45116.5,677.5,45794.0,2,Long
2021-04-27,45116.5,548.5,45665.0,2,Long
2021-04-28,45116.5,566.5,45683.0,2,Long
2021-04-29,45116.5,454.0,45570.5,2,Long
2021-04-30,45116.5,371.0,45487.5,4,Long
2021-05-02,45116.5,428.0,45544.5,4,Long
2021-05-03,45116.5,-15.0,45101.5,4,Long
2021-05-04,45116.5,-993.0,44123.5,4,Long
2021-05-05,45116.5,-1090.0,44026.5,4,Long
2021-05-06,45116.5,-644.0,44472.5,4,Long
2021-05-07,45116.5,-222.0,44894.5,4,Long
2021-05-09,45116.5,-137.0,44979.5,4,Long
2021-05-10,44980.5,0.0,44980.5,0,
2021-05-11,44980.5,0.0,44980.5,0,
2021-05-12,44980.5,0.0,44980.5,0,
2021-05-13,44980.5,0.0,44980.5,0,
2021-05-14,44980.5,0.0,44980.5,0,
2021-05-16,44980.5,0.0,44980.5,0,
2021-05-17,44980.5,0.0,44980.5,0,
2021-05-18,44980.5,0.0,44980.5,0,
2021-05-19,44980.5,0.0,44980.5,0,
2021-05-20,44980.5,0.0,44980.5,0,
2021-05-21,44980.5,0.0,44980.5,0,
2021-05-23,44980.5,0.0,44980.5,0,
2021-05-24,44980.5,0.0,44980.5,0,
2021-05-25,44980.5,0.0,44980.5,0,
2021-05-26,44980.5,0.0,44980.5,0,
2021-05-27,44980.5,0.0,44980.5,0,
2021-05-28,44980.5,0.0,44980.5,0,
2021-05-30,44980.5,0.0,44980.5,0,
2021-05-31,44980.5,0.0,44980.5,0,
2021-06-01,44980.5,0.0,44980.5,0,
2021-06-02,44980.5,0.0,44980.5,0,
2021-06-03,44980.5,0.0,44980.5,0,
2021-06-04,44980.5,260.5,45241.0,1,Long
2021-06-06,44980.5,264.0,45244.5,1,Long
2021-06-07,44980.5,319.25,45299.75,1,Long
2021-06-08,44980.5,313.5,45294.0,1,Long
2021-06-09,44980.5,311.5,45292.0,1,Long
2021-06-10,44980.5,464.25,45444.75,1,Long
2021-06-11,44980.5,481.25,45461.75,1,Long
2021-06-13,44980.5,506.0,45486.5,1,Long
2021-06-14,44980.5,602.75,45583.25,1,Long
2021-06-15,44980.5,527.75,45508.25,1,Long
2021-06-16,44980.5,383.0,45363.5,1,Long
2021-06-17,44980.5,672.0,45652.5,1,Long
2021-06-18,44980.5,470.0,45450.5,2,Long
2021-06-20,44980.5,510.5,45491.0,2,Long
2021-06-21,44980.5,704.0,45684.5,2,Long
2021-06-22,44980.5,979.0,45959.5,2,Long
2021-06-23,44980.5,1006.5,45987.0,2,Long
2021-06-24,44980.5,1127.0,46107.5,2,Long
2021-06-25,44980.5,1096.5,46077.0,2,Long
2021-06-27,44980.5,1143.5,46124.0,2,Long
2021-06-28,44980.5,1417.5,46398.0,2,Long
2021-06-29,44980.5,1609.5,46590.0,2,Long
2021-06-30,44980.5,1555.0,46535.5,2,Long
2021-07-01,44980.5,1500.0,46480.5,2,Long
2021-07-02,44980.5,1805.0,46785.5,4,Long
2021-07-04,44980.5,1861.0,46841.5,4,Long
2021-07-05,44980.5,1860.0,46840.5,4,Long
2021-07-06,44980.5,2062.0,47042.5,4,Long
2021-07-07,44980.5,2244.0,47224.5,4,Long
2021-07-08,44980.5,1771.0,46751.5,4,Long
2021-07-09,44980.5,2261.0,47241.5,4,Long
2021-07-11,44980.5,2321.0,47301.5,4,Long
2021-07-12,44980.5,2522.0,47502.5,4,Long
2021-07-13,44980.5,2383.0,47363.5,4,Long
2021-07-14,44980.5,2620.0,47600.5,4,Long
2021-07-15,44980.5,2031.0,47011.5,4,Long
2021-07-16,44980.5,1703.5,46684.0,6,Long
2021-07-18,44980.5,1538.5,46519.0,6,Long
2021-07-19,44980.5,1219.0,46199.5,6,Long
2021-07-20,44980.5,2140.0,47120.5,6,Long
2021-07-21,44980.5,2695.0,47675.5,6,Long
2021-07-22,44980.5,3506.5,48487.0,6,Long
2021-07-23,44980.5,4237.0,49217.5,6,Long
2021-07-25,44980.5,4408.0,49388.5,6,Long
2021-07-26,44980.5,4351.0,49331.5,6,Long
2021-07-27,44980.5,3203.5,48184.0,6,Long
2021-07-28,44980.5,3611.5,48592.0,6,Long
2021-07-29,44980.5,2902.0,47882.5,6,Long
2021-07-30,44980.5,3528.5,48509.0,8,Long
2021-08-01,44980.5,3804.5,48785.0,8,Long
2021-08-02,44980.5,3480.5,48461.0,8,Long
2021-08-03,44980.5,4038.5,49019.0,8,Long
2021-08-04,44980.5,4460.5,49441.0,8,Long
2021-08-05,44980.5,5074.5,50055.0,8,Long
2021-08-06,44980.5,4532.5,49513.0,8,Long
2021-08-08,44980.5,3966.5,48947.0,8,Long
2021-08-09,44980.5,4740.5,49721.0,8,Long
2021-08-10,44980.5,4074.5,49055.0,8,Long
2021-08-11,44980.5,3756.5,48737.0,8,Long
2021-08-12,44980.5,4332.5,49313.0,8,Long
2021-08-13,44980.5,4788.5,49769.0,9,Long
2021-08-15,44980.5,4700.75,49681.25,9,Long
2021-08-16,44980.5,4849.25,49829.75,9,Long
2021-08-17,44980.5,3287.75,48268.25,9,Long
2021-08-18,44980.5,2284.25,47264.75,9,Long
2021-08-19,44980.5,2925.5,47906.0,9,Long
2021-08-20,44980.5,4529.75,49510.25,9,Long
2021-08-22,44980.5,4640.0,49620.5,9,Long
2021-08-23,44980.5,6640.25,51620.75,9,Long
2021-08-24,44980.5,6894.5,51875.0,9,Long
2021-08-25,44980.5,6930.5,51911.0,9,Long
2021-08-26,44980.5,6179.0,51159.5,9,Long
2021-08-27,44980.5,7522.0,52502.5,10,Long
2021-08-29,44980.5,7767.0,52747.5,10,Long
2021-08-30,44980.5,9224.5,54205.0,10,Long
2021-08-31,44980.5,9212.0,54192.5,10,Long
2021-09-01,44980.5,9427.0,54407.5,10,Long
2021-09-02,44980.5,9212.0,54192.5,10,Long
2021-09-03,44980.5,9777.0,54757.5,10,Long
2021-09-05,44980.5,9744.5,54725.0,10,Long
2021-09-06,44980.5,10134.5,55115.0,10,Long
2021-09-07,44980.5,9862.0,54842.5,10,Long
2021-09-08,44980.5,9242.0,54222.5,10,Long
2021-09-09,44980.5,8882.0,53862.5,10,Long
2021-09-10,44980.5,7619.5,52600.0,10,Long
2021-09-12,44980.5,8087.0,53067.5,10,Long
2021-09-13,44980.5,7694.5,52675.0,10,Long
2021-09-14,44980.5,7312.0,52292.5,10,Long
2021-09-15,44980.5,8259.5,53240.0,10,Long
2021-09-16,44980.5,8057.0,53037.5,10,Long
2021-09-17,53037.5,0.0,53037.5,0,
2021-09-19,53037.5,0.0,53037.5,0,
2021-09-20,53037.5,0.0,53037.5,0,
2021-09-21,53037.5,0.0,53037.5,0,
2021-09-22,53037.5,0.0,53037.5,0,
2021-09-23,53037.5,0.0,53037.5,0,
2021-09-24,53037.5,0.0,53037.5,0,
2021-09-26,53037.5,0.0,53037.5,0,
2021-09-27,53037.5,0.0,53037.5,0,
2021-09-28,53037.5,0.0,53037.5,0,
2021-09-29,53037.5,0.0,53037.5,0,
2021-09-30,53037.5,0.0,53037.5,0,
2021-10-01,53037.5,0.0,53037.5,0,
2021-10-03,53037.5,0.0,53037.5,0,
2021-10-04,53037.5,0.0,53037.5,0,
2021-10-05,53037.5,0.0,53037.5,0,
2021-10-06,53037.5,0.0,53037.5,0,
2021-10-07,53037.5,0.0,53037.5,0,
2021-10-08,53037.5,0.0,53037.5,0,
2021-10-10,53037.5,0.0,53037.5,0,
2021-10-11,53037.5,0.0,53037.5,0,
2021-10-12,53037.5,0.0,53037.5,0,
2021-10-13,53037.5,0.0,53037.5,0,
2021-10-14,53037.5,0.0,53037.5,0,
2021-10-15,53037.5,0.0,53037.5,0,
2021-10-17,53037.5,0.0,53037.5,0,
2021-10-18,53037.5,210.0,53247.5,1,Long
2021-10-19,53037.5,327.25,53364.75,1,Long
2021-10-20,53037.5,253.25,53290.75,1,Long
2021-10-21,53037.5,309.75,53347.25,1,Long
2021-10-22,53037.5,242.0,53279.5,1,Long
2021-10-24,53037.5,224.25,53261.75,1,Long
2021-10-25,53037.5,457.0,53494.5,1,Long
2021-10-26,53037.5,478.0,53515.5,1,Long
2021-10-27,53037.5,544.25,53581.75,1,Long
2021-10-28,53037.5,590.25,53627.75,1,Long
2021-10-29,53037.5,854.75,53892.25,2,Long
2021-10-31,53037.5,877.75,53915.25,2,Long
2021-11-01,53037.5,869.25,53906.75,2,Long
2021-11-02,53037.5,1002.25,54039.75,2,Long
2021-11-03,53037.5,1488.75,54526.25,2,Long
2021-11-04,53037.5,1797.25,54834.75,2,Long
2021-11-05,53037.5,1803.25,54840.75,2,Long
2021-11-07,53037.5,1741.25,54778.75,2,Long
2021-11-08,53037.5,1738.25,54775.75,2,Long
2021-11-09,53037.5,1488.25,54525.75,2,Long
2021-11-10,53037.5,1097.75,54135.25,2,Long
2021-11-11,53037.5,1245.75,54283.25,2,Long
2021-11-12,53037.5,1561.25,54598.75,4,Long
2021-11-14,53037.5,1659.25,54696.75,4,Long
2021-11-15,53037.5,1513.25,54550.75,4,Long
2021-11-16,53037.5,1975.25,55012.75,4,Long
2021-11-17,53037.5,2072.25,55109.75,4,Long
2021-11-18,53037.5,2738.25,55775.75,4,Long
2021-11-19,53037.5,3107.25,56144.75,4,Long
2021-11-21,53037.5,3109.25,56146.75,4,Long
2021-11-22,53037.5,2341.25,55378.75,4,Long
2021-11-23,53037.5,1900.25,54937.75,4,Long
2021-11-24,53037.5,2185.25,55222.75,4,Long
2021-11-25,53037.5,2238.25,55275.75,4,Long
2021-11-26,55272.75,0.0,55272.75,0,
2021-11-28,55272.75,0.0,55272.75,0,
2021-11-29,55272.75,0.0,55272.75,0,
2021-11-30,55272.75,0.0,55272.75,0,
2021-12-01,55272.75,0.0,55272.75,0,
2021-12-02,55272.75,0.0,55272.75,0,
2021-12-03,55272.75,0.0,55272.75,0,
2021-12-05,55272.75,0.0,55272.75,0,
2021-12-06,55272.75,0.0,55272.75,0,
2021-12-07,55272.75,0.0,55272.75,0,
2021-12-08,55272.75,0.0,55272.75,0,
2021-12-09,55272.75,0.0,55272.75,0,
2021-12-10,55272.75,0.0,55272.75,0,
2021-12-12,55272.75,0.0,55272.75,0,
2021-12-13,55272.75,0.0,55272.75,0,
2021-12-14,55272.75,0.0,55272.75,0,
2021-12-15,55272.75,0.0,55272.75,0,
2021-12-16,55272.75,0.0,55272.75,0,
2021-12-17,55272.75,0.0,55272.75,0,
2021-12-19,55272.75,0.0,55272.75,0,
2021-12-20,55272.75,0.0,55272.75,0,
2021-12-21,55272.75,0.0,55272.75,0,
2021-12-22,55272.75,0.0,55272.75,0,
2021-12-23,55272.75,0.0,55272.75,0,
2021-12-26,55272.75,0.0,55272.75,0,
2021-12-27,55272.75,212.5,55485.25,1,Long
2021-12-28,55272.75,197.0,55469.75,1,Long
2021-12-29,55272.75,121.0,55393.75,1,Long
2021-12-30,55272.75,96.0,55368.75,1,Long
2021-12-31,55272.75,-8.75,55264.0,1,Long
2022-01-02,55285.5,0.0,55285.5,0,
2022-01-03,55285.5,99.75,55385.25,1,Long
2022-01-04,55285.5,-151.25,55134.25,1,Long
2022-01-05,55134.5,0.0,55134.5,0,
2022-01-06,55134.5,0.0,55134.5,0,
2022-01-07,55134.5,0.0,55134.5,0,
2022-01-09,55134.5,0.0,55134.5,0,
2022-01-10,55134.5,0.0,55134.5,0,
2022-01-11,55134.5,0.0,55134.5,0,
2022-01-12,55134.5,0.0,55134.5,0,
2022-01-13,55134.5,0.0,55134.5,0,
2022-01-14,55134.5,0.0,55134.5,0,
2022-01-16,55134.5,0.0,55134.5,0,
2022-01-17,55134.5,0.0,55134.5,0,
2022-01-18,55134.5,0.0,55134.5,0,
2022-01-19,55134.5,0.0,55134.5,0,
2022-01-20,55134.5,0.0,55134.5,0,
2022-01-21,55134.5,0.0,55134.5,0,
2022-01-23,55134.5,0.0,55134.5,0,
2022-01-24,55134.5,0.0,55134.5,0,
2022-01-25,55134.5,0.0,55134.5,0,
2022-01-26,55134.5,0.0,55134.5,0,
2022-01-27,55134.5,0.0,55134.5,0,
2022-01-28,55134.5,0.0,55134.5,0,
2022-01-30,55134.5,0.0,55134.5,0,
2022-01-31,55134.5,0.0,55134.5,0,
2022-02-01,55134.5,0.0,55134.5,0,
2022-02-02,55134.5,0.0,55134.5,0,
2022-02-03,55134.5,0.0,55134.5,0,
2022-02-04,55134.5,0.0,55134.5,0,
2022-02-06,55134.5,0.0,55134.5,0,
2022-02-07,55134.5,0.0,55134.5,0,
2022-02-08,55134.5,0.0,55134.5,0,
2022-02-09,55134.5,0.0,55134.5,0,
2022-02-10,55134.5,0.0,55134.5,0,
2022-02-11,55134.5,0.0,55134.5,0,
2022-02-13,55134.5,0.0,55134.5,0,
2022-02-14,55134.5,0.0,55134.5,0,
2022-02-15,55134.5,0.0,55134.5,0,
2022-02-16,55134.5,0.0,55134.5,0,
2022-02-17,55134.5,0.0,55134.5,0,
2022-02-18,55134.5,0.0,55134.5,0,
2022-02-20,55134.5,0.0,55134.5,0,
2022-02-21,55134.5,0.0,55134.5,0,
2022-02-22,55134.5,0.0,55134.5,0,
2022-02-23,55134.5,0.0,55134.5,0,
2022-02-24,55134.5,0.0,55134.5,0,
2022-02-25,55134.5,0.0,55134.5,0,
2022-02-27,55134.5,0.0,55134.5,0,
2022-02-28,55134.5,0.0,55134.5,0,
2022-03-01,55134.5,0.0,55134.5,0,
2022-03-02,55134.5,0.0,55134.5,0,
2022-03-03,55134.5,0.0,55134.5,0,
2022-03-04,55134.5,0.0,55134.5,0,
2022-03-06,55134.5,0.0,55134.5,0,
2022-03-07,55134.5,0.0,55134.5,0,
2022-03-08,55134.5,0.0,55134.5,0,
2022-03-09,55134.5,0.0,55134.5,0,
2022-03-10,55134.5,0.0,55134.5,0,
2022-03-11,55134.5,0.0,55134.5,0,
2022-03-13,55134.5,0.0,55134.5,0,
2022-03-14,55134.5,0.0,55134.5,0,
2022-03-15,55134.5,0.0,55134.5,0,
2022-03-16,55134.5,0.0,55134.5,0,
2022-03-17,55134.5,0.0,55134.5,0,
2022-03-18,55134.5,0.0,55134.5,0,
2022-03-20,55134.5,0.0,55134.5,0,
2022-03-21,55134.5,0.0,55134.5,0,
2022-03-22,55134.5,326.0,55460.5,1,Long
2022-03-23,55134.5,133.25,55267.75,1,Long
2022-03-24,55134.5,409.25,55543.75,1,Long
2022-03-25,55134.5,411.75,55546.25,1,Long
2022-03-27,55134.5,380.25,55514.75,1,Long
2022-03-28,55134.5,632.25,55766.75,1,Long
2022-03-29,55134.5,880.75,56015.25,1,Long
2022-03-30,55134.5,763.0,55897.5,1,Long
2022-03-31,55134.5,571.75,55706.25,1,Long
2022-04-01,55134.5,587.75,55722.25,2,Long
2022-04-03,55134.5,518.75,55653.25,2,Long
2022-04-04,55134.5,1185.25,56319.75,2,Long
2022-04-05,55134.5,550.75,55685.25,2,Long
2022-04-06,55134.5,-221.75,54912.75,2,Long
2022-04-07,55134.5,12.75,55147.25,2,Long
2022-04-08,55134.5,-462.25,54672.25,2,Long
2022-04-10,54683.75,0.0,54683.75,0,
2022-04-11,54683.75,0.0,54683.75,0,
2022-04-12,54683.75,0.0,54683.75,0,
2022-04-13,54683.75,0.0,54683.75,0,
2022-04-14,54683.75,0.0,54683.75,0,
2022-04-17,54683.75,0.0,54683.75,0,
2022-04-18,54683.75,0.0,54683.75,0,
2022-04-19,54683.75,0.0,54683.75,0,
2022-04-20,54683.75,0.0,54683.75,0,
2022-04-21,54683.75,0.0,54683.75,0,
2022-04-22,54683.75,0.0,54683.75,0,
2022-04-24,54683.75,0.0,54683.75,0,
2022-04-25,54683.75,0.0,54683.75,0,
2022-04-26,54683.75,0.0,54683.75,0,
2022-04-27,54683.75,0.0,54683.75,0,
2022-04-28,54683.75,0.0,54683.75,0,
2022-04-29,54683.75,0.0,54683.75,0,
2022-05-01,54683.75,0.0,54683.75,0,
2022-05-02,54683.75,0.0,54683.75,0,
2022-05-03,54683.75,0.0,54683.75,0,
2022-05-04,54683.75,0.0,54683.75,0,
2022-05-05,54683.75,0.0,54683.75,0,
2022-05-06,54683.75,0.0,54683.75,0,
2022-05-08,54683.75,0.0,54683.75,0,
2022-05-09,54683.75,0.0,54683.75,0,
2022-05-10,54683.75,0.0,54683.75,0,
2022-05-11,54683.75,0.0,54683.75,0,
2022-05-12,54683.75,0.0,54683.75,0,
2022-05-13,54683.75,0.0,54683.75,0,
2022-05-15,54683.75,0.0,54683.75,0,
2022-05-16,54683.75,0.0,54683.75,0,
2022-05-17,54683.75,0.0,54683.75,0,
2022-05-18,54683.75,0.0,54683.75,0,
2022-05-19,54683.75,0.0,54683.75,0,
2022-05-20,54683.75,0.0,54683.75,0,
2022-05-22,54683.75,0.0,54683.75,0,
2022-05-23,54683.75,0.0,54683.75,0,
2022-05-24,54683.75,0.0,54683.75,0,
2022-05-25,54683.75,0.0,54683.75,0,
2022-05-26,54683.75,0.0,54683.75,0,
2022-05-27,54683.75,0.0,54683.75,0,
2022-05-29,54683.75,0.0,54683.75,0,
2022-05-30,54683.75,0.0,54683.75,0,
2022-05-31,54683.75,0.0,54683.75,0,
2022-06-01,54683.75,0.0,54683.75,0,
2022-06-02,54683.75,412.5,55096.25,1,Long
2022-06-03,54683.75,40.5,54724.25,1,Long
2022-06-05,54683.75,40.5,54724.25,1,Long
2022-06-06,54683.75,93.75,54777.5,1,Long
2022-06-07,54683.75,161.25,54845.0,1,Long
2022-06-08,54683.75,115.0,54798.75,1,Long
2022-06-09,54683.75,-221.0,54462.75,1,Long
2022-06-10,54462.5,0.0,54462.5,0,
2022-06-12,54462.5,0.0,54462.5,0,
2022-06-13,54462.5,0.0,54462.5,0,
2022-06-14,54462.5,0.0,54462.5,0,
2022-06-15,54462.5,0.0,54462.5,0,
2022-06-16,54462.5,0.0,54462.5,0,
2022-06-17,54462.5,0.0,54462.5,0,
2022-06-19,54462.5,0.0,54462.5,0,
2022-06-20,54462.5,0.0,54462.5,0,
2022-06-21,54462.5,0.0,54462.5,0,
2022-06-22,54462.5,0.0,54462.5,0,
2022-06-23,54462.5,0.0,54462.5,0,
2022-06-24,54462.5,0.0,54462.5,0,
2022-06-26,54462.5,0.0,54462.5,0,
2022-06-27,54462.5,0.0,54462.5,0,
2022-06-28,54462.5,0.0,54462.5,0,
2022-06-29,54462.5,0.0,54462.5,0,
2022-06-30,54462.5,0.0,54462.5,0,
2022-07-01,54462.5,0.0,54462.5,0,
2022-07-03,54462.5,0.0,54462.5,0,
2022-07-04,54462.5,0.0,54462.5,0,
2022-07-05,54462.5,0.0,54462.5,0,
2022-07-06,54462.5,0.0,54462.5,0,
2022-07-07,54462.5,0.0,54462.5,0,
2022-07-08,54462.5,0.0,54462.5,0,
2022-07-10,54462.5,0.0,54462.5,0,
2022-07-11,54462.5,0.0,54462.5,0,
2022-07-12,54462.5,0.0,54462.5,0,
2022-07-13,54462.5,0.0,54462.5,0,
2022-07-14,54462.5,0.0,54462.5,0,
2022-07-15,54462.5,0.0,54462.5,0,
2022-07-17,54462.5,0.0,54462.5,0,
2022-07-18,54462.5,0.0,54462.5,0,
2022-07-19,54462.5,0.0,54462.5,0,
2022-07-20,54462.5,123.25,54585.75,1,Long
2022-07-21,54462.5,235.25,54697.75,1,Long
2022-07-22,54462.5,114.5,54577.0,1,Long
2022-07-24,54462.5,90.5,54553.0,1,Long
2022-07-25,54462.5,-14.25,54448.25,1,Long
2022-07-26,54448.5,0.0,54448.5,0,
2022-07-27,54448.5,0.0,54448.5,0,
2022-07-28,54448.5,316.0,54764.5,1,Long
2022-07-29,54448.5,397.75,54846.25,1,Long
2022-07-31,54448.5,342.5,54791.0,1,Long
2022-08-01,54448.5,374.0,54822.5,1,Long
2022-08-02,54448.5,326.25,54774.75,1,Long
2022-08-03,54448.5,657.5,55106.0,1,Long
2022-08-04,54448.5,756.5,55205.0,1,Long
2022-08-05,54448.5,632.25,55080.75,2,Long
2022-08-07,54448.5,558.25,55006.75,2,Long
2022-08-08,54448.5,644.25,55092.75,2,Long
2022-08-09,54448.5,308.25,54756.75,2,Long
2022-08-10,54448.5,1000.75,55449.25,2,Long
2022-08-11,54448.5,874.25,55322.75,2,Long
2022-08-12,54448.5,1363.75,55812.25,2,Long
2022-08-14,54448.5,1283.25,55731.75,2,Long
2022-08-15,54448.5,1565.25,56013.75,2,Long
2022-08-16,54448.5,1506.75,55955.25,2,Long
2022-08-17,54448.5,1113.75,55562.25,2,Long
2022-08-18,54448.5,1257.25,55705.75,2,Long
2022-08-19,54448.5,668.25,55116.75,4,Long
2022-08-21,54448.5,419.25,54867.75,4,Long
2022-08-22,54448.5,-507.75,53940.75,4,Long
2022-08-23,54448.5,-748.75,53699.75,4,Long
2022-08-24,54448.5,-592.75,53855.75,4,Long
2022-08-25,54448.5,247.25,54695.75,4,Long
2022-08-26,54697.75,0.0,54697.75,0,
2022-08-28,54697.75,0.0,54697.75,0,
2022-08-29,54697.75,0.0,54697.75,0,
2022-08-30,54697.75,0.0,54697.75,0,
2022-08-31,54697.75,0.0,54697.75,0,
2022-09-01,54697.75,0.0,54697.75,0,
2022-09-02,54697.75,0.0,54697.75,0,
2022-09-04,54697.75,0.0,54697.75,0,
2022-09-05,54697.75,0.0,54697.75,0,
2022-09-06,54697.75,0.0,54697.75,0,
2022-09-07,54697.75,0.0,54697.75,0,
2022-09-08,54697.75,0.0,54697.75,0,
2022-09-09,54697.75,0.0,54697.75,0,
2022-09-11,54697.75,0.0,54697.75,0,
2022-09-12,54697.75,0.0,54697.75,0,
2022-09-13,54697.75,0.0,54697.75,0,
2022-09-14,54697.75,0.0,54697.75,0,
2022-09-15,54697.75,0.0,54697.75,0,
2022-09-16,54697.75,0.0,54697.75,0,
2022-09-18,54697.75,0.0,54697.75,0,
2022-09-19,54697.75,0.0,54697.75,0,
2022-09-20,54697.75,0.0,54697.75,0,
2022-09-21,54697.75,0.0,54697.75,0,
2022-09-22,54697.75,0.0,54697.75,0,
2022-09-23,54697.75,0.0,54697.75,0,
2022-09-25,54697.75,0.0,54697.75,0,
2022-09-26,54697.75,0.0,54697.75,0,
2022-09-27,54697.75,0.0,54697.75,0,
2022-09-28,54697.75,0.0,54697.75,0,
2022-09-29,54697.75,0.0,54697.75,0,
2022-09-30,54697.75,0.0,54697.75,0,
2022-10-02,54697.75,0.0,54697.75,0,
2022-10-03,54697.75,0.0,54697.75,0,
2022-10-04,54697.75,0.0,54697.75,0,
2022-10-05,54697.75,0.0,54697.75,0,
2022-10-06,54697.75,0.0,54697.75,0,
2022-10-07,54697.75,0.0,54697.75,0,
2022-10-09,54697.75,0.0,54697.75,0,
2022-10-10,54697.75,0.0,54697.75,0,
2022-10-11,54697.75,0.0,54697.75,0,
2022-10-12,54697.75,0.0,54697.75,0,
2022-10-13,54697.75,0.0,54697.75,0,
2022-10-14,54697.75,0.0,54697.75,0,
2022-10-16,54697.75,0.0,54697.75,0,
2022-10-17,54697.75,0.0,54697.75,0,
2022-10-18,54697.75,0.0,54697.75,0,
2022-10-19,54697.75,0.0,54697.75,0,
2022-10-20,54697.75,0.0,54697.75,0,
2022-10-21,54697.75,0.0,54697.75,0,
2022-10-23,54697.75,0.0,54697.75,0,
2022-10-24,54697.75,0.0,54697.75,0,
2022-10-25,54697.75,0.0,54697.75,0,
2022-10-26,54697.75,0.0,54697.75,0,
2022-10-27,54697.75,0.0,54697.75,0,
2022-10-28,54697.75,0.0,54697.75,0,
2022-10-30,54697.75,0.0,54697.75,0,
2022-10-31,54697.75,0.0,54697.75,0,
2022-11-01,54697.75,0.0,54697.75,0,
2022-11-02,54697.75,0.0,54697.75,0,
2022-11-03,54697.75,0.0,54697.75,0,
2022-11-04,54697.75,0.0,54697.75,0,
2022-11-06,54697.75,0.0,54697.75,0,
2022-11-07,54697.75,0.0,54697.75,0,
2022-11-08,54697.75,0.0,54697.75,0,
2022-11-09,54697.75,0.0,54697.75,0,
2022-11-10,54697.75,0.0,54697.75,0,
2022-11-11,54697.75,160.0,54857.75,1,Long
2022-11-13,54697.75,136.0,54833.75,1,Long
2022-11-14,54697.75,91.75,54789.5,1,Long
2022-11-15,54697.75,223.5,54921.25,1,Long
2022-11-16,54697.75,104.75,54802.5,1,Long
2022-11-17,54697.75,44.5,54742.25,1,Long
2022-11-18,54697.75,34.25,54732.0,1,Long
2022-11-20,54697.75,33.75,54731.5,1,Long
2022-11-21,54697.75,-81.25,54616.5,1,Long
2022-11-22,54616.75,0.0,54616.75,0,
2022-11-23,54616.75,143.5,54760.25,1,Long
2022-11-24,54616.75,172.75,54789.5,1,Long
2022-11-25,54616.75,39.0,54655.75,1,Long
2022-11-27,54616.75,-18.25,54598.5,1,Long
2022-11-28,54616.75,-126.25,54490.5,1,Long
2022-11-29,54490.25,0.0,54490.25,0,
2022-11-30,54490.25,0.0,54490.25,0,
2022-12-01,54490.25,-33.0,54457.25,1,Long
2022-12-02,54490.25,-93.25,54397.0,1,Long
2022-12-04,54490.25,-71.5,54418.75,1,Long
2022-12-05,54490.25,-253.75,54236.5,1,Long
2022-12-06,54490.25,-494.75,53995.5,1,Long
2022-12-07,53996.0,0.0,53996.0,0,
2022-12-08,53996.0,0.0,53996.0,0,
2022-12-09,53996.0,0.0,53996.0,0,
2022-12-11,53996.0,0.0,53996.0,0,
2022-12-12,53996.0,0.0,53996.0,0,
2022-12-13,53996.0,132.0,54128.0,1,Long
2022-12-14,53996.0,55.25,54051.25,1,Long
2022-12-15,53996.0,-369.0,53627.0,1,Long
2022-12-16,53627.0,0.0,53627.0,0,
2022-12-18,53627.0,0.0,53627.0,0,
2022-12-19,53627.0,0.0,53627.0,0,
2022-12-20,53627.0,0.0,53627.0,0,
2022-12-21,53627.0,0.0,53627.0,0,
2022-12-22,53627.0,0.0,53627.0,0,
2022-12-23,53627.0,0.0,53627.0,0,
2022-12-26,53627.0,0.0,53627.0,0,
2022-12-27,53627.0,0.0,53627.0,0,
2022-12-28,53627.0,0.0,53627.0,0,
2022-12-29,53627.0,0.0,53627.0,0,
2022-12-30,53627.0,0.0,53627.0,0,
2023-01-02,53627.0,0.0,53627.0,0,
2023-01-03,53627.0,0.0,53627.0,0,
2023-01-04,53627.0,0.0,53627.0,0,
2023-01-05,53627.0,0.0,53627.0,0,
2023-01-06,53627.0,0.0,53627.0,0,
2023-01-08,53627.0,0.0,53627.0,0,
2023-01-09,53627.0,0.0,53627.0,0,
2023-01-10,53627.0,0.0,53627.0,0,
2023-01-11,53627.0,0.0,53627.0,0,
2023-01-12,53627.0,0.0,53627.0,0,
2023-01-13,53627.0,0.0,53627.0,0,
2023-01-15,53627.0,0.0,53627.0,0,
2023-01-16,53627.0,0.0,53627.0,0,
2023-01-17,53627.0,0.0,53627.0,0,
2023-01-18,53627.0,0.0,53627.0,0,
2023-01-19,53627.0,0.0,53627.0,0,
2023-01-20,53627.0,292.25,53919.25,1,Long
2023-01-22,53627.0,274.25,53901.25,1,Long
2023-01-23,53627.0,534.5,54161.5,1,Long
2023-01-24,53627.0,456.0,54083.0,1,Long
2023-01-25,53627.0,523.25,54150.25,1,Long
2023-01-26,53627.0,655.75,54282.75,1,Long
2023-01-27,53627.0,835.75,54462.75,1,Long
2023-01-29,53627.0,821.5,54448.5,1,Long
2023-01-30,53627.0,618.25,54245.25,1,Long
2023-01-31,53627.0,719.25,54346.25,1,Long
2023-02-01,53627.0,1161.25,54788.25,1,Long
2023-02-02,53627.0,1279.5,54906.5,1,Long
2023-02-03,53627.0,1240.75,54867.75,2,Long
2023-02-05,53627.0,1189.25,54816.25,2,Long
2023-02-06,53627.0,1079.75,54706.75,2,Long
2023-02-07,53627.0,1507.75,55134.75,2,Long
2023-02-08,53627.0,1129.75,54756.75,2,Long
2023-02-09,53627.0,877.25,54504.25,2,Long
2023-02-10,53627.0,680.75,54307.75,2,Long
2023-02-12,53627.0,621.25,54248.25,2,Long
2023-02-13,53627.0,1085.25,54712.25,2,Long
2023-02-14,53627.0,1223.25,54850.25,2,Long
2023-02-15,53627.0,1500.75,55127.75,2,Long
2023-02-16,53627.0,862.75,54489.75,2,Long
2023-02-17,53627.0,803.25,54430.25,4,Long
2023-02-19,53627.0,708.25,54335.25,4,Long
2023-02-20,53627.0,785.25,54412.25,4,Long
2023-02-21,53627.0,-272.75,53354.25,4,Long
2023-02-22,53627.0,-59.75,53567.25,4,Long
2023-02-23,53627.0,-34.75,53592.25,4,Long
2023-02-24,53627.0,-734.75,52892.25,4,Long
2023-02-26,53627.0,-660.75,52966.25,4,Long
2023-02-27,53627.0,-356.75,53270.25,4,Long
2023-02-28,53627.0,-641.75,52985.25,4,Long
2023-03-01,53627.0,-844.75,52782.25,4,Long
2023-03-02,53627.0,-581.75,53045.25,4,Long
2023-03-03,53627.0,636.25,54263.25,6,Long
2023-03-05,53627.0,430.75,54057.75,6,Long
2023-03-06,53627.0,660.25,54287.25,6,Long
2023-03-07,53627.0,-263.75,53363.25,6,Long
2023-03-08,53627.0,27.25,53654.25,6,Long
2023-03-09,53627.0,-1408.25,52218.75,6,Long
2023-03-10,52218.75,0.0,52218.75,0,
2023-03-12,52218.75,0.0,52218.75,0,
2023-03-13,52218.75,0.0,52218.75,0,
2023-03-14,52218.75,0.0,52218.75,0,
2023-03-15,52218.75,0.0,52218.75,0,
2023-03-16,52218.75,320.0,52538.75,1,Long
2023-03-17,52218.75,246.25,52465.0,1,Long
2023-03-19,52218.75,302.5,52521.25,1,Long
2023-03-20,52218.75,289.5,52508.25,1,Long
2023-03-21,52218.75,465.0,52683.75,1,Long
2023-03-22,52218.75,315.25,52534.0,1,Long
2023-03-23,52218.75,461.5,52680.25,1,Long
2023-03-24,52218.75,573.25,52792.0,2,Long
2023-03-26,52218.75,620.25,52839.0,2,Long
2023-03-27,52218.75,369.75,52588.5,2,Long
2023-03-28,52218.75,243.75,52462.5,2,Long
2023-03-29,52218.75,610.75,52829.5,2,Long
2023-03-30,52218.75,916.75,53135.5,2,Long
2023-03-31,52218.75,1341.75,53560.5,2,Long
2023-04-02,52218.75,1204.75,53423.5,2,Long
2023-04-03,52218.75,1218.75,53437.5,2,Long
2023-04-04,52218.75,1206.25,53425.0,2,Long
2023-04-05,52218.75,838.75,53057.5,2,Long
2023-04-06,52218.75,1043.75,53262.5,2,Long
2023-04-07,52218.75,1086.25,53305.0,4,Long
2023-04-09,52218.75,988.25,53207.0,4,Long
2023-04-10,52218.75,1052.25,53271.0,4,Long
2023-04-11,52218.75,721.25,52940.0,4,Long
2023-04-12,52218.75,89.25,52308.0,4,Long
2023-04-13,52218.75,1130.25,53349.0,4,Long
2023-04-14,52218.75,1160.25,53379.0,4,Long
2023-04-16,52218.75,1109.25,53328.0,4,Long
2023-04-17,52218.75,1078.25,53297.0,4,Long
2023-04-18,52218.75,1063.25,53282.0,4,Long
2023-04-19,52218.75,875.25,53094.0,4,Long
2023-04-20,52218.75,692.25,52911.0,4,Long
2023-04-21,52218.75,674.25,52893.0,6,Long
2023-04-23,52218.75,632.25,52851.0,6,Long
2023-04-24,52218.75,519.75,52738.5,6,Long
2023-04-25,52218.75,-17.25,52201.5,6,Long
2023-04-26,52218.75,-35.25,52183.5,6,Long
2023-04-27,52218.75,1484.25,53703.0,6,Long
2023-04-28,52218.75,2184.75,54403.5,6,Long
2023-04-30,52218.75,2066.25,54285.0,6,Long
2023-05-01,52218.75,1937.25,54156.0,6,Long
2023-05-02,52218.75,1316.25,53535.0,6,Long
2023-05-03,52218.75,809.25,53028.0,6,Long
2023-05-04,52218.75,785.25,53004.0,6,Long
2023-05-05,52218.75,2039.25,54258.0,8,Long
2023-05-07,52218.75,1989.25,54208.0,8,Long
2023-05-08,52218.75,2251.25,54470.0,8,Long
2023-05-09,52218.75,1759.25,53978.0,8,Long
2023-05-10,52218.75,2929.25,55148.0,8,Long
2023-05-11,52218.75,3193.25,55412.0,8,Long
2023-05-12,52218.75,2511.25,54730.0,8,Long
2023-05-14,52218.75,2485.25,54704.0,8,Long
2023-05-15,52218.75,3221.25,55440.0,8,Long
2023-05-16,52218.75,3551.25,55770.0,8,Long
2023-05-17,52218.75,4701.25,56920.0,8,Long
2023-05-18,52218.75,6991.25,59210.0,8,Long
2023-05-19,52218.75,6274.0,58492.75,9,Long
2023-05-21,52218.75,6384.25,58603.0,9,Long
2023-05-22,52218.75,7189.75,59408.5,9,Long
2023-05-23,52218.75,5437.0,57655.75,9,Long
2023-05-24,52218.75,6325.75,58544.5,9,Long
2023-05-25,52218.75,7387.75,59606.5,9,Long
2023-05-26,52218.75,11041.75,63260.5,9,Long
2023-05-28,52218.75,11451.25,63670.0,9,Long
2023-05-29,52218.75,11176.75,63395.5,9,Long
2023-05-30,52218.75,11498.5,63717.25,9,Long
2023-05-31,52218.75,10492.75,62711.5,9,Long
2023-06-01,52218.75,12052.0,64270.75,9,Long
2023-06-02,52218.75,12982.25,65201.0,10,Long
2023-06-04,52218.75,12482.25,64701.0,10,Long
2023-06-05,52218.75,12774.75,64993.5,10,Long
2023-06-06,52218.75,13067.25,65286.0,10,Long
2023-06-07,52218.75,10419.75,62638.5,10,Long
2023-06-08,52218.75,12117.25,64336.0,10,Long
2023-06-09,52218.75,12747.25,64966.0,10,Long
2023-06-11,52218.75,13029.75,65248.5,10,Long
2023-06-12,52218.75,17144.75,69363.5,10,Long
2023-06-13,52218.75,18169.75,70388.5,10,Long
2023-06-14,52218.75,19259.75,71478.5,10,Long
2023-06-15,52218.75,20709.75,72928.5,10,Long
2023-06-16,52218.75,20129.75,72348.5,10,Long
2023-06-18,52218.75,20147.25,72366.0,10,Long
2023-06-19,52218.75,19602.25,71821.0,10,Long
2023-06-20,52218.75,19734.75,71953.5,10,Long
2023-06-21,52218.75,17524.75,69743.5,10,Long
2023-06-22,52218.75,19332.25,71551.0,10,Long
2023-06-23,52218.75,17669.75,69888.5,10,Long
2023-06-25,52218.75,18122.25,70341.0,10,Long
2023-06-26,52218.75,16044.75,68263.5,10,Long
2023-06-27,52218.75,17707.25,69926.0,10,Long
2023-06-28,52218.75,18837.25,71056.0,10,Long
2023-06-29,52218.75,18282.25,70501.0,10,Long
2023-06-30,52218.75,20289.75,72508.5,10,Long
2023-07-02,52218.75,20624.75,72843.5,10,Long
2023-07-03,52218.75,20492.25,72711.0,10,Long
2023-07-04,52218.75,20519.75,72738.5,10,Long
2023-07-05,52218.75,20694.75,72913.5,10,Long
2023-07-06,52218.75,19379.75,71598.5,10,Long
2023-07-07,52218.75,19032.25,71251.0,10,Long
2023-07-09,52218.75,18924.75,71143.5,10,Long
2023-07-10,52218.75,19039.75,71258.5,10,Long
2023-07-11,52218.75,19762.25,71981.0,10,Long
2023-07-12,52218.75,21834.75,74053.5,10,Long
2023-07-13,52218.75,24239.75,76458.5,10,Long
2023-07-14,52218.75,24039.75,76258.5,10,Long
2023-07-16,52218.75,23784.75,76003.5,10,Long
2023-07-17,52218.75,25297.25,77516.0,10,Long
2023-07-18,52218.75,26727.25,78946.0,10,Long
2023-07-19,52218.75,25684.75,77903.5,10,Long
2023-07-20,52218.75,22914.75,75133.5,10,Long
2023-07-21,52218.75,22664.75,74883.5,10,Long
2023-07-23,52218.75,22607.25,74826.0,10,Long
2023-07-24,52218.75,22789.75,75008.5,10,Long
2023-07-25,52218.75,23492.25,75711.0,10,Long
2023-07-26,52218.75,23647.25,75866.0,10,Long
2023-07-27,52218.75,22979.75,75198.5,10,Long
2023-07-28,52218.75,25569.75,77788.5,10,Long
2023-07-30,52218.75,25987.25,78206.0,10,Long
2023-07-31,52218.75,25717.25,77936.0,10,Long
2023-08-01,52218.75,24644.75,76863.5,10,Long
2023-08-02,52218.75,22034.75,74253.5,10,Long
2023-08-03,52218.75,21927.25,74146.0,10,Long
2023-08-04,74143.5,0.0,74143.5,0,
2023-08-06,74143.5,0.0,74143.5,0,
2023-08-07,74143.5,0.0,74143.5,0,
2023-08-08,74143.5,0.0,74143.5,0,
2023-08-09,74143.5,0.0,74143.5,0,
2023-08-10,74143.5,0.0,74143.5,0,
2023-08-11,74143.5,0.0,74143.5,0,
2023-08-13,74143.5,0.0,74143.5,0,
2023-08-14,74143.5,0.0,74143.5,0,
2023-08-15,74143.5,0.0,74143.5,0,
2023-08-16,74143.5,0.0,74143.5,0,
2023-08-17,74143.5,0.0,74143.5,0,
2023-08-18,74143.5,0.0,74143.5,0,
2023-08-20,74143.5,0.0,74143.5,0,
2023-08-21,74143.5,0.0,74143.5,0,
2023-08-22,74143.5,0.0,74143.5,0,
2023-08-23,74143.5,0.0,74143.5,0,
2023-08-24,74143.5,0.0,74143.5,0,
2023-08-25,74143.5,0.0,74143.5,0,
2023-08-27,74143.5,0.0,74143.5,0,
2023-08-28,74143.5,0.0,74143.5,0,
2023-08-29,74143.5,337.75,74481.25,1,Long
2023-08-30,74143.5,405.75,74549.25,1,Long
2023-08-31,74143.5,439.25,74582.75,1,Long
2023-09-01,74143.5,415.25,74558.75,1,Long
2023-09-03,74143.5,419.5,74563.0,1,Long
2023-09-04,74143.5,429.0,74572.5,1,Long
2023-09-05,74143.5,424.75,74568.25,1,Long
2023-09-06,74143.5,294.0,74437.5,1,Long
2023-09-07,74143.5,183.5,74327.0,1,Long
2023-09-08,74143.5,257.75,74401.25,2,Long
2023-09-10,74143.5,274.25,74417.75,2,Long
2023-09-11,74143.5,945.75,75089.25,2,Long
2023-09-12,74143.5,639.75,74783.25,2,Long
2023-09-13,74143.5,787.75,74931.25,2,Long
2023-09-14,74143.5,982.75,75126.25,2,Long
2023-09-15,74143.5,394.75,74538.25,2,Long
2023-09-17,74143.5,454.75,74598.25,2,Long
2023-09-18,74143.5,477.25,74620.75,2,Long
2023-09-19,74143.5,395.25,74538.75,2,Long
2023-09-20,74143.5,-144.25,73999.25,2,Long
2023-09-21,73997.75,0.0,73997.75,0,
2023-09-22,73997.75,0.0,73997.75,0,
2023-09-24,73997.75,0.0,73997.75,0,
2023-09-25,73997.75,0.0,73997.75,0,
2023-09-26,73997.75,0.0,73997.75,0,
2023-09-27,73997.75,0.0,73997.75,0,
2023-09-28,73997.75,0.0,73997.75,0,
2023-09-29,73997.75,0.0,73997.75,0,
2023-10-01,73997.75,0.0,73997.75,0,
2023-10-02,73997.75,0.0,73997.75,0,
2023-10-03,73997.75,0.0,73997.75,0,
2023-10-04,73997.75,0.0,73997.75,0,
2023-10-05,73997.75,0.0,73997.75,0,
2023-10-06,73997.75,0.0,73997.75,0,
2023-10-08,73997.75,0.0,73997.75,0,
2023-10-09,73997.75,0.0,73997.75,0,
2023-10-10,73997.75,0.0,73997.75,0,
2023-10-11,73997.75,127.5,74125.25,1,Long
2023-10-12,73997.75,42.25,74040.0,1,Long
2023-10-13,73997.75,-181.0,73816.75,1,Long
2023-10-15,73829.75,0.0,73829.75,0,
2023-10-16,73829.75,0.0,73829.75,0,
2023-10-17,73829.75,-79.25,73750.5,1,Long
2023-10-18,73749.5,0.0,73749.5,0,
2023-10-19,73749.5,0.0,73749.5,0,
2023-10-20,73749.5,0.0,73749.5,0,
2023-10-22,73749.5,0.0,73749.5,0,
2023-10-23,73749.5,0.0,73749.5,0,
2023-10-24,73749.5,0.0,73749.5,0,
2023-10-25,73749.5,0.0,73749.5,0,
2023-10-26,73749.5,0.0,73749.5,0,
2023-10-27,73749.5,0.0,73749.5,0,
2023-10-29,73749.5,0.0,73749.5,0,
2023-10-30,73749.5,0.0,73749.5,0,
2023-10-31,73749.5,0.0,73749.5,0,
2023-11-01,73749.5,0.0,73749.5,0,
2023-11-02,73749.5,0.0,73749.5,0,
2023-11-03,73749.5,241.0,73990.5,1,Long
2023-11-05,73749.5,232.25,73981.75,1,Long
2023-11-06,73749.5,265.25,74014.75,1,Long
2023-11-07,73749.5,424.75,74174.25,1,Long
2023-11-08,73749.5,414.5,74164.0,1,Long
2023-11-09,73749.5,289.25,74038.75,1,Long
2023-11-10,73749.5,637.75,74387.25,1,Long
2023-11-12,73749.5,616.75,74366.25,1,Long
2023-11-13,73749.5,615.0,74364.5,1,Long
2023-11-14,73749.5,961.25,74710.75,1,Long
2023-11-15,73749.5,921.5,74671.0,1,Long
2023-11-16,73749.5,942.25,74691.75,1,Long
2023-11-17,73749.5,931.25,74680.75,2,Long
2023-11-19,73749.5,910.75,74660.25,2,Long
2023-11-20,73749.5,1384.75,75134.25,2,Long
2023-11-21,73749.5,1091.75,74841.25,2,Long
2023-11-22,73749.5,1274.75,75024.25,2,Long
2023-11-23,73749.5,1312.25,75061.75,2,Long
2023-11-24,73749.5,1204.75,74954.25,2,Long
2023-11-26,73749.5,1155.75,74905.25,2,Long
2023-11-27,73749.5,1202.75,74952.25,2,Long
2023-11-28,73749.5,1289.75,75039.25,2,Long
2023-11-29,73749.5,1277.25,75026.75,2,Long
2023-11-30,73749.5,1112.25,74861.75,2,Long
2023-12-01,73749.5,1270.75,75020.25,4,Long
2023-12-03,73749.5,1114.75,74864.25,4,Long
2023-12-04,73749.5,544.75,74294.25,4,Long
2023-12-05,73749.5,858.75,74608.25,4,Long
2023-12-06,73749.5,412.75,74162.25,4,Long
2023-12-07,73749.5,1226.75,74976.25,4,Long
2023-12-08,73749.5,1516.75,75266.25,4,Long
2023-12-10,73749.5,1564.75,75314.25,4,Long
2023-12-11,73749.5,2965.75,76715.25,4,Long
2023-12-12,73749.5,3584.75,77334.25,4,Long
2023-12-13,73749.5,4410.75,78160.25,4,Long
2023-12-14,73749.5,4188.75,77938.25,4,Long
2023-12-15,73749.5,4372.75,78122.25,6,Long
2023-12-17,73749.5,4419.25,78168.75,6,Long
2023-12-18,73749.5,5022.25,78771.75,6,Long
2023-12-19,73749.5,5643.25,79392.75,6,Long
2023-12-20,73749.5,4347.25,78096.75,6,Long
2023-12-21,73749.5,5128.75,78878.25,6,Long
2023-12-22,73749.5,5251.75,79001.25,6,Long
2023-12-25,73749.5,5500.75,79250.25,6,Long
2023-12-26,73749.5,6013.75,79763.25,6,Long
2023-12-27,73749.5,6207.25,79956.75,6,Long
2023-12-28,73749.5,6081.25,79830.75,6,Long
2023-12-29,73749.5,5473.75,79223.25,8,Long
2024-01-01,73749.5,5679.75,79429.25,8,Long
2024-01-02,73749.5,3237.75,76987.25,8,Long
2024-01-03,76989.25,0.0,76989.25,0,
2024-01-04,76989.25,0.0,76989.25,0,
2024-01-05,76989.25,0.0,76989.25,0,
2024-01-07,76989.25,0.0,76989.25,0,
2024-01-08,76989.25,0.0,76989.25,0,
2024-01-09,76989.25,0.0,76989.25,0,
2024-01-10,76989.25,0.0,76989.25,0,
2024-01-11,76989.25,0.0,76989.25,0,
2024-01-12,76989.25,0.0,76989.25,0,
2024-01-14,76989.25,0.0,76989.25,0,
2024-01-15,76989.25,0.0,76989.25,0,
2024-01-16,76989.25,43.5,77032.75,1,Long
2024-01-17,76989.25,-82.0,76907.25,1,Long
2024-01-18,76907.25,0.0,76907.25,0,
2024-01-19,76907.25,315.0,77222.25,1,Long
2024-01-21,76907.25,335.5,77242.75,1,Long
2024-01-22,76907.25,316.25,77223.5,1,Long
2024-01-23,76907.25,427.75,77335.0,1,Long
2024-01-24,76907.25,468.75,77376.0,1,Long
2024-01-25,76907.25,394.25,77301.5,1,Long
2024-01-26,76907.25,356.5,77263.75,1,Long
2024-01-28,76907.25,331.5,77238.75,1,Long
2024-01-29,76907.25,573.75,77481.0,1,Long
2024-01-30,76907.25,300.0,77207.25,1,Long
2024-01-31,76907.25,134.25,77041.5,1,Long
2024-02-01,76907.25,445.25,77352.5,1,Long
2024-02-02,76907.25,472.5,77379.75,2,Long
2024-02-04,76907.25,515.5,77422.75,2,Long
2024-02-05,76907.25,493.0,77400.25,2,Long
2024-02-06,76907.25,404.5,77311.75,2,Long
2024-02-07,76907.25,785.5,77692.75,2,Long
2024-02-08,76907.25,835.0,77742.25,2,Long
2024-02-09,76907.25,1176.0,78083.25,2,Long
2024-02-11,76907.25,1170.5,78077.75,2,Long
2024-02-12,76907.25,975.0,77882.25,2,Long
2024-02-13,76907.25,481.0,77388.25,2,Long
2024-02-14,76907.25,858.0,77765.25,2,Long
2024-02-15,76907.25,1005.5,77912.75,2,Long
2024-02-16,76907.25,523.5,77430.75,4,Long
2024-02-18,76907.25,748.5,77655.75,4,Long
2024-02-19,76907.25,631.5,77538.75,4,Long
2024-02-20,76907.25,-88.5,76818.75,4,Long
2024-02-21,76907.25,454.5,77361.75,4,Long
2024-02-22,76907.25,1804.5,78711.75,4,Long
2024-02-23,76907.25,1482.5,78389.75,4,Long
2024-02-25,76907.25,1568.5,78475.75,4,Long
2024-02-26,76907.25,1490.5,78397.75,4,Long
2024-02-27,76907.25,1658.5,78565.75,4,Long
2024-02-28,76907.25,1117.5,78024.75,4,Long
2024-02-29,76907.25,1876.5,78783.75,4,Long
2024-03-01,76907.25,2877.0,79784.25,6,Long
2024-03-03,76907.25,3009.0,79916.25,6,Long
2024-03-04,76907.25,2287.5,79194.75,6,Long
2024-03-05,76907.25,723.0,77630.25,6,Long
2024-03-06,76907.25,1059.0,77966.25,6,Long
2024-03-07,76907.25,2545.5,79452.75,6,Long
2024-03-08,76907.25,1279.5,78186.75,6,Long
2024-03-10,76907.25,1204.5,78111.75,6,Long
2024-03-11,76907.25,2712.0,79619.25,6,Long
2024-03-12,76907.25,3819.0,80726.25,6,Long
2024-03-13,76907.25,3186.0,80093.25,6,Long
2024-03-14,76907.25,2379.0,79286.25,6,Long
2024-03-15,76907.25,1317.0,78224.25,8,Long
2024-03-17,76907.25,1441.0,78348.25,8,Long
2024-03-18,76907.25,2341.0,79248.25,8,Long
2024-03-19,76907.25,2957.0,79864.25,8,Long
2024-03-20,76907.25,5439.0,82346.25,8,Long
2024-03-21,76907.25,5521.0,82428.25,8,Long
2024-03-22,76907.25,5321.0,82228.25,8,Long
2024-03-24,76907.25,5497.0,82404.25,8,Long
2024-03-25,76907.25,5133.0,82040.25,8,Long
2024-03-26,76907.25,4723.0,81630.25,8,Long
2024-03-27,76907.25,4651.0,81558.25,8,Long
2024-03-28,76907.25,4531.0,81438.25,8,Long
2024-03-31,76907.25,5677.0,82584.25,8,Long
2024-04-01,76907.25,4571.0,81478.25,8,Long
2024-04-02,76907.25,3437.0,80344.25,8,Long
2024-04-03,76907.25,4375.0,81282.25,8,Long
2024-04-04,76907.25,1541.0,78448.25,8,Long
2024-04-05,76907.25,3308.5,80215.75,9,Long
2024-04-07,76907.25,3385.0,80292.25,9,Long
2024-04-08,76907.25,3229.75,80137.0,9,Long
2024-04-09,76907.25,3826.0,80733.25,9,Long
2024-04-10,76907.25,1940.5,78847.75,9,Long
2024-04-11,76907.25,4926.25,81833.5,9,Long
2024-04-12,76907.25,2057.5,78964.75,9,Long
2024-04-14,76907.25,2653.75,79561.0,9,Long
2024-04-15,79563.25,0.0,79563.25,0,
2024-04-16,79563.25,0.0,79563.25,0,
2024-04-17,79563.25,0.0,79563.25,0,
2024-04-18,79563.25,0.0,79563.25,0,
2024-04-19,79563.25,0.0,79563.25,0,
2024-04-21,79563.25,0.0,79563.25,0,
2024-04-22,79563.25,0.0,79563.25,0,
2024-04-23,79563.25,0.0,79563.25,0,
2024-04-24,79563.25,0.0,79563.25,0,
2024-04-25,79563.25,0.0,79563.25,0,
2024-04-26,79563.25,0.0,79563.25,0,
2024-04-28,79563.25,0.0,79563.25,0,
2024-04-29,79563.25,0.0,79563.25,0,
2024-04-30,79563.25,0.0,79563.25,0,
2024-05-01,79563.25,0.0,79563.25,0,
2024-05-02,79563.25,0.0,79563.25,0,
2024-05-03,79563.25,0.0,79563.25,0,
2024-05-05,79563.25,0.0,79563.25,0,
2024-05-06,79563.25,179.0,79742.25,1,Long
2024-05-07,79563.25,199.5,79762.75,1,Long
2024-05-08,79563.25,157.0,79720.25,1,Long
2024-05-09,79563.25,226.5,79789.75,1,Long
2024-05-10,79563.25,234.75,79798.0,1,Long
2024-05-12,79563.25,240.75,79804.0,1,Long
2024-05-13,79563.25,279.0,79842.25,1,Long
2024-05-14,79563.25,412.25,79975.5,1,Long
2024-05-15,79563.25,716.25,80279.5,1,Long
2024-05-16,79563.25,646.5,80209.75,1,Long
2024-05-17,79563.25,642.0,80205.25,2,Long
2024-05-19,79563.25,708.5,80271.75,2,Long
2024-05-20,79563.25,878.0,80441.25,2,Long
2024-05-21,79563.25,1001.5,80564.75,2,Long
2024-05-22,79563.25,1124.0,80687.25,2,Long
2024-05-23,79563.25,776.5,80339.75,2,Long
2024-05-24,79563.25,1117.5,80680.75,2,Long
2024-05-26,79563.25,1047.0,80610.25,2,Long
2024-05-27,79563.25,1190.5,80753.75,2,Long
2024-05-28,79563.25,1234.0,80797.25,2,Long
2024-05-29,79563.25,821.0,80384.25,2,Long
2024-05-30,79563.25,492.0,80055.25,2,Long
2024-05-31,79563.25,635.5,80198.75,4,Long
2024-06-02,79563.25,716.5,80279.75,4,Long
2024-06-03,79563.25,950.5,80513.75,4,Long
2024-06-04,79563.25,1299.5,80862.75,4,Long
2024-06-05,79563.25,2713.5,82276.75,4,Long
2024-06-06,79563.25,2648.5,82211.75,4,Long
2024-06-07,79563.25,2472.5,82035.75,4,Long
2024-06-09,79563.25,2456.5,82019.75,4,Long
2024-06-10,79563.25,2687.5,82250.75,4,Long
2024-06-11,79563.25,3375.5,82938.75,4,Long
2024-06-12,79563.25,4749.5,84312.75,4,Long
2024-06-13,79563.25,4822.5,84385.75,4,Long
2024-06-14,79563.25,5213.5,84776.75,6,Long
2024-06-16,79563.25,5305.0,84868.25,6,Long
2024-06-17,79563.25,8266.0,87829.25,6,Long
2024-06-18,79563.25,8375.5,87938.75,6,Long
2024-06-19,79563.25,8452.0,88015.25,6,Long
2024-06-20,79563.25,7453.0,87016.25,6,Long
2024-06-21,79563.25,7090.0,86653.25,6,Long
2024-06-23,79563.25,7085.5,86648.75,6,Long
2024-06-24,79563.25,5666.5,85229.75,6,Long
2024-06-25,79563.25,6830.5,86393.75,6,Long
2024-06-26,79563.25,6548.5,86111.75,6,Long
2024-06-27,79563.25,7609.0,87172.25,6,Long
2024-06-28,79563.25,6768.0,86331.25,8,Long
2024-06-30,79563.25,6600.0,86163.25,8,Long
2024-07-01,79563.25,7184.0,86747.25,8,Long
2024-07-02,79563.25,8934.0,88497.25,8,Long
2024-07-03,79563.25,10250.0,89813.25,8,Long
2024-07-04,79563.25,10156.0,89719.25,8,Long
2024-07-05,79563.25,11754.0,91317.25,8,Long
2024-07-07,79563.25,11756.0,91319.25,8,Long
2024-07-08,79563.25,12938.0,92501.25,8,Long
2024-07-09,79563.25,12612.0,92175.25,8,Long
2024-07-10,79563.25,14082.0,93645.25,8,Long
2024-07-11,79563.25,10348.0,89911.25,8,Long
2024-07-12,79563.25,11333.75,90897.0,9,Long
2024-07-14,79563.25,11516.0,91079.25,9,Long
2024-07-15,79563.25,12161.75,91725.0,9,Long
2024-07-16,79563.25,11563.25,91126.5,9,Long
2024-07-17,91126.5,0.0,91126.5,0,
2024-07-18,91126.5,0.0,91126.5,0,
2024-07-19,91126.5,0.0,91126.5,0,
2024-07-21,91126.5,0.0,91126.5,0,
2024-07-22,91126.5,0.0,91126.5,0,
2024-07-23,91126.5,0.0,91126.5,0,
2024-07-24,91126.5,0.0,91126.5,0,
2024-07-25,91126.5,0.0,91126.5,0,
2024-07-26,91126.5,0.0,91126.5,0,
2024-07-28,91126.5,0.0,91126.5,0,
2024-07-29,91126.5,0.0,91126.5,0,
2024-07-30,91126.5,0.0,91126.5,0,
2024-07-31,91126.5,0.0,91126.5,0,
2024-08-01,91126.5,0.0,91126.5,0,
2024-08-02,91126.5,0.0,91126.5,0,
2024-08-04,91126.5,0.0,91126.5,0,
2024-08-05,91126.5,0.0,91126.5,0,
2024-08-06,91126.5,0.0,91126.5,0,
2024-08-07,91126.5,0.0,91126.5,0,
2024-08-08,91126.5,0.0,91126.5,0,
2024-08-09,91126.5,0.0,91126.5,0,
2024-08-11,91126.5,0.0,91126.5,0,
2024-08-12,91126.5,0.0,91126.5,0,
2024-08-13,91126.5,462.25,91588.75,1,Long
2024-08-14,91126.5,452.5,91579.0,1,Long
2024-08-15,91126.5,959.5,92086.0,1,Long
2024-08-16,91126.5,950.0,92076.5,1,Long
2024-08-18,91126.5,994.0,92120.5,1,Long
2024-08-19,91126.5,1206.5,92333.0,1,Long
2024-08-20,91126.5,1135.5,92262.0,1,Long
2024-08-21,91126.5,1282.0,92408.5,1,Long
2024-08-22,91126.5,984.25,92110.75,1,Long
2024-08-23,91126.5,1137.0,92263.5,2,Long
2024-08-25,91126.5,1107.5,92234.0,2,Long
2024-08-26,91126.5,724.0,91850.5,2,Long
2024-08-27,91126.5,755.5,91882.0,2,Long
2024-08-28,91126.5,-33.0,91093.5,2,Long
2024-08-29,91126.5,441.5,91568.0,2,Long
2024-08-30,91126.5,769.5,91896.0,2,Long
2024-09-01,91126.5,753.5,91880.0,2,Long
2024-09-02,91126.5,742.5,91869.0,2,Long
2024-09-03,91126.5,-503.5,90623.0,2,Long
2024-09-04,91126.5,-553.0,90573.5,2,Long
2024-09-05,91126.5,-593.5,90533.0,2,Long
2024-09-06,90531.0,0.0,90531.0,0,
2024-09-08,90531.0,0.0,90531.0,0,
2024-09-09,90531.0,0.0,90531.0,0,
2024-09-10,90531.0,0.0,90531.0,0,
2024-09-11,90531.0,0.0,90531.0,0,
2024-09-12,90531.0,0.0,90531.0,0,
2024-09-13,90531.0,51.25,90582.25,1,Long
2024-09-15,90531.0,85.75,90616.75,1,Long
2024-09-16,90531.0,220.25,90751.25,1,Long
2024-09-17,90531.0,252.75,90783.75,1,Long
2024-09-18,90531.0,310.75,90841.75,1,Long
2024-09-19,90531.0,596.5,91127.5,1,Long
2024-09-20,90531.0,561.75,91092.75,1,Long
2024-09-22,90531.0,609.5,91140.5,1,Long
2024-09-23,90531.0,615.75,91146.75,1,Long
2024-09-24,90531.0,727.0,91258.0,1,Long
2024-09-25,90531.0,825.0,91356.0,1,Long
2024-09-26,90531.0,891.25,91422.25,1,Long
2024-09-27,90531.0,720.0,91251.0,2,Long
2024-09-29,90531.0,878.0,91409.0,2,Long
2024-09-30,90531.0,828.0,91359.0,2,Long
2024-10-01,90531.0,198.0,90729.0,2,Long
2024-10-02,90531.0,442.5,90973.5,2,Long
2024-10-03,90531.0,299.0,90830.0,2,Long
2024-10-04,90531.0,739.5,91270.5,2,Long
2024-10-06,90531.0,794.0,91325.0,2,Long
2024-10-07,90531.0,299.0,90830.0,2,Long
2024-10-08,90531.0,879.0,91410.0,2,Long
2024-10-09,90531.0,1233.5,91764.5,2,Long
2024-10-10,90531.0,1236.0,91767.0,2,Long
2024-10-11,90531.0,1037.5,91568.5,4,Long
2024-10-13,90531.0,1096.5,91627.5,4,Long
2024-10-14,90531.0,1915.5,92446.5,4,Long
2024-10-15,90531.0,795.5,91326.5,4,Long
2024-10-16,90531.0,643.5,91174.5,4,Long
2024-10-17,90531.0,1008.5,91539.5,4,Long
2024-10-18,90531.0,1325.5,91856.5,4,Long
2024-10-20,90531.0,1442.5,91973.5,4,Long
2024-10-21,90531.0,1451.5,91982.5,4,Long
2024-10-22,90531.0,1506.5,92037.5,4,Long
2024-10-23,90531.0,548.5,91079.5,4,Long
2024-10-24,90531.0,912.5,91443.5,4,Long
2024-10-25,90531.0,1212.5,91743.5,6,Long
2024-10-27,90531.0,1940.0,92471.0,6,Long
2024-10-28,90531.0,1397.0,91928.0,6,Long
2024-10-29,90531.0,2837.0,93368.0,6,Long
2024-10-30,90531.0,908.0,91439.0,6,Long
2024-10-31,90531.0,-1207.0,89324.0,6,Long
2024-11-01,90531.0,-634.0,89897.0,6,Long
2024-11-03,90531.0,-841.0,89690.0,6,Long
2024-11-04,90531.0,-1121.5,89409.5,6,Long
2024-11-05,90531.0,413.0,90944.0,6,Long
2024-11-06,90531.0,3695.0,94226.0,6,Long
2024-11-07,90531.0,5709.5,96240.5,6,Long
2024-11-08,90531.0,5727.5,96258.5,8,Long
2024-11-10,90531.0,6343.5,96874.5,8,Long
2024-11-11,90531.0,5639.5,96170.5,8,Long
2024-11-12,90531.0,5191.5,95722.5,8,Long
2024-11-13,90531.0,5239.5,95770.5,8,Long
2024-11-14,90531.0,3507.5,94038.5,8,Long
2024-11-15,90531.0,-60.5,90470.5,8,Long
2024-11-17,90531.0,457.5,90988.5,8,Long
2024-11-18,90531.0,889.5,91420.5,8,Long
2024-11-19,90531.0,2175.5,92706.5,8,Long
2024-11-20,90531.0,1931.5,92462.5,8,Long
2024-11-21,90531.0,2099.5,92630.5,8,Long
2024-11-22,90531.0,2981.25,93512.25,9,Long
2024-11-24,90531.0,3496.5,94027.5,9,Long
2024-11-25,90531.0,2583.0,93114.0,9,Long
2024-11-26,90531.0,3946.5,94477.5,9,Long
2024-11-27,90531.0,2484.0,93015.0,9,Long
2024-11-28,90531.0,3064.5,93595.5,9,Long
2024-11-29,90531.0,3998.25,94529.25,9,Long
2024-12-01,90531.0,3755.25,94286.25,9,Long
2024-12-02,90531.0,5998.5,96529.5,9,Long
2024-12-03,90531.0,7069.5,97600.5,9,Long
2024-12-04,90531.0,8667.0,99198.0,9,Long
2024-12-05,90531.0,8176.5,98707.5,9,Long
2024-12-06,90531.0,9771.75,100302.75,10,Long
2024-12-08,90531.0,10009.25,100540.25,10,Long
2024-12-09,90531.0,8086.75,98617.75,10,Long
2024-12-10,90531.0,7716.75,98247.75,10,Long
2024-12-11,90531.0,11014.25,101545.25,10,Long
2024-12-12,90531.0,10876.75,101407.75,10,Long
2024-12-13,90531.0,11036.75,101567.75,10,Long
2024-12-15,90531.0,11324.25,101855.25,10,Long
2024-12-16,90531.0,14421.75,104952.75,10,Long
2024-12-17,90531.0,16174.25,106705.25,10,Long
2024-12-18,106705.25,0.0,106705.25,0,
2024-12-19,106705.25,0.0,106705.25,0,
2024-12-20,106705.25,0.0,106705.25,0,
2024-12-22,106705.25,0.0,106705.25,0,
2024-12-23,106705.25,0.0,106705.25,0,
2024-12-24,106705.25,0.0,106705.25,0,
2024-12-25,106705.25,0.0,106705.25,0,
2024-12-26,106705.25,0.0,106705.25,0,
2024-12-27,106705.25,0.0,106705.25,0,
2024-12-29,106705.25,0.0,106705.25,0,
2024-12-30,106705.25,0.0,106705.25,0,
2024-12-31,106705.25,0.0,106705.25,0,
2025-01-01,106705.25,0.0,106705.25,0,
2025-01-02,106705.25,0.0,106705.25,0,
2025-01-03,106705.25,0.0,106705.25,0,
2025-01-05,106705.25,0.0,106705.25,0,
2025-01-06,106705.25,0.0,106705.25,0,
2025-01-07,106705.25,0.0,106705.25,0,
2025-01-08,106705.25,0.0,106705.25,0,
2025-01-09,106705.25,0.0,106705.25,0,
2025-01-10,106705.25,0.0,106705.25,0,
2025-01-12,106705.25,0.0,106705.25,0,
2025-01-13,106705.25,0.0,106705.25,0,
2025-01-14,106705.25,0.0,106705.25,0,
2025-01-15,106705.25,0.0,106705.25,0,
2025-01-16,106705.25,0.0,106705.25,0,
2025-01-17,106705.25,0.0,106705.25,0,
2025-01-19,106705.25,0.0,106705.25,0,
2025-01-20,106705.25,0.0,106705.25,0,
2025-01-21,106705.25,0.0,106705.25,0,
2025-01-22,106705.25,155.75,106861.0,1,Long
2025-01-23,106705.25,201.0,106906.25,1,Long
2025-01-24,106705.25,98.75,106804.0,1,Long
2025-01-26,106705.25,-143.75,106561.5,1,Long
2025-01-27,106561.25,0.0,106561.25,0,
2025-01-28,106561.25,0.0,106561.25,0,
2025-01-29,106561.25,0.0,106561.25,0,
2025-01-30,106561.25,0.0,106561.25,0,
2025-01-31,106561.25,0.0,106561.25,0,
2025-02-02,106561.25,0.0,106561.25,0,
2025-02-03,106561.25,0.0,106561.25,0,
2025-02-04,106561.25,0.0,106561.25,0,
2025-02-05,106561.25,0.0,106561.25,0,
2025-02-06,106561.25,0.0,106561.25,0,
2025-02-07,106561.25,-277.75,106283.5,1,Long
2025-02-09,106172.75,0.0,106172.75,0,
2025-02-10,106172.75,0.0,106172.75,0,
2025-02-11,106172.75,0.0,106172.75,0,
2025-02-12,106172.75,77.75,106250.5,1,Long
2025-02-13,106172.75,274.0,106446.75,1,Long
2025-02-14,106172.75,392.5,106565.25,1,Long
2025-02-16,106172.75,401.0,106573.75,1,Long
2025-02-17,106172.75,410.0,106582.75,1,Long
2025-02-18,106172.75,440.0,106612.75,1,Long
2025-02-19,106172.75,407.0,106579.75,1,Long
2025-02-20,106172.75,351.0,106523.75,1,Long
2025-02-21,106172.75,-151.0,106021.75,1,Long
2025-02-23,106063.0,0.0,106063.0,0,
2025-02-24,106063.0,0.0,106063.0,0,
2025-02-25,106063.0,0.0,106063.0,0,
2025-02-26,106063.0,0.0,106063.0,0,
2025-02-27,106063.0,0.0,106063.0,0,
2025-02-28,106063.0,0.0,106063.0,0,
2025-03-02,106063.0,0.0,106063.0,0,
2025-03-03,106063.0,0.0,106063.0,0,
2025-03-04,106063.0,0.0,106063.0,0,
2025-03-05,106063.0,0.0,106063.0,0,
2025-03-06,106063.0,0.0,106063.0,0,
2025-03-07,106063.0,0.0,106063.0,0,
2025-03-09,106063.0,0.0,106063.0,0,
2025-03-10,106063.0,0.0,106063.0,0,
2025-03-11,106063.0,0.0,106063.0,0,
2025-03-12,106063.0,0.0,106063.0,0,
2025-03-13,106063.0,0.0,106063.0,0,
2025-03-14,106063.0,0.0,106063.0,0,
2025-03-16,106063.0,0.0,106063.0,0,
2025-03-17,106063.0,0.0,106063.0,0,
2025-03-18,106063.0,0.0,106063.0,0,
2025-03-19,106063.0,0.0,106063.0,0,
2025-03-20,106063.0,0.0,106063.0,0,
2025-03-21,106063.0,0.0,106063.0,0,
2025-03-23,106063.0,0.0,106063.0,0,
2025-03-24,106063.0,0.0,106063.0,0,
2025-03-25,106063.0,0.0,106063.0,0,
2025-03-26,106063.0,0.0,106063.0,0,
2025-03-27,106063.0,0.0,106063.0,0,
2025-03-28,106063.0,0.0,106063.0,0,
2025-03-30,106063.0,0.0,106063.0,0,
2025-03-31,106063.0,0.0,106063.0,0,
2025-04-01,106063.0,0.0,106063.0,0,
2025-04-02,106063.0,0.0,106063.0,0,
2025-04-03,106063.0,0.0,106063.0,0,
2025-04-04,106063.0,0.0,106063.0,0,
2025-04-06,106063.0,0.0,106063.0,0,
2025-04-07,106063.0,0.0,106063.0,0,
2025-04-08,106063.0,0.0,106063.0,0,
2025-04-09,106063.0,2321.25,108384.25,1,Long
2025-04-10,106063.0,1364.75,107427.75,1,Long
2025-04-11,106063.0,1827.0,107890.0,1,Long
2025-04-13,106063.0,2021.0,108084.0,1,Long
2025-04-14,106063.0,1858.25,107921.25,1,Long
2025-04-15,106063.0,1736.25,107799.25,1,Long
2025-04-16,106063.0,1410.5,107473.5,1,Long
2025-04-17,106063.0,1438.0,107501.0,1,Long
2025-04-20,106063.0,1322.25,107385.25,1,Long
2025-04-21,106063.0,1011.25,107074.25,1,Long
2025-04-22,106063.0,1769.25,107832.25,1,Long
2025-04-23,106063.0,1847.5,107910.5,1,Long
2025-04-24,106063.0,2420.5,108483.5,1,Long
2025-04-25,106063.0,2643.25,108706.25,2,Long
2025-04-27,106063.0,2442.25,108505.25,2,Long
2025-04-28,106063.0,2590.75,108653.75,2,Long
2025-04-29,106063.0,2660.25,108723.25,2,Long
2025-04-30,106063.0,3367.75,109430.75,2,Long
2025-05-01,106063.0,3114.25,109177.25,2,Long
2025-05-02,106063.0,3934.75,109997.75,2,Long
2025-05-04,106063.0,3704.25,109767.25,2,Long
2025-05-05,106063.0,3550.75,109613.75,2,Long
2025-05-06,106063.0,3668.75,109731.75,2,Long
2025-05-07,106063.0,3438.25,109501.25,2,Long
2025-05-08,106063.0,3812.25,109875.25,2,Long
2025-05-09,106063.0,3834.75,109897.75,4,Long
2025-05-11,106063.0,5060.75,111123.75,4,Long
2025-05-12,106063.0,6882.75,112945.75,4,Long
2025-05-13,106063.0,8417.75,114480.75,4,Long
2025-05-14,106063.0,8750.75,114813.75,4,Long
2025-05-15,106063.0,8907.75,114970.75,4,Long
2025-05-16,106063.0,8865.75,114928.75,4,Long
2025-05-18,106063.0,8774.75,114837.75,4,Long
2025-05-19,106063.0,9407.75,115470.75,4,Long
2025-05-20,106063.0,8975.75,115038.75,4,Long
2025-05-21,106063.0,7837.75,113900.75,4,Long
2025-05-22,106063.0,7963.75,114026.75,4,Long
2025-05-23,106063.0,6936.75,112999.75,6,Long
2025-05-25,106063.0,8349.75,114412.75,6,Long
2025-05-26,106063.0,8633.25,114696.25,6,Long
2025-05-27,106063.0,10040.25,116103.25,6,Long
2025-05-28,106063.0,11813.25,117876.25,6,Long
2025-05-29,106063.0,9119.25,115182.25,6,Long
2025-05-30,106063.0,9431.25,115494.25,6,Long
2025-06-01,106063.0,9038.25,115101.25,6,Long
2025-06-02,106063.0,10185.75,116248.75,6,Long
2025-06-03,106063.0,11448.75,117511.75,6,Long
2025-06-04,106063.0,11664.75,117727.75,6,Long
2025-06-05,106063.0,10493.25,116556.25,6,Long
2025-06-06,106063.0,12095.25,118158.25,8,Long
2025-06-08,106063.0,11711.25,117774.25,8,Long
2025-06-09,106063.0,12273.25,118336.25,8,Long
2025-06-10,106063.0,13255.25,119318.25,8,Long
2025-06-11,106063.0,12325.25,118388.25,8,Long
2025-06-12,106063.0,11889.25,117952.25,8,Long
2025-06-13,106063.0,10849.25,116912.25,8,Long
2025-06-15,106063.0,11115.25,117178.25,8,Long
2025-06-16,106063.0,13743.25,119806.25,8,Long
2025-06-17,106063.0,12861.25,118924.25,8,Long
2025-06-18,106063.0,13207.25,119270.25,8,Long
2025-06-19,106063.0,12713.25,118776.25,8,Long
2025-06-20,106063.0,12675.75,118738.75,9,Long
2025-06-22,106063.0,11656.5,117719.5,9,Long
2025-06-23,106063.0,15936.0,121999.0,9,Long
2025-06-24,106063.0,17628.0,123691.0,9,Long
2025-06-25,106063.0,17994.75,124057.75,9,Long
2025-06-26,106063.0,19909.5,125972.5,9,Long
2025-06-27,106063.0,20472.0,126535.0,9,Long
2025-06-29,106063.0,21165.0,127228.0,9,Long
2025-06-30,106063.0,21743.25,127806.25,9,Long
2025-07-01,106063.0,20184.0,126247.0,9,Long
2025-07-02,106063.0,21446.25,127509.25,9,Long
2025-07-03,106063.0,23122.5,129185.5,9,Long
2025-07-04,106063.0,21950.25,128013.25,10,Long
2025-07-06,106063.0,22742.75,128805.75,10,Long
2025-07-07,106063.0,21645.25,127708.25,10,Long
2025-07-08,106063.0,21917.75,127980.75,10,Long
2025-07-09,106063.0,23255.25,129318.25,10,Long
2025-07-10,106063.0,23350.25,129413.25,10,Long
2025-07-11,106063.0,22277.75,128340.75,10,Long
2025-07-13,106063.0,21570.25,127633.25,10,Long
2025-07-14,106063.0,23020.25,129083.25,10,Long
2025-07-15,106063.0,23047.75,129110.75,10,Long
2025-07-16,106063.0,23310.25,129373.25,10,Long
2025-07-17,106063.0,25707.75,131770.75,10,Long
2025-07-18,106063.0,25192.75,131255.75,10,Long
2025-07-20,106063.0,25505.25,131568.25,10,Long
2025-07-21,106063.0,26370.25,132433.25,10,Long
2025-07-22,106063.0,25522.75,131585.75,10,Long
2025-07-23,106063.0,26915.25,132978.25,10,Long
2025-07-24,106063.0,26967.75,133030.75,10,Long
2025-07-25,106063.0,27377.75,133440.75,10,Long
2025-07-27,106063.0,28247.75,134310.75,10,Long
2025-07-28,106063.0,28190.25,134253.25,10,Long
2025-07-29,106063.0,27652.75,133715.75,10,Long
2025-07-30,106063.0,30155.25,136218.25,10,Long
2025-07-31,106063.0,25880.25,131943.25,10,Long
2025-08-01,131950.75,0.0,131950.75,0,
2025-08-03,131950.75,0.0,131950.75,0,
2025-08-04,131950.75,0.0,131950.75,0,
2025-08-05,131950.75,0.0,131950.75,0,
2025-08-06,131950.75,0.0,131950.75,0,
2025-08-07,131950.75,0.0,131950.75,0,
2025-08-08,131950.75,227.5,132178.25,1,Long
2025-08-10,131950.75,168.0,132118.75,1,Long
2025-08-11,131950.75,97.0,132047.75,1,Long
2025-08-12,131950.75,420.75,132371.5,1,Long
2025-08-13,131950.75,409.5,132360.25,1,Long
2025-08-14,131950.75,349.0,132299.75,1,Long
2025-08-15,131950.75,256.75,132207.5,1,Long
2025-08-17,131950.75,311.25,132262.0,1,Long
2025-08-18,131950.75,265.0,132215.75,1,Long
2025-08-19,131950.75,-117.75,131833.0,1,Long
2025-08-20,131833.75,0.0,131833.75,0,
2025-08-21,131833.75,0.0,131833.75,0,
2025-08-22,131833.75,0.0,131833.75,0,
2025-08-24,131833.75,-25.5,131808.25,1,Long
2025-08-25,131833.75,-103.5,131730.25,1,Long
2025-08-26,131730.0,0.0,131730.0,0,
2025-08-27,131730.0,-106.25,131623.75,1,Long
2025-08-28,131623.75,0.0,131623.75,0,
2025-08-29,131623.75,-293.0,131330.75,1,Long
2025-08-31,131354.75,0.0,131354.75,0,
2025-09-01,131354.75,0.0,131354.75,0,
2025-09-02,131354.75,0.0,131354.75,0,
2025-09-03,131354.75,0.0,131354.75,0,
2025-09-04,131354.75,0.0,131354.75,0,
2025-09-05,131354.75,-33.25,131321.5,1,Long
2025-09-07,131354.75,71.5,131426.25,1,Long
2025-09-08,131354.75,101.0,131455.75,1,Long
2025-09-09,131354.75,179.5,131534.25,1,Long
2025-09-10,131354.75,194.5,131549.25,1,Long
2025-09-11,131354.75,313.0,131667.75,1,Long
2025-09-12,131354.75,408.25,131763.0,1,Long
2025-09-14,131354.75,404.75,131759.5,1,Long
2025-09-15,131354.75,598.75,131953.5,1,Long
2025-09-16,131354.75,836.75,132191.5,1,Long
2025-09-17,131354.75,877.75,132232.5,1,Long
2025-09-18,131354.75,1033.75,132388.5,1,Long
2025-09-19,131354.75,1172.25,132527.0,2,Long
2025-09-21,131354.75,1152.25,132507.0,2,Long
2025-09-22,131354.75,1444.75,132799.5,2,Long
2025-09-23,131354.75,1131.25,132486.0,2,Long
2025-09-24,131354.75,961.25,132316.0,2,Long
2025-09-25,131354.75,683.25,132038.0,2,Long
2025-09-26,131354.75,904.75,132259.5,2,Long
2025-09-28,131354.75,994.25,132349.0,2,Long
2025-09-29,131354.75,1097.75,132452.5,2,Long
2025-09-30,131354.75,1110.25,132465.0,2,Long
2025-10-01,131354.75,1494.75,132849.5,2,Long
2025-10-02,131354.75,1698.25,133053.0,2,Long
2025-10-03,131354.75,1338.25,132693.0,4,Long
2025-10-05,131354.75,1679.25,133034.0,4,Long
2025-10-06,131354.75,1980.25,133335.0,4,Long
2025-10-07,131354.75,1546.25,132901.0,4,Long
2025-10-08,131354.75,2928.25,134283.0,4,Long
2025-10-09,131354.75,2752.25,134107.0,4,Long
2025-10-10,134109.0,0.0,134109.0,0,
2025-10-12,134109.0,0.0,134109.0,0,
2025-10-13,134109.0,0.0,134109.0,0,
2025-10-14,134109.0,0.0,134109.0,0,
2025-10-15,134109.0,0.0,134109.0,0,
2025-10-16,134109.0,0.0,134109.0,0,
2025-10-17,134109.0,0.0,134109.0,0,
2025-10-19,134109.0,0.0,134109.0,0,
2025-10-20,134109.0,0.0,134109.0,0,
2025-10-21,134109.0,0.0,134109.0,0,
2025-10-22,134109.0,0.0,134109.0,0,
2025-10-23,134109.0,0.0,134109.0,0,
2025-10-24,134109.0,0.0,134109.0,0,
2025-10-26,134109.0,18.75,134127.75,1,Long
2025-10-27,134109.0,296.25,134405.25,1,Long
2025-10-28,134109.0,485.5,134594.5,1,Long
2025-10-29,134109.0,537.25,134646.25,1,Long
2025-10-30,134109.0,472.0,134581.0,1,Long
2025-10-31,134109.0,285.25,134394.25,1,Long
2025-11-02,134109.0,382.25,134491.25,1,Long
2025-11-03,134109.0,370.5,134479.5,1,Long
2025-11-04,134109.0,-194.75,133914.25,1,Long
2025-11-05,133914.75,0.0,133914.75,0,
2025-11-06,133914.75,-456.0,133458.75,1,Long
2025-11-07,133458.75,0.0,133458.75,0,
2025-11-09,133458.75,0.0,133458.75,0,
2025-11-10,133458.75,0.0,133458.75,0,
2025-11-11,133458.75,-91.75,133367.0,1,Long
2025-11-12,133367.25,0.0,133367.25,0,
2025-11-13,133367.25,0.0,133367.25,0,
2025-11-14,133367.25,0.0,133367.25,0,
2025-11-16,133367.25,0.0,133367.25,0,
2025-11-17,133367.25,0.0,133367.25,0,
2025-11-18,133367.25,0.0,133367.25,0,
2025-11-19,133367.25,0.0,133367.25,0,
2025-11-20,133367.25,0.0,133367.25,0,
2025-11-21,133367.25,0.0,133367.25,0,
2025-11-23,133367.25,0.0,133367.25,0,
2025-11-24,133367.25,0.0,133367.25,0,
2025-11-25,133367.25,0.0,133367.25,0,
2025-11-26,133367.25,0.0,133367.25,0,
2025-11-27,133367.25,0.0,133367.25,0,
2025-11-28,133367.25,0.0,133367.25,0,
2025-11-30,133367.25,0.0,133367.25,0,
2025-12-01,133367.25,0.0,133367.25,0,
2025-12-02,133367.25,0.0,133367.25,0,
2025-12-03,133367.25,0.0,133367.25,0,
2025-12-04,133367.25,0.0,133367.25,0,
2025-12-05,133367.25,0.0,133367.25,0,
2025-12-07,133367.25,0.0,133367.25,0,
2025-12-08,133367.25,0.0,133367.25,0,
2025-12-09,133367.25,0.0,133367.25,0,
2025-12-10,133367.25,0.0,133367.25,0,
2025-12-11,133367.25,0.0,133367.25,0,
2025-12-12,133367.25,0.0,133367.25,0,
2025-12-14,133367.25,0.0,133367.25,0,
2025-12-15,133367.25,0.0,133367.25,0,
2025-12-16,133367.25,0.0,133367.25,0,
2025-12-17,133367.25,0.0,133367.25,0,
2025-12-18,133367.25,0.0,133367.25,0,
2025-12-19,133367.25,0.0,133367.25,0,
2025-12-21,133367.25,0.0,133367.25,0,
2025-12-22,133367.25,0.0,133367.25,0,
2025-12-23,133367.25,0.0,133367.25,0,
2025-12-24,133367.25,51.75,133419.0,1,Long
2025-12-25,133367.25,77.25,133444.5,1,Long
2025-12-26,133367.25,47.0,133414.25,1,Long
2025-12-28,133367.25,60.0,133427.25,1,Long
2025-12-29,133367.25,-103.0,133264.25,1,Long
2025-12-30,133264.5,0.0,133264.5,0,
2025-12-31,133264.5,0.0,133264.5,0,
2026-01-01,133264.5,0.0,133264.5,0,
2026-01-02,133264.5,0.0,133264.5,0,
2026-01-04,133264.5,0.0,133264.5,0,
2026-01-05,133264.5,0.0,133264.5,0,
2026-01-06,133264.5,0.0,133264.5,0,
2026-01-07,133264.5,-1.75,133262.75,1,Long
2026-01-08,133264.5,-149.5,133115.0,1,Long
2026-01-09,133114.5,0.0,133114.5,0,
2026-01-11,133114.5,-52.5,133062.0,1,Long
2026-01-12,133114.5,-50.75,133063.75,1,Long
2026-01-13,133114.5,-55.5,133059.0,1,Long
2026-01-14,133114.5,-341.0,132773.5,1,Long
2026-01-15,132773.5,0.0,132773.5,0,
2026-01-16,132773.5,0.0,132773.5,0,
2026-01-18,132773.5,0.0,132773.5,0,
2026-01-19,132773.5,0.0,132773.5,0,
2026-01-20,132773.5,0.0,132773.5,0,
2026-01-21,132773.5,0.0,132773.5,0,
2026-01-22,132773.5,0.0,132773.5,0,
2026-01-23,132773.5,0.0,132773.5,0,
2026-01-25,132773.5,0.0,132773.5,0,
2026-01-26,132773.5,0.0,132773.5,0,
2026-01-27,132773.5,248.0,133021.5,1,Long
2026-01-28,132773.5,279.75,133053.25,1,Long
2026-01-29,132773.5,81.75,132855.25,1,Long
2026-01-30,132773.5,-251.5,132522.0,1,Long
2026-02-01,132413.25,0.0,132413.25,0,
2026-02-02,132413.25,0.0,132413.25,0,
2026-02-03,132413.25,-520.5,131892.75,1,Long
2026-02-04,131892.25,0.0,131892.25,0,
2026-02-05,131892.25,0.0,131892.25,0,
2026-02-06,131892.25,0.0,131892.25,0,
2026-02-08,131892.25,0.0,131892.25,0,
2026-02-09,131892.25,0.0,131892.25,0,
2026-02-10,131892.25,0.0,131892.25,0,
2026-02-11,131892.25,0.0,131892.25,0,
2026-02-12,131892.25,0.0,131892.25,0,
2026-02-13,131892.25,0.0,131892.25,0,
2026-02-15,131892.25,0.0,131892.25,0,
2026-02-16,131892.25,0.0,131892.25,0,
2026-02-17,131892.25,0.0,131892.25,0,
2026-02-18,131892.25,0.0,131892.25,0,
2026-02-19,131892.25,0.0,131892.25,0,
2026-02-20,131892.25,0.0,131892.25,0,
2026-02-22,131892.25,0.0,131892.25,0,
2026-02-23,131892.25,0.0,131892.25,0,
2026-02-24,131892.25,0.0,131892.25,0,
2026-02-25,131892.25,0.0,131892.25,0,
2026-02-26,131892.25,0.0,131892.25,0,
2026-02-27,131892.25,0.0,131892.25,0,
2026-03-01,131892.25,0.0,131892.25,0,
2026-03-02,131892.25,0.0,131892.25,0,
2026-03-03,131892.25,0.0,131892.25,0,
2026-03-04,131892.25,0.0,131892.25,0,
2026-03-05,131892.25,0.0,131892.25,0,
2026-03-06,131892.25,0.0,131892.25,0,
2026-03-08,131892.25,0.0,131892.25,0,
