date,realized_points,open_unrealized_points,total_equity_points,open_units,direction
2019-05-05,0.0,0.0,0.0,0,
2019-05-06,0.0,0.0,0.0,0,
2019-05-07,0.0,0.0,0.0,0,
2019-05-08,0.0,0.0,0.0,0,
2019-05-09,0.0,0.0,0.0,0,
2019-05-10,0.0,0.0,0.0,0,
2019-05-12,0.0,0.0,0.0,0,
2019-05-13,0.0,0.0,0.0,0,
2019-05-14,0.0,0.0,0.0,0,
2019-05-15,0.0,0.0,0.0,0,
2019-05-16,0.0,0.0,0.0,0,
2019-05-17,0.0,0.0,0.0,0,
2019-05-19,0.0,0.0,0.0,0,
2019-05-20,0.0,0.0,0.0,0,
2019-05-21,0.0,0.0,0.0,0,
2019-05-22,0.0,0.0,0.0,0,
2019-05-23,0.0,0.0,0.0,0,
2019-05-24,0.0,0.0,0.0,0,
2019-05-26,0.0,0.0,0.0,0,
2019-05-27,0.0,0.0,0.0,0,
2019-05-28,0.0,0.0,0.0,0,
2019-05-29,0.0,0.0,0.0,0,
2019-05-30,0.0,0.0,0.0,0,
2019-05-31,0.0,0.0,0.0,0,
2019-06-02,0.0,0.0,0.0,0,
2019-06-03,0.0,0.0,0.0,0,
2019-06-04,0.0,0.0,0.0,0,
2019-06-05,0.0,0.0,0.0,0,
2019-06-06,0.0,0.0,0.0,0,
2019-06-07,0.0,0.0,0.0,0,
2019-06-09,0.0,-5.25,-5.25,1,Long
2019-06-10,0.0,46.5,46.5,1,Long
2019-06-11,0.0,53.0,53.0,1,Long
2019-06-12,0.0,28.75,28.75,1,Long
2019-06-13,0.0,34.5,34.5,1,Long
2019-06-14,0.0,23.0,23.0,1,Long
2019-06-16,0.0,65.0,65.0,1,Long
2019-06-17,0.0,101.75,101.75,1,Long
2019-06-18,0.0,224.0,224.0,1,Long
2019-06-19,0.0,266.25,266.25,1,Long
2019-06-20,0.0,302.75,302.75,1,Long
2019-06-21,0.0,285.25,285.25,2,Long
2019-06-23,0.0,332.75,332.75,2,Long
2019-06-24,0.0,310.25,310.25,2,Long
2019-06-25,0.0,44.75,44.75,2,Long
2019-06-26,0.0,99.75,99.75,2,Long
2019-06-27,0.0,183.75,183.75,2,Long
2019-06-28,0.0,240.25,240.25,2,Long
2019-06-30,0.0,397.25,397.25,2,Long
2019-07-01,0.0,347.25,347.25,2,Long
2019-07-02,0.0,463.25,463.25,2,Long
2019-07-03,0.0,572.25,572.25,2,Long
2019-07-04,0.0,600.75,600.75,2,Long
2019-07-05,0.0,501.75,501.75,3,Long
2019-07-07,0.0,465.75,465.75,3,Long
2019-07-08,0.0,319.5,319.5,3,Long
2019-07-09,0.0,478.5,478.5,3,Long
2019-07-10,0.0,719.25,719.25,3,Long
2019-07-11,0.0,702.75,702.75,3,Long
2019-07-12,0.0,811.5,811.5,3,Long
2019-07-14,0.0,793.5,793.5,3,Long
2019-07-15,0.0,921.0,921.0,3,Long
2019-07-16,0.0,762.0,762.0,3,Long
2019-07-17,0.0,556.5,556.5,3,Long
2019-07-18,0.0,774.75,774.75,3,Long
2019-07-19,0.0,394.5,394.5,4,Long
2019-07-21,0.0,522.5,522.5,4,Long
2019-07-22,0.0,833.5,833.5,4,Long
2019-07-23,0.0,932.5,932.5,4,Long
2019-07-24,0.0,1185.5,1185.5,4,Long
2019-07-25,0.0,1089.5,1089.5,4,Long
2019-07-26,0.0,1178.5,1178.5,4,Long
2019-07-28,0.0,1190.5,1190.5,4,Long
2019-07-29,0.0,1158.5,1158.5,4,Long
2019-07-30,0.0,1076.5,1076.5,4,Long
2019-07-31,0.0,468.5,468.5,4,Long
2019-08-01,0.0,261.5,261.5,4,Long
2019-08-02,265.5,0.0,265.5,0,
2019-08-04,265.5,0.0,265.5,0,
2019-08-05,265.5,0.0,265.5,0,
2019-08-06,265.5,0.0,265.5,0,
2019-08-07,265.5,0.0,265.5,0,
2019-08-08,265.5,0.0,265.5,0,
2019-08-09,265.5,0.0,265.5,0,
2019-08-11,265.5,0.0,265.5,0,
2019-08-12,265.5,0.0,265.5,0,
2019-08-13,265.5,0.0,265.5,0,
2019-08-14,265.5,0.0,265.5,0,
2019-08-15,265.5,0.0,265.5,0,
2019-08-16,265.5,0.0,265.5,0,
2019-08-18,265.5,0.0,265.5,0,
2019-08-19,265.5,0.0,265.5,0,
2019-08-20,265.5,0.0,265.5,0,
2019-08-21,265.5,0.0,265.5,0,
2019-08-22,265.5,0.0,265.5,0,
2019-08-23,265.5,0.0,265.5,0,
2019-08-25,265.5,0.0,265.5,0,
2019-08-26,265.5,0.0,265.5,0,
2019-08-27,265.5,0.0,265.5,0,
2019-08-28,265.5,0.0,265.5,0,
2019-08-29,265.5,0.0,265.5,0,
2019-08-30,265.5,0.0,265.5,0,
2019-09-01,265.5,0.0,265.5,0,
2019-09-02,265.5,0.0,265.5,0,
2019-09-03,265.5,0.0,265.5,0,
2019-09-04,265.5,0.0,265.5,0,
2019-09-05,265.5,0.0,265.5,0,
2019-09-06,265.5,-8.0,257.5,1,Long
2019-09-08,265.5,-9.25,256.25,1,Long
2019-09-09,265.5,-30.25,235.25,1,Long
2019-09-10,265.5,-62.25,203.25,1,Long
2019-09-11,201.75,0.0,201.75,0,
2019-09-12,201.75,0.0,201.75,0,
2019-09-13,201.75,0.0,201.75,0,
2019-09-15,201.75,0.0,201.75,0,
2019-09-16,201.75,0.0,201.75,0,
2019-09-17,201.75,0.0,201.75,0,
2019-09-18,201.75,0.0,201.75,0,
2019-09-19,201.75,0.0,201.75,0,
2019-09-20,201.75,0.0,201.75,1,Long
2019-09-22,201.75,44.25,246.0,1,Long
2019-09-23,201.75,53.0,254.75,1,Long
2019-09-24,201.75,-79.5,122.25,1,Long
2019-09-25,122.25,0.0,122.25,0,
2019-09-26,122.25,0.0,122.25,0,
2019-09-27,122.25,0.0,122.25,0,
2019-09-29,122.25,0.0,122.25,0,
2019-09-30,122.25,0.0,122.25,0,
2019-10-01,122.25,0.0,122.25,0,
2019-10-02,122.25,0.0,122.25,0,
2019-10-03,122.25,0.0,122.25,0,
2019-10-04,122.25,0.0,122.25,0,
2019-10-06,122.25,0.0,122.25,0,
2019-10-07,122.25,0.0,122.25,0,
2019-10-08,122.25,0.0,122.25,0,
2019-10-09,122.25,0.0,122.25,0,
2019-10-10,122.25,0.0,122.25,0,
2019-10-11,122.25,0.0,122.25,0,
2019-10-13,122.25,0.0,122.25,0,
2019-10-14,122.25,0.0,122.25,0,
2019-10-15,122.25,0.0,122.25,0,
2019-10-16,122.25,0.0,122.25,0,
2019-10-17,122.25,0.0,122.25,0,
2019-10-18,122.25,0.0,122.25,0,
2019-10-20,122.25,0.0,122.25,0,
2019-10-21,122.25,0.0,122.25,0,
2019-10-22,122.25,0.0,122.25,0,
2019-10-23,122.25,0.0,122.25,0,
2019-10-24,122.25,0.0,122.25,0,
2019-10-25,122.25,0.0,122.25,0,
2019-10-27,122.25,9.0,131.25,1,Long
2019-10-28,122.25,64.75,187.0,1,Long
2019-10-29,122.25,11.0,133.25,1,Long
2019-10-30,122.25,75.25,197.5,1,Long
2019-10-31,122.25,41.5,163.75,1,Long
2019-11-01,122.25,115.0,237.25,1,Long
2019-11-03,122.25,128.75,251.0,1,Long
2019-11-04,122.25,191.75,314.0,1,Long
2019-11-05,122.25,165.25,287.5,1,Long
2019-11-06,122.25,155.25,277.5,1,Long
2019-11-07,122.25,189.25,311.5,1,Long
2019-11-08,122.25,212.0,334.25,2,Long
2019-11-10,122.25,196.5,318.75,2,Long
2019-11-11,122.25,180.0,302.25,2,Long
2019-11-12,122.25,221.0,343.25,2,Long
2019-11-13,122.25,220.5,342.75,2,Long
2019-11-14,122.25,235.0,357.25,2,Long
2019-11-15,122.25,339.5,461.75,2,Long
2019-11-17,122.25,312.5,434.75,2,Long
2019-11-18,122.25,347.5,469.75,2,Long
2019-11-19,122.25,327.5,449.75,2,Long
2019-11-20,122.25,232.5,354.75,2,Long
2019-11-21,122.25,232.0,354.25,2,Long
2019-11-22,122.25,256.0,378.25,3,Long
2019-11-24,122.25,330.25,452.5,3,Long
2019-11-25,122.25,536.5,658.75,3,Long
2019-11-26,122.25,614.5,736.75,3,Long
2019-11-27,122.25,686.5,808.75,3,Long
2019-11-28,122.25,757.75,880.0,3,Long
2019-11-29,122.25,673.75,796.0,3,Long
2019-12-01,122.25,703.0,825.25,3,Long
2019-12-02,122.25,322.75,445.0,3,Long
2019-12-03,122.25,195.25,317.5,3,Long
2019-12-04,122.25,282.25,404.5,3,Long
2019-12-05,122.25,354.25,476.5,3,Long
2019-12-06,122.25,619.75,742.0,4,Long
2019-12-08,122.25,624.75,747.0,4,Long
2019-12-09,122.25,439.75,562.0,4,Long
2019-12-10,122.25,450.75,573.0,4,Long
2019-12-11,122.25,665.75,788.0,4,Long
2019-12-12,122.25,1014.75,1137.0,4,Long
2019-12-13,122.25,1095.75,1218.0,4,Long
2019-12-15,122.25,1148.75,1271.0,4,Long
2019-12-16,122.25,1401.75,1524.0,4,Long
2019-12-17,122.25,1419.75,1542.0,4,Long
2019-12-18,122.25,1494.75,1617.0,4,Long
2019-12-19,122.25,1726.75,1849.0,4,Long
2019-12-20,122.25,1847.75,1970.0,5,Long
2019-12-22,122.25,1907.75,2030.0,5,Long
2019-12-23,122.25,1942.75,2065.0,5,Long
2019-12-24,122.25,1946.5,2068.75,5,Long
2019-12-25,122.25,1947.75,2070.0,5,Long
2019-12-26,122.25,2336.5,2458.75,5,Long
2019-12-27,122.25,2190.25,2312.5,5,Long
2019-12-29,122.25,2285.25,2407.5,5,Long
2019-12-30,122.25,1971.5,2093.75,5,Long
2019-12-31,122.25,2154.0,2276.25,5,Long
2020-01-01,122.25,2176.5,2298.75,5,Long
2020-01-02,122.25,2790.25,2912.5,5,Long
2020-01-03,122.25,2347.75,2470.0,5,Long
2020-01-05,122.25,2186.5,2308.75,5,Long
2020-01-06,122.25,2541.5,2663.75,5,Long
2020-01-07,122.25,2056.5,2178.75,5,Long
2020-01-08,122.25,3056.5,3178.75,5,Long
2020-01-09,122.25,3374.0,3496.25,5,Long
2020-01-10,122.25,3187.75,3310.0,5,Long
2020-01-12,122.25,3234.0,3356.25,5,Long
2020-01-13,122.25,3821.5,3943.75,5,Long
2020-01-14,122.25,3451.5,3573.75,5,Long
2020-01-15,122.25,3667.75,3790.0,5,Long
2020-01-16,122.25,4025.25,4147.5,5,Long
2020-01-17,122.25,4152.75,4275.0,5,Long
2020-01-19,122.25,4220.25,4342.5,5,Long
2020-01-20,122.25,4146.5,4268.75,5,Long
2020-01-21,122.25,4187.75,4310.0,5,Long
2020-01-22,122.25,4209.0,4331.25,5,Long
2020-01-23,122.25,4646.5,4768.75,5,Long
2020-01-24,122.25,3982.75,4105.0,5,Long
2020-01-26,122.25,3369.0,3491.25,5,Long
2020-01-27,122.25,3190.25,3312.5,5,Long
2020-01-28,122.25,3796.5,3918.75,5,Long
2020-01-29,122.25,3905.25,4027.5,5,Long
2020-01-30,122.25,4386.5,4508.75,5,Long
2020-01-31,122.25,3359.0,3481.25,5,Long
2020-02-02,122.25,3397.75,3520.0,5,Long
2020-02-03,122.25,3745.25,3867.5,5,Long
2020-02-04,122.25,4986.5,5108.75,5,Long
2020-02-05,122.25,5201.5,5323.75,5,Long
2020-02-06,122.25,5630.25,5752.5,5,Long
2020-02-07,122.25,5296.5,5418.75,5,Long
2020-02-09,122.25,5077.75,5200.0,5,Long
2020-02-10,122.25,5922.75,6045.0,5,Long
2020-02-11,122.25,6002.75,6125.0,5,Long
2020-02-12,122.25,6179.0,6301.25,5,Long
2020-02-13,122.25,6345.25,6467.5,5,Long
2020-02-14,122.25,6450.25,6572.5,5,Long
2020-02-16,122.25,6616.5,6738.75,5,Long
2020-02-17,122.25,6310.25,6432.5,5,Long
2020-02-18,122.25,6617.75,6740.0,5,Long
2020-02-19,122.25,7021.5,7143.75,5,Long
2020-02-20,122.25,6160.25,6282.5,5,Long
2020-02-21,122.25,5577.75,5700.0,5,Long
2020-02-23,5247.5,0.0,5247.5,0,
2020-02-24,5247.5,0.0,5247.5,0,
2020-02-25,5247.5,0.0,5247.5,0,
2020-02-26,5247.5,0.0,5247.5,0,
2020-02-27,5247.5,0.0,5247.5,0,
2020-02-28,5247.5,0.0,5247.5,0,
2020-03-01,5247.5,0.0,5247.5,0,
2020-03-02,5247.5,0.0,5247.5,0,
2020-03-03,5247.5,0.0,5247.5,0,
2020-03-04,5247.5,0.0,5247.5,0,
2020-03-05,5247.5,0.0,5247.5,0,
2020-03-06,5247.5,0.0,5247.5,0,
2020-03-08,5247.5,0.0,5247.5,0,
2020-03-09,5247.5,0.0,5247.5,0,
2020-03-10,5247.5,0.0,5247.5,0,
2020-03-11,5247.5,0.0,5247.5,0,
2020-03-12,5247.5,0.0,5247.5,0,
2020-03-13,5247.5,0.0,5247.5,0,
2020-03-15,5247.5,0.0,5247.5,0,
2020-03-16,5247.5,0.0,5247.5,0,
2020-03-17,5247.5,0.0,5247.5,0,
2020-03-18,5247.5,0.0,5247.5,0,
2020-03-19,5247.5,0.0,5247.5,0,
2020-03-20,5247.5,0.0,5247.5,0,
2020-03-22,5247.5,0.0,5247.5,0,
2020-03-23,5247.5,0.0,5247.5,0,
2020-03-24,5247.5,0.0,5247.5,0,
2020-03-25,5247.5,0.0,5247.5,0,
2020-03-26,5247.5,0.0,5247.5,0,
2020-03-27,5247.5,0.0,5247.5,0,
2020-03-29,5247.5,0.0,5247.5,0,
2020-03-30,5247.5,0.0,5247.5,0,
2020-03-31,5247.5,0.0,5247.5,0,
2020-04-01,5247.5,0.0,5247.5,0,
2020-04-02,5247.5,0.0,5247.5,0,
2020-04-03,5247.5,0.0,5247.5,0,
2020-04-05,5247.5,0.0,5247.5,0,
2020-04-06,5247.5,0.0,5247.5,0,
2020-04-07,5247.5,0.0,5247.5,0,
2020-04-08,5247.5,0.0,5247.5,0,
2020-04-09,5247.5,13.25,5260.75,1,Long
2020-04-12,5247.5,-108.25,5139.25,1,Long
2020-04-13,5139.25,0.0,5139.25,0,
2020-04-14,5139.25,0.0,5139.25,0,
2020-04-15,5139.25,0.0,5139.25,0,
2020-04-16,5139.25,0.0,5139.25,0,
2020-04-17,5139.25,0.0,5139.25,0,
2020-04-19,5139.25,0.0,5139.25,0,
2020-04-20,5139.25,0.0,5139.25,0,
2020-04-21,5139.25,0.0,5139.25,0,
2020-04-22,5139.25,0.0,5139.25,0,
2020-04-23,5139.25,0.0,5139.25,0,
2020-04-24,5139.25,0.0,5139.25,1,Long
2020-04-26,5139.25,-13.75,5125.5,1,Long
2020-04-27,5139.25,56.25,5195.5,1,Long
2020-04-28,5139.25,0.5,5139.75,1,Long
2020-04-29,5139.25,323.75,5463.0,1,Long
2020-04-30,5139.25,71.0,5210.25,1,Long
2020-05-01,5139.25,-65.25,5074.0,1,Long
2020-05-03,5139.25,-184.25,4955.0,1,Long
2020-05-04,5139.25,56.5,5195.75,1,Long
2020-05-05,5139.25,189.0,5328.25,1,Long
2020-05-06,5139.25,197.5,5336.75,1,Long
2020-05-07,5139.25,374.0,5513.25,1,Long
2020-05-08,5139.25,454.0,5593.25,2,Long
2020-05-10,5139.25,518.5,5657.75,2,Long
2020-05-11,5139.25,566.0,5705.25,2,Long
2020-05-12,5139.25,40.0,5179.25,2,Long
2020-05-13,5139.25,34.5,5173.75,2,Long
2020-05-14,5139.25,227.0,5366.25,2,Long
2020-05-15,5139.25,251.0,5390.25,2,Long
2020-05-17,5139.25,341.0,5480.25,2,Long
2020-05-18,5139.25,700.0,5839.25,2,Long
2020-05-19,5139.25,648.0,5787.25,2,Long
2020-05-20,5139.25,983.0,6122.25,2,Long
2020-05-21,5139.25,817.0,5956.25,2,Long
2020-05-22,5139.25,857.0,5996.25,3,Long
2020-05-24,5139.25,956.75,6096.0,3,Long
2020-05-25,5139.25,1119.5,6258.75,3,Long
2020-05-26,5139.25,772.25,5911.5,3,Long
2020-05-27,5139.25,915.5,6054.75,3,Long
2020-05-28,5139.25,843.5,5982.75,3,Long
2020-05-29,5139.25,1355.75,6495.0,3,Long
2020-05-31,5139.25,1110.5,6249.75,3,Long
2020-06-01,5139.25,1286.0,6425.25,3,Long
2020-06-02,5139.25,1613.75,6753.0,3,Long
2020-06-03,5139.25,1679.0,6818.25,3,Long
2020-06-04,5139.25,1445.0,6584.25,3,Long
2020-06-05,5139.25,2011.25,7150.5,4,Long
2020-06-07,5139.25,2264.25,7403.5,4,Long
2020-06-08,5139.25,2301.25,7440.5,4,Long
2020-06-09,5139.25,2738.25,7877.5,4,Long
2020-06-10,5139.25,2955.25,8094.5,4,Long
2020-06-11,5139.25,1496.25,6635.5,4,Long
2020-06-12,5139.25,1350.25,6489.5,4,Long
2020-06-14,5139.25,934.25,6073.5,4,Long
2020-06-15,5139.25,2242.25,7381.5,4,Long
2020-06-16,5139.25,2717.25,7856.5,4,Long
2020-06-17,5139.25,2579.25,7718.5,4,Long
2020-06-18,5139.25,2864.25,8003.5,4,Long
2020-06-19,5139.25,2479.25,7618.5,5,Long
2020-06-21,5139.25,2381.75,7521.0,5,Long
2020-06-22,5139.25,3605.5,8744.75,5,Long
2020-06-23,5139.25,3760.5,8899.75,5,Long
2020-06-24,5139.25,2724.25,7863.5,5,Long
2020-06-25,5139.25,3388.0,8527.25,5,Long
2020-06-26,5139.25,2076.75,7216.0,5,Long
2020-06-28,5139.25,1991.75,7131.0,5,Long
2020-06-29,5139.25,2820.5,7959.75,5,Long
2020-06-30,5139.25,3030.5,8169.75,5,Long
2020-07-01,5139.25,4204.25,9343.5,5,Long
2020-07-02,5139.25,4606.75,9746.0,5,Long
2020-07-03,5139.25,4483.0,9622.25,5,Long
2020-07-05,5139.25,4821.75,9961.0,5,Long
2020-07-06,5139.25,6056.75,11196.0,5,Long
2020-07-07,5139.25,5608.0,10747.25,5,Long
2020-07-08,5139.25,6269.25,11408.5,5,Long
2020-07-09,5139.25,6628.0,11767.25,5,Long
2020-07-10,5139.25,7070.5,12209.75,5,Long
2020-07-12,5139.25,7240.5,12379.75,5,Long
2020-07-13,5139.25,6084.25,11223.5,5,Long
2020-07-14,5139.25,6444.25,11583.5,5,Long
2020-07-15,5139.25,6093.0,11232.25,5,Long
2020-07-16,5139.25,5690.5,10829.75,5,Long
2020-07-17,5139.25,5974.25,11113.5,5,Long
2020-07-19,5139.25,6094.25,11233.5,5,Long
2020-07-20,5139.25,7605.5,12744.75,5,Long
2020-07-21,5139.25,7223.0,12362.25,5,Long
2020-07-22,5139.25,6971.75,12111.0,5,Long
2020-07-23,5139.25,5770.5,10909.75,5,Long
2020-07-24,5139.25,5171.75,10311.0,5,Long
2020-07-26,5139.25,5051.75,10191.0,5,Long
2020-07-27,5139.25,6349.25,11488.5,5,Long
2020-07-28,5139.25,5676.75,10816.0,5,Long
2020-07-29,5139.25,6254.25,11393.5,5,Long
2020-07-30,5139.25,7384.25,12523.5,5,Long
2020-07-31,5139.25,7434.25,12573.5,5,Long
2020-08-02,5139.25,7415.5,12554.75,5,Long
2020-08-03,5139.25,8039.25,13178.5,5,Long
2020-08-04,5139.25,8225.5,13364.75,5,Long
2020-08-05,5139.25,8303.0,13442.25,5,Long
2020-08-06,5139.25,9119.25,14258.5,5,Long
2020-08-07,5139.25,8511.75,13651.0,5,Long
2020-08-09,5139.25,8393.0,13532.25,5,Long
2020-08-10,5139.25,8226.75,13366.0,5,Long
2020-08-11,5139.25,7470.5,12609.75,5,Long
2020-08-12,5139.25,8515.5,13654.75,5,Long
2020-08-13,5139.25,8883.0,14022.25,5,Long
2020-08-14,5139.25,8585.5,13724.75,5,Long
2020-08-16,5139.25,8664.25,13803.5,5,Long
2020-08-17,5139.25,9381.75,14521.0,5,Long
2020-08-18,5139.25,9939.25,15078.5,5,Long
2020-08-19,5139.25,9309.25,14448.5,5,Long
2020-08-20,5139.25,10354.25,15493.5,5,Long
2020-08-21,5139.25,10671.75,15811.0,5,Long
2020-08-23,5139.25,10774.25,15913.5,5,Long
2020-08-24,5139.25,11090.5,16229.75,5,Long
2020-08-25,5139.25,11590.5,16729.75,5,Long
2020-08-26,5139.25,12695.5,17834.75,5,Long
2020-08-27,5139.25,12703.0,17842.25,5,Long
2020-08-28,5139.25,12875.5,18014.75,5,Long
2020-08-30,5139.25,13095.5,18234.75,5,Long
2020-08-31,5139.25,13483.0,18622.25,5,Long
2020-09-01,5139.25,14659.25,19798.5,5,Long
2020-09-02,5139.25,14965.5,20104.75,5,Long
2020-09-03,20103.5,0.0,20103.5,0,
2020-09-04,20103.5,0.0,20103.5,0,
2020-09-06,20103.5,0.0,20103.5,0,
2020-09-07,20103.5,0.0,20103.5,0,
2020-09-08,20103.5,0.0,20103.5,0,
2020-09-09,20103.5,0.0,20103.5,0,
2020-09-10,20103.5,0.0,20103.5,0,
2020-09-11,20103.5,0.0,20103.5,0,
2020-09-13,20103.5,0.0,20103.5,0,
2020-09-14,20103.5,0.0,20103.5,0,
2020-09-15,20103.5,0.0,20103.5,0,
2020-09-16,20103.5,0.0,20103.5,0,
2020-09-17,20103.5,0.0,20103.5,0,
2020-09-18,20103.5,0.0,20103.5,0,
2020-09-20,20103.5,0.0,20103.5,0,
2020-09-21,20103.5,0.0,20103.5,0,
2020-09-22,20103.5,0.0,20103.5,0,
2020-09-23,20103.5,0.0,20103.5,0,
2020-09-24,20103.5,0.0,20103.5,0,
2020-09-25,20103.5,0.0,20103.5,0,
2020-09-27,20103.5,0.0,20103.5,0,
2020-09-28,20103.5,0.0,20103.5,0,
2020-09-29,20103.5,0.0,20103.5,0,
2020-09-30,20103.5,0.0,20103.5,0,
2020-10-01,20103.5,0.0,20103.5,0,
2020-10-02,20103.5,0.0,20103.5,0,
2020-10-04,20103.5,0.0,20103.5,0,
2020-10-05,20103.5,0.0,20103.5,0,
2020-10-06,20103.5,0.0,20103.5,0,
2020-10-07,20103.5,0.0,20103.5,0,
2020-10-08,20103.5,0.0,20103.5,0,
2020-10-09,20103.5,0.0,20103.5,0,
2020-10-11,20103.5,0.0,20103.5,0,
2020-10-12,20103.5,365.75,20469.25,1,Long
2020-10-13,20103.5,371.25,20474.75,1,Long
2020-10-14,20103.5,217.5,20321.0,1,Long
2020-10-15,20103.5,172.0,20275.5,1,Long
2020-10-16,20103.5,49.75,20153.25,1,Long
2020-10-18,20103.5,129.5,20233.0,1,Long
2020-10-19,20103.5,-28.5,20075.0,1,Long
2020-10-20,20075.25,0.0,20075.25,0,
2020-10-21,20075.25,0.0,20075.25,0,
2020-10-22,20075.25,0.0,20075.25,0,
2020-10-23,20075.25,0.0,20075.25,0,
2020-10-25,20075.25,0.0,20075.25,0,
2020-10-26,20075.25,0.0,20075.25,0,
2020-10-27,20075.25,0.0,20075.25,0,
2020-10-28,20075.25,0.0,20075.25,0,
2020-10-29,20075.25,0.0,20075.25,0,
2020-10-30,20075.25,0.0,20075.25,0,
2020-11-01,20075.25,0.0,20075.25,0,
2020-11-02,20075.25,0.0,20075.25,0,
2020-11-03,20075.25,0.0,20075.25,0,
2020-11-04,20075.25,0.0,20075.25,0,
2020-11-05,20075.25,272.25,20347.5,1,Long
2020-11-06,20075.25,300.25,20375.5,1,Long
2020-11-08,20075.25,438.0,20513.25,1,Long
2020-11-09,20075.25,59.75,20135.0,1,Long
2020-11-10,20075.25,-197.0,19878.25,1,Long
2020-11-11,19877.75,0.0,19877.75,0,
2020-11-12,19877.75,0.0,19877.75,0,
2020-11-13,19877.75,0.0,19877.75,0,
2020-11-15,19877.75,0.0,19877.75,0,
2020-11-16,19877.75,0.0,19877.75,0,
2020-11-17,19877.75,0.0,19877.75,0,
2020-11-18,19877.75,0.0,19877.75,0,
2020-11-19,19877.75,0.0,19877.75,0,
2020-11-20,19877.75,0.0,19877.75,1,Long
2020-11-22,19877.75,20.25,19898.0,1,Long
2020-11-23,19877.75,40.75,19918.5,1,Long
2020-11-24,19877.75,215.0,20092.75,1,Long
2020-11-25,19877.75,268.5,20146.25,1,Long
2020-11-26,19877.75,243.5,20121.25,1,Long
2020-11-27,19877.75,362.5,20240.25,1,Long
2020-11-29,19877.75,405.75,20283.5,1,Long
2020-11-30,19877.75,437.75,20315.5,1,Long
2020-12-01,19877.75,539.75,20417.5,1,Long
2020-12-02,19877.75,555.0,20432.75,1,Long
2020-12-03,19877.75,574.0,20451.75,1,Long
2020-12-04,19877.75,599.0,20476.75,2,Long
2020-12-06,19877.75,668.0,20545.75,2,Long
2020-12-07,19877.75,729.0,20606.75,2,Long
2020-12-08,19877.75,873.0,20750.75,2,Long
2020-12-09,19877.75,305.0,20182.75,2,Long
2020-12-10,19877.75,385.0,20262.75,2,Long
2020-12-11,19877.75,311.5,20189.25,2,Long
2020-12-13,19877.75,411.5,20289.25,2,Long
2020-12-14,19877.75,537.5,20415.25,2,Long
2020-12-15,19877.75,768.5,20646.25,2,Long
2020-12-16,19877.75,944.0,20821.75,2,Long
2020-12-17,19877.75,1078.5,20956.25,2,Long
2020-12-18,19877.75,1075.0,20952.75,3,Long
2020-12-20,19877.75,1077.25,20955.0,3,Long
2020-12-21,19877.75,934.0,20811.75,3,Long
2020-12-22,19877.75,991.0,20868.75,3,Long
2020-12-23,19877.75,794.5,20672.25,3,Long
2020-12-24,19877.75,942.25,20820.0,3,Long
2020-12-27,19877.75,1033.0,20910.75,3,Long
2020-12-28,19877.75,1385.5,21263.25,3,Long
2020-12-29,19877.75,1363.75,21241.5,3,Long
2020-12-30,19877.75,1375.75,21253.5,3,Long
2020-12-31,19877.75,1483.0,21360.75,3,Long
2021-01-03,19877.75,1421.5,21299.25,3,Long
2021-01-04,19877.75,854.5,20732.25,3,Long
2021-01-05,19877.75,1214.5,21092.25,3,Long
2021-01-06,19877.75,848.5,20726.25,3,Long
2021-01-07,19877.75,1645.0,21522.75,3,Long
2021-01-08,19877.75,2203.75,22081.5,3,Long
2021-01-10,19877.75,2077.75,21955.5,3,Long
2021-01-11,19877.75,1596.25,21474.0,3,Long
2021-01-12,19877.75,1520.5,21398.25,3,Long
2021-01-13,19877.75,1740.25,21618.0,3,Long
2021-01-14,19877.75,1581.25,21459.0,3,Long
2021-01-15,19877.75,1121.5,20999.25,4,Long
2021-01-17,19877.75,1050.5,20928.25,4,Long
2021-01-18,19877.75,1392.5,21270.25,4,Long
2021-01-19,19877.75,2265.5,22143.25,4,Long
2021-01-20,19877.75,3324.5,23202.25,4,Long
2021-01-21,19877.75,3601.5,23479.25,4,Long
2021-01-22,19877.75,3473.5,23351.25,4,Long
2021-01-24,19877.75,3658.5,23536.25,4,Long
2021-01-25,19877.75,3914.5,23792.25,4,Long
2021-01-26,19877.75,4303.5,24181.25,4,Long
2021-01-27,19877.75,1978.5,21856.25,4,Long
2021-01-28,19877.75,2613.5,22491.25,4,Long
2021-01-29,22492.25,0.0,22492.25,0,
2021-01-31,22492.25,0.0,22492.25,0,
2021-02-01,22492.25,0.0,22492.25,0,
2021-02-02,22492.25,0.0,22492.25,0,
2021-02-03,22492.25,0.0,22492.25,0,
2021-02-04,22492.25,0.0,22492.25,0,
2021-02-05,22492.25,50.75,22543.0,1,Long
2021-02-07,22492.25,85.75,22578.0,1,Long
2021-02-08,22492.25,128.5,22620.75,1,Long
2021-02-09,22492.25,134.5,22626.75,1,Long
2021-02-10,22492.25,100.75,22593.0,1,Long
2021-02-11,22492.25,178.0,22670.25,1,Long
2021-02-12,22492.25,268.75,22761.0,1,Long
2021-02-14,22492.25,272.75,22765.0,1,Long
2021-02-15,22492.25,305.0,22797.25,1,Long
2021-02-16,22492.25,178.5,22670.75,1,Long
2021-02-17,22492.25,150.0,22642.25,1,Long
2021-02-18,22492.25,62.5,22554.75,1,Long
2021-02-19,22492.25,19.0,22511.25,2,Long
2021-02-21,22492.25,59.0,22551.25,2,Long
2021-02-22,22551.25,0.0,22551.25,0,
2021-02-23,22551.25,0.0,22551.25,0,
2021-02-24,22551.25,0.0,22551.25,0,
2021-02-25,22551.25,0.0,22551.25,0,
2021-02-26,22551.25,0.0,22551.25,0,
2021-02-28,22551.25,0.0,22551.25,0,
2021-03-01,22551.25,0.0,22551.25,0,
2021-03-02,22551.25,0.0,22551.25,0,
2021-03-03,22551.25,0.0,22551.25,0,
2021-03-04,22551.25,0.0,22551.25,0,
2021-03-05,22551.25,0.0,22551.25,0,
2021-03-07,22551.25,0.0,22551.25,0,
2021-03-08,22551.25,0.0,22551.25,0,
2021-03-09,22551.25,0.0,22551.25,0,
2021-03-10,22551.25,0.0,22551.25,0,
2021-03-11,22551.25,0.0,22551.25,0,
2021-03-12,22551.25,0.0,22551.25,0,
2021-03-14,22551.25,0.0,22551.25,0,
2021-03-15,22551.25,0.0,22551.25,0,
2021-03-16,22551.25,0.0,22551.25,0,
2021-03-17,22551.25,0.0,22551.25,0,
2021-03-18,22551.25,0.0,22551.25,0,
2021-03-19,22551.25,0.0,22551.25,0,
2021-03-21,22551.25,0.0,22551.25,0,
2021-03-22,22551.25,0.0,22551.25,0,
2021-03-23,22551.25,0.0,22551.25,0,
2021-03-24,22551.25,0.0,22551.25,0,
2021-03-25,22551.25,0.0,22551.25,0,
2021-03-26,22551.25,0.0,22551.25,0,
2021-03-28,22551.25,0.0,22551.25,0,
2021-03-29,22551.25,0.0,22551.25,0,
2021-03-30,22551.25,0.0,22551.25,0,
2021-03-31,22551.25,0.0,22551.25,0,
2021-04-01,22551.25,0.0,22551.25,0,
2021-04-02,22551.25,0.0,22551.25,0,
2021-04-04,22551.25,0.0,22551.25,0,
2021-04-05,22551.25,0.0,22551.25,0,
2021-04-06,22551.25,-21.5,22529.75,1,Long
2021-04-07,22551.25,22.25,22573.5,1,Long
2021-04-08,22551.25,186.25,22737.5,1,Long
2021-04-09,22551.25,193.0,22744.25,1,Long
2021-04-11,22551.25,163.0,22714.25,1,Long
2021-04-12,22551.25,201.5,22752.75,1,Long
2021-04-13,22551.25,351.0,22902.25,1,Long
2021-04-14,22551.25,195.75,22747.0,1,Long
2021-04-15,22551.25,394.5,22945.75,1,Long
2021-04-16,22551.25,402.5,22953.75,2,Long
2021-04-18,22551.25,340.0,22891.25,2,Long
2021-04-19,22551.25,192.5,22743.75,2,Long
2021-04-20,22551.25,-150.0,22401.25,2,Long
2021-04-21,22551.25,124.5,22675.75,2,Long
2021-04-22,22551.25,-123.0,22428.25,2,Long
2021-04-23,22551.25,169.0,22720.25,2,Long
2021-04-25,22551.25,178.5,22729.75,2,Long
2021-04-26,22551.25,413.0,22964.25,2,Long
2021-04-27,22551.25,284.0,22835.25,2,Long
2021-04-28,22551.25,302.0,22853.25,2,Long
2021-04-29,22551.25,189.5,22740.75,2,Long
2021-04-30,22551.25,98.0,22649.25,3,Long
2021-05-02,22551.25,140.75,22692.0,3,Long
2021-05-03,22551.25,-191.5,22359.75,3,Long
2021-05-04,22551.25,-925.0,21626.25,3,Long
2021-05-05,22551.25,-997.75,21553.5,3,Long
2021-05-06,22551.25,-663.25,21888.0,3,Long
2021-05-07,22551.25,-346.75,22204.5,3,Long
2021-05-09,22551.25,-283.0,22268.25,3,Long
2021-05-10,22269.0,0.0,22269.0,0,
2021-05-11,22269.0,0.0,22269.0,0,
2021-05-12,22269.0,0.0,22269.0,0,
2021-05-13,22269.0,0.0,22269.0,0,
2021-05-14,22269.0,0.0,22269.0,0,
2021-05-16,22269.0,0.0,22269.0,0,
2021-05-17,22269.0,0.0,22269.0,0,
2021-05-18,22269.0,0.0,22269.0,0,
2021-05-19,22269.0,0.0,22269.0,0,
2021-05-20,22269.0,0.0,22269.0,0,
2021-05-21,22269.0,0.0,22269.0,0,
2021-05-23,22269.0,0.0,22269.0,0,
2021-05-24,22269.0,0.0,22269.0,0,
2021-05-25,22269.0,0.0,22269.0,0,
2021-05-26,22269.0,0.0,22269.0,0,
2021-05-27,22269.0,0.0,22269.0,0,
2021-05-28,22269.0,0.0,22269.0,0,
2021-05-30,22269.0,0.0,22269.0,0,
2021-05-31,22269.0,0.0,22269.0,0,
2021-06-01,22269.0,0.0,22269.0,0,
2021-06-02,22269.0,0.0,22269.0,0,
2021-06-03,22269.0,0.0,22269.0,0,
2021-06-04,22269.0,0.0,22269.0,0,
2021-06-06,22269.0,-4.5,22264.5,1,Long
2021-06-07,22269.0,50.75,22319.75,1,Long
2021-06-08,22269.0,45.0,22314.0,1,Long
2021-06-09,22269.0,43.0,22312.0,1,Long
2021-06-10,22269.0,195.75,22464.75,1,Long
2021-06-11,22269.0,212.75,22481.75,1,Long
2021-06-13,22269.0,237.5,22506.5,1,Long
2021-06-14,22269.0,334.25,22603.25,1,Long
2021-06-15,22269.0,259.25,22528.25,1,Long
2021-06-16,22269.0,114.5,22383.5,1,Long
2021-06-17,22269.0,403.5,22672.5,1,Long
2021-06-18,22269.0,201.5,22470.5,2,Long
2021-06-20,22269.0,242.0,22511.0,2,Long
2021-06-21,22269.0,435.5,22704.5,2,Long
2021-06-22,22269.0,710.5,22979.5,2,Long
2021-06-23,22269.0,738.0,23007.0,2,Long
2021-06-24,22269.0,858.5,23127.5,2,Long
2021-06-25,22269.0,828.0,23097.0,2,Long
2021-06-27,22269.0,875.0,23144.0,2,Long
2021-06-28,22269.0,1149.0,23418.0,2,Long
2021-06-29,22269.0,1341.0,23610.0,2,Long
2021-06-30,22269.0,1286.5,23555.5,2,Long
2021-07-01,22269.0,1231.5,23500.5,2,Long
2021-07-02,22269.0,1551.5,23820.5,3,Long
2021-07-04,22269.0,1593.5,23862.5,3,Long
2021-07-05,22269.0,1592.75,23861.75,3,Long
2021-07-06,22269.0,1744.25,24013.25,3,Long
2021-07-07,22269.0,1880.75,24149.75,3,Long
2021-07-08,22269.0,1526.0,23795.0,3,Long
2021-07-09,22269.0,1893.5,24162.5,3,Long
2021-07-11,22269.0,1938.5,24207.5,3,Long
2021-07-12,22269.0,2089.25,24358.25,3,Long
2021-07-13,22269.0,1985.0,24254.0,3,Long
2021-07-14,22269.0,2162.75,24431.75,3,Long
2021-07-15,22269.0,1721.0,23990.0,3,Long
2021-07-16,22269.0,1471.0,23740.0,4,Long
2021-07-18,22269.0,1361.0,23630.0,4,Long
2021-07-19,22269.0,1148.0,23417.0,4,Long
2021-07-20,22269.0,1762.0,24031.0,4,Long
2021-07-21,22269.0,2132.0,24401.0,4,Long
2021-07-22,22269.0,2673.0,24942.0,4,Long
2021-07-23,22269.0,3160.0,25429.0,4,Long
2021-07-25,22269.0,3274.0,25543.0,4,Long
2021-07-26,22269.0,3236.0,25505.0,4,Long
2021-07-27,22269.0,2471.0,24740.0,4,Long
2021-07-28,22269.0,2743.0,25012.0,4,Long
2021-07-29,22269.0,2270.0,24539.0,4,Long
2021-07-30,22269.0,2680.0,24949.0,5,Long
2021-08-01,22269.0,2852.5,25121.5,5,Long
2021-08-02,22269.0,2650.0,24919.0,5,Long
2021-08-03,22269.0,2998.75,25267.75,5,Long
2021-08-04,22269.0,3262.5,25531.5,5,Long
2021-08-05,22269.0,3646.25,25915.25,5,Long
2021-08-06,22269.0,3307.5,25576.5,5,Long
2021-08-08,22269.0,2953.75,25222.75,5,Long
2021-08-09,22269.0,3437.5,25706.5,5,Long
2021-08-10,22269.0,3021.25,25290.25,5,Long
2021-08-11,22269.0,2822.5,25091.5,5,Long
2021-08-12,22269.0,3182.5,25451.5,5,Long
2021-08-13,22269.0,3462.5,25731.5,5,Long
2021-08-15,22269.0,3413.75,25682.75,5,Long
2021-08-16,22269.0,3496.25,25765.25,5,Long
2021-08-17,22269.0,2628.75,24897.75,5,Long
2021-08-18,22269.0,2071.25,24340.25,5,Long
2021-08-19,22269.0,2427.5,24696.5,5,Long
2021-08-20,22269.0,3318.75,25587.75,5,Long
2021-08-22,22269.0,3380.0,25649.0,5,Long
2021-08-23,22269.0,4491.25,26760.25,5,Long
2021-08-24,22269.0,4632.5,26901.5,5,Long
2021-08-25,22269.0,4652.5,26921.5,5,Long
2021-08-26,22269.0,4235.0,26504.0,5,Long
2021-08-27,22269.0,4983.75,27252.75,5,Long
2021-08-29,22269.0,5106.25,27375.25,5,Long
2021-08-30,22269.0,5835.0,28104.0,5,Long
2021-08-31,22269.0,5828.75,28097.75,5,Long
2021-09-01,22269.0,5936.25,28205.25,5,Long
2021-09-02,22269.0,5828.75,28097.75,5,Long
2021-09-03,22269.0,6111.25,28380.25,5,Long
2021-09-05,22269.0,6095.0,28364.0,5,Long
2021-09-06,22269.0,6290.0,28559.0,5,Long
2021-09-07,22269.0,6153.75,28422.75,5,Long
2021-09-08,22269.0,5843.75,28112.75,5,Long
2021-09-09,22269.0,5663.75,27932.75,5,Long
2021-09-10,22269.0,5032.5,27301.5,5,Long
2021-09-12,22269.0,5266.25,27535.25,5,Long
2021-09-13,22269.0,5070.0,27339.0,5,Long
2021-09-14,22269.0,4878.75,27147.75,5,Long
2021-09-15,22269.0,5352.5,27621.5,5,Long
2021-09-16,22269.0,5251.25,27520.25,5,Long
2021-09-17,27520.25,0.0,27520.25,0,
2021-09-19,27520.25,0.0,27520.25,0,
2021-09-20,27520.25,0.0,27520.25,0,
2021-09-21,27520.25,0.0,27520.25,0,
2021-09-22,27520.25,0.0,27520.25,0,
2021-09-23,27520.25,0.0,27520.25,0,
2021-09-24,27520.25,0.0,27520.25,0,
2021-09-26,27520.25,0.0,27520.25,0,
2021-09-27,27520.25,0.0,27520.25,0,
2021-09-28,27520.25,0.0,27520.25,0,
2021-09-29,27520.25,0.0,27520.25,0,
2021-09-30,27520.25,0.0,27520.25,0,
2021-10-01,27520.25,0.0,27520.25,0,
2021-10-03,27520.25,0.0,27520.25,0,
2021-10-04,27520.25,0.0,27520.25,0,
2021-10-05,27520.25,0.0,27520.25,0,
2021-10-06,27520.25,0.0,27520.25,0,
2021-10-07,27520.25,0.0,27520.25,0,
2021-10-08,27520.25,0.0,27520.25,0,
2021-10-10,27520.25,0.0,27520.25,0,
2021-10-11,27520.25,0.0,27520.25,0,
2021-10-12,27520.25,0.0,27520.25,0,
2021-10-13,27520.25,0.0,27520.25,0,
2021-10-14,27520.25,0.0,27520.25,0,
2021-10-15,27520.25,0.0,27520.25,0,
2021-10-17,27520.25,0.0,27520.25,0,
2021-10-18,27520.25,0.0,27520.25,0,
2021-10-19,27520.25,117.0,27637.25,1,Long
2021-10-20,27520.25,43.0,27563.25,1,Long
2021-10-21,27520.25,99.5,27619.75,1,Long
2021-10-22,27520.25,31.75,27552.0,1,Long
2021-10-24,27520.25,14.0,27534.25,1,Long
2021-10-25,27520.25,246.75,27767.0,1,Long
2021-10-26,27520.25,267.75,27788.0,1,Long
2021-10-27,27520.25,334.0,27854.25,1,Long
2021-10-28,27520.25,380.0,27900.25,1,Long
2021-10-29,27520.25,644.5,28164.75,2,Long
2021-10-31,27520.25,667.5,28187.75,2,Long
2021-11-01,27520.25,659.0,28179.25,2,Long
2021-11-02,27520.25,792.0,28312.25,2,Long
2021-11-03,27520.25,1278.5,28798.75,2,Long
2021-11-04,27520.25,1587.0,29107.25,2,Long
2021-11-05,27520.25,1593.0,29113.25,2,Long
2021-11-07,27520.25,1531.0,29051.25,2,Long
2021-11-08,27520.25,1528.0,29048.25,2,Long
2021-11-09,27520.25,1278.0,28798.25,2,Long
2021-11-10,27520.25,887.5,28407.75,2,Long
2021-11-11,27520.25,1035.5,28555.75,2,Long
2021-11-12,27520.25,1330.5,28850.75,3,Long
2021-11-14,27520.25,1404.0,28924.25,3,Long
2021-11-15,27520.25,1294.5,28814.75,3,Long
2021-11-16,27520.25,1641.0,29161.25,3,Long
2021-11-17,27520.25,1713.75,29234.0,3,Long
2021-11-18,27520.25,2213.25,29733.5,3,Long
2021-11-19,27520.25,2490.0,30010.25,3,Long
2021-11-21,27520.25,2491.5,30011.75,3,Long
2021-11-22,27520.25,1915.5,29435.75,3,Long
2021-11-23,27520.25,1584.75,29105.0,3,Long
2021-11-24,27520.25,1798.5,29318.75,3,Long
2021-11-25,27520.25,1838.25,29358.5,3,Long
2021-11-26,29356.25,0.0,29356.25,0,
2021-11-28,29356.25,0.0,29356.25,0,
2021-11-29,29356.25,0.0,29356.25,0,
2021-11-30,29356.25,0.0,29356.25,0,
2021-12-01,29356.25,0.0,29356.25,0,
2021-12-02,29356.25,0.0,29356.25,0,
2021-12-03,29356.25,0.0,29356.25,0,
2021-12-05,29356.25,0.0,29356.25,0,
2021-12-06,29356.25,0.0,29356.25,0,
2021-12-07,29356.25,0.0,29356.25,0,
2021-12-08,29356.25,0.0,29356.25,0,
2021-12-09,29356.25,0.0,29356.25,0,
2021-12-10,29356.25,0.0,29356.25,0,
2021-12-12,29356.25,0.0,29356.25,0,
2021-12-13,29356.25,0.0,29356.25,0,
2021-12-14,29356.25,0.0,29356.25,0,
2021-12-15,29356.25,0.0,29356.25,0,
2021-12-16,29356.25,0.0,29356.25,0,
2021-12-17,29356.25,0.0,29356.25,0,
2021-12-19,29356.25,0.0,29356.25,0,
2021-12-20,29356.25,0.0,29356.25,0,
2021-12-21,29356.25,0.0,29356.25,0,
2021-12-22,29356.25,0.0,29356.25,0,
2021-12-23,29356.25,0.0,29356.25,0,
2021-12-26,29356.25,0.0,29356.25,0,
2021-12-27,29356.25,0.0,29356.25,0,
2021-12-28,29356.25,-15.75,29340.5,1,Long
2021-12-29,29356.25,-91.75,29264.5,1,Long
2021-12-30,29264.0,0.0,29264.0,0,
2021-12-31,29264.0,0.0,29264.0,0,
2022-01-02,29264.0,0.0,29264.0,0,
2022-01-03,29264.0,0.0,29264.0,0,
2022-01-04,29264.0,0.0,29264.0,0,
2022-01-05,29264.0,0.0,29264.0,0,
2022-01-06,29264.0,0.0,29264.0,0,
2022-01-07,29264.0,0.0,29264.0,0,
2022-01-09,29264.0,0.0,29264.0,0,
2022-01-10,29264.0,0.0,29264.0,0,
2022-01-11,29264.0,0.0,29264.0,0,
2022-01-12,29264.0,0.0,29264.0,0,
2022-01-13,29264.0,0.0,29264.0,0,
2022-01-14,29264.0,0.0,29264.0,0,
2022-01-16,29264.0,0.0,29264.0,0,
2022-01-17,29264.0,0.0,29264.0,0,
2022-01-18,29264.0,0.0,29264.0,0,
2022-01-19,29264.0,0.0,29264.0,0,
2022-01-20,29264.0,0.0,29264.0,0,
2022-01-21,29264.0,0.0,29264.0,0,
2022-01-23,29264.0,0.0,29264.0,0,
2022-01-24,29264.0,0.0,29264.0,0,
2022-01-25,29264.0,0.0,29264.0,0,
2022-01-26,29264.0,0.0,29264.0,0,
2022-01-27,29264.0,0.0,29264.0,0,
2022-01-28,29264.0,0.0,29264.0,0,
2022-01-30,29264.0,0.0,29264.0,0,
2022-01-31,29264.0,0.0,29264.0,0,
2022-02-01,29264.0,0.0,29264.0,0,
2022-02-02,29264.0,0.0,29264.0,0,
2022-02-03,29264.0,0.0,29264.0,0,
2022-02-04,29264.0,0.0,29264.0,0,
2022-02-06,29264.0,0.0,29264.0,0,
2022-02-07,29264.0,0.0,29264.0,0,
2022-02-08,29264.0,0.0,29264.0,0,
2022-02-09,29264.0,0.0,29264.0,0,
2022-02-10,29264.0,0.0,29264.0,0,
2022-02-11,29264.0,0.0,29264.0,0,
2022-02-13,29264.0,0.0,29264.0,0,
2022-02-14,29264.0,0.0,29264.0,0,
2022-02-15,29264.0,0.0,29264.0,0,
2022-02-16,29264.0,0.0,29264.0,0,
2022-02-17,29264.0,0.0,29264.0,0,
2022-02-18,29264.0,0.0,29264.0,0,
2022-02-20,29264.0,0.0,29264.0,0,
2022-02-21,29264.0,0.0,29264.0,0,
2022-02-22,29264.0,0.0,29264.0,0,
2022-02-23,29264.0,0.0,29264.0,0,
2022-02-24,29264.0,0.0,29264.0,0,
2022-02-25,29264.0,0.0,29264.0,0,
2022-02-27,29264.0,0.0,29264.0,0,
2022-02-28,29264.0,0.0,29264.0,0,
2022-03-01,29264.0,0.0,29264.0,0,
2022-03-02,29264.0,0.0,29264.0,0,
2022-03-03,29264.0,0.0,29264.0,0,
2022-03-04,29264.0,0.0,29264.0,0,
2022-03-06,29264.0,0.0,29264.0,0,
2022-03-07,29264.0,0.0,29264.0,0,
2022-03-08,29264.0,0.0,29264.0,0,
2022-03-09,29264.0,0.0,29264.0,0,
2022-03-10,29264.0,0.0,29264.0,0,
2022-03-11,29264.0,0.0,29264.0,0,
2022-03-13,29264.0,0.0,29264.0,0,
2022-03-14,29264.0,0.0,29264.0,0,
2022-03-15,29264.0,0.0,29264.0,0,
2022-03-16,29264.0,0.0,29264.0,0,
2022-03-17,29264.0,0.0,29264.0,0,
2022-03-18,29264.0,0.0,29264.0,0,
2022-03-20,29264.0,0.0,29264.0,0,
2022-03-21,29264.0,0.0,29264.0,0,
2022-03-22,29264.0,0.0,29264.0,0,
2022-03-23,29264.0,-192.0,29072.0,1,Long
2022-03-24,29072.5,0.0,29072.5,0,
2022-03-25,29072.5,0.0,29072.5,0,
2022-03-27,29072.5,0.0,29072.5,0,
2022-03-28,29072.5,0.0,29072.5,0,
2022-03-29,29072.5,0.0,29072.5,0,
2022-03-30,29072.5,0.0,29072.5,0,
2022-03-31,29072.5,0.0,29072.5,0,
2022-04-01,29072.5,75.25,29147.75,1,Long
2022-04-03,29072.5,40.75,29113.25,1,Long
2022-04-04,29072.5,374.0,29446.5,1,Long
2022-04-05,29072.5,56.75,29129.25,1,Long
2022-04-06,29072.5,-329.5,28743.0,1,Long
2022-04-07,28742.75,0.0,28742.75,0,
2022-04-08,28742.75,0.0,28742.75,0,
2022-04-10,28742.75,0.0,28742.75,0,
2022-04-11,28742.75,0.0,28742.75,0,
2022-04-12,28742.75,0.0,28742.75,0,
2022-04-13,28742.75,0.0,28742.75,0,
2022-04-14,28742.75,0.0,28742.75,0,
2022-04-17,28742.75,0.0,28742.75,0,
2022-04-18,28742.75,0.0,28742.75,0,
2022-04-19,28742.75,0.0,28742.75,0,
2022-04-20,28742.75,0.0,28742.75,0,
2022-04-21,28742.75,0.0,28742.75,0,
2022-04-22,28742.75,0.0,28742.75,0,
2022-04-24,28742.75,0.0,28742.75,0,
2022-04-25,28742.75,0.0,28742.75,0,
2022-04-26,28742.75,0.0,28742.75,0,
2022-04-27,28742.75,0.0,28742.75,0,
2022-04-28,28742.75,0.0,28742.75,0,
2022-04-29,28742.75,0.0,28742.75,0,
2022-05-01,28742.75,0.0,28742.75,0,
2022-05-02,28742.75,0.0,28742.75,0,
2022-05-03,28742.75,0.0,28742.75,0,
2022-05-04,28742.75,0.0,28742.75,0,
2022-05-05,28742.75,0.0,28742.75,0,
2022-05-06,28742.75,0.0,28742.75,0,
2022-05-08,28742.75,0.0,28742.75,0,
2022-05-09,28742.75,0.0,28742.75,0,
2022-05-10,28742.75,0.0,28742.75,0,
2022-05-11,28742.75,0.0,28742.75,0,
2022-05-12,28742.75,0.0,28742.75,0,
2022-05-13,28742.75,0.0,28742.75,0,
2022-05-15,28742.75,0.0,28742.75,0,
2022-05-16,28742.75,0.0,28742.75,0,
2022-05-17,28742.75,0.0,28742.75,0,
2022-05-18,28742.75,0.0,28742.75,0,
2022-05-19,28742.75,0.0,28742.75,0,
2022-05-20,28742.75,0.0,28742.75,0,
2022-05-22,28742.75,0.0,28742.75,0,
2022-05-23,28742.75,0.0,28742.75,0,
2022-05-24,28742.75,0.0,28742.75,0,
2022-05-25,28742.75,0.0,28742.75,0,
2022-05-26,28742.75,0.0,28742.75,0,
2022-05-27,28742.75,0.0,28742.75,0,
2022-05-29,28742.75,0.0,28742.75,0,
2022-05-30,28742.75,0.0,28742.75,0,
2022-05-31,28742.75,0.0,28742.75,0,
2022-06-01,28742.75,0.0,28742.75,0,
2022-06-02,28742.75,0.0,28742.75,0,
2022-06-03,28742.75,-371.5,28371.25,1,Long
2022-06-05,28369.25,0.0,28369.25,0,
2022-06-06,28369.25,0.0,28369.25,0,
2022-06-07,28369.25,0.0,28369.25,0,
2022-06-08,28369.25,0.0,28369.25,0,
2022-06-09,28369.25,0.0,28369.25,0,
2022-06-10,28369.25,0.0,28369.25,0,
2022-06-12,28369.25,0.0,28369.25,0,
2022-06-13,28369.25,0.0,28369.25,0,
2022-06-14,28369.25,0.0,28369.25,0,
2022-06-15,28369.25,0.0,28369.25,0,
2022-06-16,28369.25,0.0,28369.25,0,
2022-06-17,28369.25,0.0,28369.25,0,
2022-06-19,28369.25,0.0,28369.25,0,
2022-06-20,28369.25,0.0,28369.25,0,
2022-06-21,28369.25,0.0,28369.25,0,
2022-06-22,28369.25,0.0,28369.25,0,
2022-06-23,28369.25,0.0,28369.25,0,
2022-06-24,28369.25,0.0,28369.25,0,
2022-06-26,28369.25,0.0,28369.25,0,
2022-06-27,28369.25,0.0,28369.25,0,
2022-06-28,28369.25,0.0,28369.25,0,
2022-06-29,28369.25,0.0,28369.25,0,
2022-06-30,28369.25,0.0,28369.25,0,
2022-07-01,28369.25,0.0,28369.25,0,
2022-07-03,28369.25,0.0,28369.25,0,
2022-07-04,28369.25,0.0,28369.25,0,
2022-07-05,28369.25,0.0,28369.25,0,
2022-07-06,28369.25,0.0,28369.25,0,
2022-07-07,28369.25,0.0,28369.25,0,
2022-07-08,28369.25,0.0,28369.25,0,
2022-07-10,28369.25,0.0,28369.25,0,
2022-07-11,28369.25,0.0,28369.25,0,
2022-07-12,28369.25,0.0,28369.25,0,
2022-07-13,28369.25,0.0,28369.25,0,
2022-07-14,28369.25,0.0,28369.25,0,
2022-07-15,28369.25,0.0,28369.25,0,
2022-07-17,28369.25,0.0,28369.25,0,
2022-07-18,28369.25,0.0,28369.25,0,
2022-07-19,28369.25,0.0,28369.25,0,
2022-07-20,28369.25,0.0,28369.25,0,
2022-07-21,28369.25,112.25,28481.5,1,Long
2022-07-22,28369.25,-8.5,28360.75,1,Long
2022-07-24,28369.25,-32.5,28336.75,1,Long
2022-07-25,28369.25,-137.25,28232.0,1,Long
2022-07-26,28232.25,0.0,28232.25,0,
2022-07-27,28232.25,0.0,28232.25,0,
2022-07-28,28232.25,0.0,28232.25,0,
2022-07-29,28232.25,0.0,28232.25,0,
2022-07-31,28232.25,0.0,28232.25,0,
2022-08-01,28232.25,0.0,28232.25,0,
2022-08-02,28232.25,0.0,28232.25,0,
2022-08-03,28232.25,0.0,28232.25,0,
2022-08-04,28232.25,0.0,28232.25,0,
2022-08-05,28232.25,-5.75,28226.5,1,Long
2022-08-07,28232.25,-42.75,28189.5,1,Long
2022-08-08,28232.25,0.25,28232.5,1,Long
2022-08-09,28232.25,-167.75,28064.5,1,Long
2022-08-10,28232.25,178.5,28410.75,1,Long
2022-08-11,28232.25,115.25,28347.5,1,Long
2022-08-12,28232.25,360.0,28592.25,1,Long
2022-08-14,28232.25,319.75,28552.0,1,Long
2022-08-15,28232.25,460.75,28693.0,1,Long
2022-08-16,28232.25,431.5,28663.75,1,Long
2022-08-17,28232.25,235.0,28467.25,1,Long
2022-08-18,28232.25,306.75,28539.0,1,Long
2022-08-19,28232.25,12.25,28244.5,2,Long
2022-08-21,28232.25,-112.25,28120.0,2,Long
2022-08-22,28232.25,-575.75,27656.5,2,Long
2022-08-23,28232.25,-696.25,27536.0,2,Long
2022-08-24,28232.25,-618.25,27614.0,2,Long
2022-08-25,28232.25,-198.25,28034.0,2,Long
2022-08-26,28035.0,0.0,28035.0,0,
2022-08-28,28035.0,0.0,28035.0,0,
2022-08-29,28035.0,0.0,28035.0,0,
2022-08-30,28035.0,0.0,28035.0,0,
2022-08-31,28035.0,0.0,28035.0,0,
2022-09-01,28035.0,0.0,28035.0,0,
2022-09-02,28035.0,0.0,28035.0,0,
2022-09-04,28035.0,0.0,28035.0,0,
2022-09-05,28035.0,0.0,28035.0,0,
2022-09-06,28035.0,0.0,28035.0,0,
2022-09-07,28035.0,0.0,28035.0,0,
2022-09-08,28035.0,0.0,28035.0,0,
2022-09-09,28035.0,0.0,28035.0,0,
2022-09-11,28035.0,0.0,28035.0,0,
2022-09-12,28035.0,0.0,28035.0,0,
2022-09-13,28035.0,0.0,28035.0,0,
2022-09-14,28035.0,0.0,28035.0,0,
2022-09-15,28035.0,0.0,28035.0,0,
2022-09-16,28035.0,0.0,28035.0,0,
2022-09-18,28035.0,0.0,28035.0,0,
2022-09-19,28035.0,0.0,28035.0,0,
2022-09-20,28035.0,0.0,28035.0,0,
2022-09-21,28035.0,0.0,28035.0,0,
2022-09-22,28035.0,0.0,28035.0,0,
2022-09-23,28035.0,0.0,28035.0,0,
2022-09-25,28035.0,0.0,28035.0,0,
2022-09-26,28035.0,0.0,28035.0,0,
2022-09-27,28035.0,0.0,28035.0,0,
2022-09-28,28035.0,0.0,28035.0,0,
2022-09-29,28035.0,0.0,28035.0,0,
2022-09-30,28035.0,0.0,28035.0,0,
2022-10-02,28035.0,0.0,28035.0,0,
2022-10-03,28035.0,0.0,28035.0,0,
2022-10-04,28035.0,0.0,28035.0,0,
2022-10-05,28035.0,0.0,28035.0,0,
2022-10-06,28035.0,0.0,28035.0,0,
2022-10-07,28035.0,0.0,28035.0,0,
2022-10-09,28035.0,0.0,28035.0,0,
2022-10-10,28035.0,0.0,28035.0,0,
2022-10-11,28035.0,0.0,28035.0,0,
2022-10-12,28035.0,0.0,28035.0,0,
2022-10-13,28035.0,0.0,28035.0,0,
2022-10-14,28035.0,0.0,28035.0,0,
2022-10-16,28035.0,0.0,28035.0,0,
2022-10-17,28035.0,0.0,28035.0,0,
2022-10-18,28035.0,0.0,28035.0,0,
2022-10-19,28035.0,0.0,28035.0,0,
2022-10-20,28035.0,0.0,28035.0,0,
2022-10-21,28035.0,0.0,28035.0,0,
2022-10-23,28035.0,0.0,28035.0,0,
2022-10-24,28035.0,0.0,28035.0,0,
2022-10-25,28035.0,0.0,28035.0,0,
2022-10-26,28035.0,0.0,28035.0,0,
2022-10-27,28035.0,0.0,28035.0,0,
2022-10-28,28035.0,0.0,28035.0,0,
2022-10-30,28035.0,0.0,28035.0,0,
2022-10-31,28035.0,0.0,28035.0,0,
2022-11-01,28035.0,0.0,28035.0,0,
2022-11-02,28035.0,0.0,28035.0,0,
2022-11-03,28035.0,0.0,28035.0,0,
2022-11-04,28035.0,0.0,28035.0,0,
2022-11-06,28035.0,0.0,28035.0,0,
2022-11-07,28035.0,0.0,28035.0,0,
2022-11-08,28035.0,0.0,28035.0,0,
2022-11-09,28035.0,0.0,28035.0,0,
2022-11-10,28035.0,0.0,28035.0,0,
2022-11-11,28035.0,0.0,28035.0,0,
2022-11-13,28035.0,15.25,28050.25,1,Long
2022-11-14,28035.0,-29.0,28006.0,1,Long
2022-11-15,28035.0,102.75,28137.75,1,Long
2022-11-16,28035.0,-16.0,28019.0,1,Long
2022-11-17,28035.0,-76.25,27958.75,1,Long
2022-11-18,28035.0,-86.5,27948.5,1,Long
2022-11-20,27959.0,0.0,27959.0,0,
2022-11-21,27959.0,0.0,27959.0,0,
2022-11-22,27959.0,0.0,27959.0,0,
2022-11-23,27959.0,0.0,27959.0,0,
2022-11-24,27959.0,0.0,27959.0,0,
2022-11-25,27959.0,0.0,27959.0,0,
2022-11-27,27959.0,0.0,27959.0,0,
2022-11-28,27959.0,0.0,27959.0,0,
2022-11-29,27959.0,0.0,27959.0,0,
2022-11-30,27959.0,0.0,27959.0,0,
2022-12-01,27959.0,0.0,27959.0,0,
2022-12-02,27959.0,2.0,27961.0,1,Long
2022-12-04,27959.0,23.75,27982.75,1,Long
2022-12-05,27959.0,-158.5,27800.5,1,Long
2022-12-06,27959.0,-399.5,27559.5,1,Long
2022-12-07,27560.0,0.0,27560.0,0,
2022-12-08,27560.0,0.0,27560.0,0,
2022-12-09,27560.0,0.0,27560.0,0,
2022-12-11,27560.0,0.0,27560.0,0,
2022-12-12,27560.0,0.0,27560.0,0,
2022-12-13,27560.0,0.0,27560.0,0,
2022-12-14,27560.0,0.0,27560.0,0,
2022-12-15,27560.0,0.0,27560.0,0,
2022-12-16,27560.0,0.0,27560.0,0,
2022-12-18,27560.0,0.0,27560.0,0,
2022-12-19,27560.0,0.0,27560.0,0,
2022-12-20,27560.0,0.0,27560.0,0,
2022-12-21,27560.0,0.0,27560.0,0,
2022-12-22,27560.0,0.0,27560.0,0,
2022-12-23,27560.0,0.0,27560.0,0,
2022-12-26,27560.0,0.0,27560.0,0,
2022-12-27,27560.0,0.0,27560.0,0,
2022-12-28,27560.0,0.0,27560.0,0,
2022-12-29,27560.0,0.0,27560.0,0,
2022-12-30,27560.0,0.0,27560.0,0,
2023-01-02,27560.0,0.0,27560.0,0,
2023-01-03,27560.0,0.0,27560.0,0,
2023-01-04,27560.0,0.0,27560.0,0,
2023-01-05,27560.0,0.0,27560.0,0,
2023-01-06,27560.0,0.0,27560.0,0,
2023-01-08,27560.0,0.0,27560.0,0,
2023-01-09,27560.0,0.0,27560.0,0,
2023-01-10,27560.0,0.0,27560.0,0,
2023-01-11,27560.0,0.0,27560.0,0,
2023-01-12,27560.0,0.0,27560.0,0,
2023-01-13,27560.0,0.0,27560.0,0,
2023-01-15,27560.0,0.0,27560.0,0,
2023-01-16,27560.0,0.0,27560.0,0,
2023-01-17,27560.0,0.0,27560.0,0,
2023-01-18,27560.0,0.0,27560.0,0,
2023-01-19,27560.0,0.0,27560.0,0,
2023-01-20,27560.0,0.0,27560.0,0,
2023-01-22,27560.0,-19.5,27540.5,1,Long
2023-01-23,27560.0,240.75,27800.75,1,Long
2023-01-24,27560.0,162.25,27722.25,1,Long
2023-01-25,27560.0,229.5,27789.5,1,Long
2023-01-26,27560.0,362.0,27922.0,1,Long
2023-01-27,27560.0,542.0,28102.0,1,Long
2023-01-29,27560.0,527.75,28087.75,1,Long
2023-01-30,27560.0,324.5,27884.5,1,Long
2023-01-31,27560.0,425.5,27985.5,1,Long
2023-02-01,27560.0,867.5,28427.5,1,Long
2023-02-02,27560.0,985.75,28545.75,1,Long
2023-02-03,27560.0,947.0,28507.0,2,Long
2023-02-05,27560.0,895.5,28455.5,2,Long
2023-02-06,27560.0,786.0,28346.0,2,Long
2023-02-07,27560.0,1214.0,28774.0,2,Long
2023-02-08,27560.0,836.0,28396.0,2,Long
2023-02-09,27560.0,583.5,28143.5,2,Long
2023-02-10,27560.0,387.0,27947.0,2,Long
2023-02-12,27560.0,327.5,27887.5,2,Long
2023-02-13,27560.0,791.5,28351.5,2,Long
2023-02-14,27560.0,929.5,28489.5,2,Long
2023-02-15,27560.0,1207.0,28767.0,2,Long
2023-02-16,27560.0,569.0,28129.0,2,Long
2023-02-17,27560.0,495.0,28055.0,3,Long
2023-02-19,27560.0,423.75,27983.75,3,Long
2023-02-20,27560.0,481.5,28041.5,3,Long
2023-02-21,27560.0,-312.0,27248.0,3,Long
2023-02-22,27560.0,-152.25,27407.75,3,Long
2023-02-23,27560.0,-133.5,27426.5,3,Long
2023-02-24,27560.0,-658.5,26901.5,3,Long
2023-02-26,27560.0,-603.0,26957.0,3,Long
2023-02-27,27560.0,-375.0,27185.0,3,Long
2023-02-28,27560.0,-588.75,26971.25,3,Long
2023-03-01,27560.0,-741.0,26819.0,3,Long
2023-03-02,27560.0,-543.75,27016.25,3,Long
2023-03-03,27560.0,354.5,27914.5,4,Long
2023-03-05,27560.0,217.5,27777.5,4,Long
2023-03-06,27560.0,370.5,27930.5,4,Long
2023-03-07,27560.0,-245.5,27314.5,4,Long
2023-03-08,27560.0,-51.5,27508.5,4,Long
2023-03-09,27560.0,-1008.5,26551.5,4,Long
2023-03-10,26551.5,0.0,26551.5,0,
2023-03-12,26551.5,0.0,26551.5,0,
2023-03-13,26551.5,0.0,26551.5,0,
2023-03-14,26551.5,0.0,26551.5,0,
2023-03-15,26551.5,0.0,26551.5,0,
2023-03-16,26551.5,0.0,26551.5,0,
2023-03-17,26551.5,-73.25,26478.25,1,Long
2023-03-19,26551.5,-17.0,26534.5,1,Long
2023-03-20,26551.5,-30.0,26521.5,1,Long
2023-03-21,26551.5,145.5,26697.0,1,Long
2023-03-22,26551.5,-4.25,26547.25,1,Long
2023-03-23,26551.5,142.0,26693.5,1,Long
2023-03-24,26551.5,201.25,26752.75,1,Long
2023-03-26,26551.5,224.75,26776.25,1,Long
2023-03-27,26551.5,99.5,26651.0,1,Long
2023-03-28,26551.5,36.5,26588.0,1,Long
2023-03-29,26551.5,220.0,26771.5,1,Long
2023-03-30,26551.5,373.0,26924.5,1,Long
2023-03-31,26551.5,628.25,27179.75,2,Long
2023-04-02,26551.5,491.25,27042.75,2,Long
2023-04-03,26551.5,505.25,27056.75,2,Long
2023-04-04,26551.5,492.75,27044.25,2,Long
2023-04-05,26551.5,125.25,26676.75,2,Long
2023-04-06,26551.5,330.25,26881.75,2,Long
2023-04-07,26551.5,372.75,26924.25,2,Long
2023-04-09,26551.5,323.75,26875.25,2,Long
2023-04-10,26551.5,355.75,26907.25,2,Long
2023-04-11,26551.5,190.25,26741.75,2,Long
2023-04-12,26551.5,-125.75,26425.75,2,Long
2023-04-13,26551.5,394.75,26946.25,2,Long
2023-04-14,26551.5,427.0,26978.5,3,Long
2023-04-16,26551.5,388.75,26940.25,3,Long
2023-04-17,26551.5,365.5,26917.0,3,Long
2023-04-18,26551.5,354.25,26905.75,3,Long
2023-04-19,26551.5,213.25,26764.75,3,Long
2023-04-20,26551.5,76.0,26627.5,3,Long
2023-04-21,26551.5,55.0,26606.5,3,Long
2023-04-23,26551.5,34.0,26585.5,3,Long
2023-04-24,26551.5,-22.25,26529.25,3,Long
2023-04-25,26551.5,-290.75,26260.75,3,Long
2023-04-26,26551.5,-299.75,26251.75,3,Long
2023-04-27,26551.5,460.0,27011.5,3,Long
2023-04-28,26551.5,846.5,27398.0,4,Long
2023-04-30,26551.5,767.5,27319.0,4,Long
2023-05-01,26551.5,681.5,27233.0,4,Long
2023-05-02,26551.5,267.5,26819.0,4,Long
2023-05-03,26551.5,-70.5,26481.0,4,Long
2023-05-04,26551.5,-86.5,26465.0,4,Long
2023-05-05,26551.5,780.5,27332.0,4,Long
2023-05-07,26551.5,755.5,27307.0,4,Long
2023-05-08,26551.5,886.5,27438.0,4,Long
2023-05-09,26551.5,640.5,27192.0,4,Long
2023-05-10,26551.5,1225.5,27777.0,4,Long
2023-05-11,26551.5,1357.5,27909.0,4,Long
2023-05-12,26551.5,1005.75,27557.25,5,Long
2023-05-14,26551.5,989.5,27541.0,5,Long
2023-05-15,26551.5,1449.5,28001.0,5,Long
2023-05-16,26551.5,1655.75,28207.25,5,Long
2023-05-17,26551.5,2374.5,28926.0,5,Long
2023-05-18,26551.5,3805.75,30357.25,5,Long
2023-05-19,26551.5,3365.75,29917.25,5,Long
2023-05-21,26551.5,3427.0,29978.5,5,Long
2023-05-22,26551.5,3874.5,30426.0,5,Long
2023-05-23,26551.5,2900.75,29452.25,5,Long
2023-05-24,26551.5,3394.5,29946.0,5,Long
2023-05-25,26551.5,3984.5,30536.0,5,Long
2023-05-26,26551.5,6014.5,32566.0,5,Long
2023-05-28,26551.5,6242.0,32793.5,5,Long
2023-05-29,26551.5,6089.5,32641.0,5,Long
2023-05-30,26551.5,6268.25,32819.75,5,Long
2023-05-31,26551.5,5709.5,32261.0,5,Long
2023-06-01,26551.5,6575.75,33127.25,5,Long
2023-06-02,26551.5,7092.0,33643.5,5,Long
2023-06-04,26551.5,6842.0,33393.5,5,Long
2023-06-05,26551.5,6988.25,33539.75,5,Long
2023-06-06,26551.5,7134.5,33686.0,5,Long
2023-06-07,26551.5,5810.75,32362.25,5,Long
2023-06-08,26551.5,6659.5,33211.0,5,Long
2023-06-09,26551.5,6974.5,33526.0,5,Long
2023-06-11,26551.5,7115.75,33667.25,5,Long
2023-06-12,26551.5,9173.25,35724.75,5,Long
2023-06-13,26551.5,9685.75,36237.25,5,Long
2023-06-14,26551.5,10230.75,36782.25,5,Long
2023-06-15,26551.5,10955.75,37507.25,5,Long
2023-06-16,26551.5,10665.75,37217.25,5,Long
2023-06-18,26551.5,10674.5,37226.0,5,Long
2023-06-19,26551.5,10402.0,36953.5,5,Long
2023-06-20,26551.5,10468.25,37019.75,5,Long
2023-06-21,26551.5,9363.25,35914.75,5,Long
2023-06-22,26551.5,10267.0,36818.5,5,Long
2023-06-23,26551.5,9435.75,35987.25,5,Long
2023-06-25,26551.5,9662.0,36213.5,5,Long
2023-06-26,26551.5,8623.25,35174.75,5,Long
2023-06-27,26551.5,9454.5,36006.0,5,Long
2023-06-28,26551.5,10019.5,36571.0,5,Long
2023-06-29,26551.5,9742.0,36293.5,5,Long
2023-06-30,26551.5,10745.75,37297.25,5,Long
2023-07-02,26551.5,10913.25,37464.75,5,Long
2023-07-03,26551.5,10847.0,37398.5,5,Long
2023-07-04,26551.5,10860.75,37412.25,5,Long
2023-07-05,26551.5,10948.25,37499.75,5,Long
2023-07-06,26551.5,10290.75,36842.25,5,Long
2023-07-07,26551.5,10117.0,36668.5,5,Long
2023-07-09,26551.5,10063.25,36614.75,5,Long
2023-07-10,26551.5,10120.75,36672.25,5,Long
2023-07-11,26551.5,10482.0,37033.5,5,Long
2023-07-12,26551.5,11518.25,38069.75,5,Long
2023-07-13,26551.5,12720.75,39272.25,5,Long
2023-07-14,26551.5,12620.75,39172.25,5,Long
2023-07-16,26551.5,12493.25,39044.75,5,Long
2023-07-17,26551.5,13249.5,39801.0,5,Long
2023-07-18,26551.5,13964.5,40516.0,5,Long
2023-07-19,26551.5,13443.25,39994.75,5,Long
2023-07-20,26551.5,12058.25,38609.75,5,Long
2023-07-21,26551.5,11933.25,38484.75,5,Long
2023-07-23,26551.5,11904.5,38456.0,5,Long
2023-07-24,26551.5,11995.75,38547.25,5,Long
2023-07-25,26551.5,12347.0,38898.5,5,Long
2023-07-26,26551.5,12424.5,38976.0,5,Long
2023-07-27,26551.5,12090.75,38642.25,5,Long
2023-07-28,26551.5,13385.75,39937.25,5,Long
2023-07-30,26551.5,13594.5,40146.0,5,Long
2023-07-31,26551.5,13459.5,40011.0,5,Long
2023-08-01,26551.5,12923.25,39474.75,5,Long
2023-08-02,26551.5,11618.25,38169.75,5,Long
2023-08-03,26551.5,11564.5,38116.0,5,Long
2023-08-04,38114.75,0.0,38114.75,0,
2023-08-06,38114.75,0.0,38114.75,0,
2023-08-07,38114.75,0.0,38114.75,0,
2023-08-08,38114.75,0.0,38114.75,0,
2023-08-09,38114.75,0.0,38114.75,0,
2023-08-10,38114.75,0.0,38114.75,0,
2023-08-11,38114.75,0.0,38114.75,0,
2023-08-13,38114.75,0.0,38114.75,0,
2023-08-14,38114.75,0.0,38114.75,0,
2023-08-15,38114.75,0.0,38114.75,0,
2023-08-16,38114.75,0.0,38114.75,0,
2023-08-17,38114.75,0.0,38114.75,0,
2023-08-18,38114.75,0.0,38114.75,0,
2023-08-20,38114.75,0.0,38114.75,0,
2023-08-21,38114.75,0.0,38114.75,0,
2023-08-22,38114.75,0.0,38114.75,0,
2023-08-23,38114.75,0.0,38114.75,0,
2023-08-24,38114.75,0.0,38114.75,0,
2023-08-25,38114.75,0.0,38114.75,0,
2023-08-27,38114.75,0.0,38114.75,0,
2023-08-28,38114.75,0.0,38114.75,0,
2023-08-29,38114.75,0.0,38114.75,0,
2023-08-30,38114.75,68.25,38183.0,1,Long
2023-08-31,38114.75,101.75,38216.5,1,Long
2023-09-01,38114.75,77.75,38192.5,1,Long
2023-09-03,38114.75,82.0,38196.75,1,Long
2023-09-04,38114.75,91.5,38206.25,1,Long
2023-09-05,38114.75,87.25,38202.0,1,Long
2023-09-06,38114.75,-43.5,38071.25,1,Long
2023-09-07,38114.75,-154.0,37960.75,1,Long
2023-09-08,37961.0,0.0,37961.0,0,
2023-09-10,37961.0,0.0,37961.0,0,
2023-09-11,37961.0,0.0,37961.0,0,
2023-09-12,37961.0,0.0,37961.0,0,
2023-09-13,37961.0,0.0,37961.0,0,
2023-09-14,37961.0,0.0,37961.0,0,
2023-09-15,37961.0,0.0,37961.0,0,
2023-09-17,37961.0,0.0,37961.0,0,
2023-09-18,37961.0,0.0,37961.0,0,
2023-09-19,37961.0,0.0,37961.0,0,
2023-09-20,37961.0,0.0,37961.0,0,
2023-09-21,37961.0,0.0,37961.0,0,
2023-09-22,37961.0,0.0,37961.0,0,
2023-09-24,37961.0,0.0,37961.0,0,
2023-09-25,37961.0,0.0,37961.0,0,
2023-09-26,37961.0,0.0,37961.0,0,
2023-09-27,37961.0,0.0,37961.0,0,
2023-09-28,37961.0,0.0,37961.0,0,
2023-09-29,37961.0,0.0,37961.0,0,
2023-10-01,37961.0,0.0,37961.0,0,
2023-10-02,37961.0,0.0,37961.0,0,
2023-10-03,37961.0,0.0,37961.0,0,
2023-10-04,37961.0,0.0,37961.0,0,
2023-10-05,37961.0,0.0,37961.0,0,
2023-10-06,37961.0,0.0,37961.0,0,
2023-10-08,37961.0,0.0,37961.0,0,
2023-10-09,37961.0,0.0,37961.0,0,
2023-10-10,37961.0,0.0,37961.0,0,
2023-10-11,37961.0,0.0,37961.0,0,
2023-10-12,37961.0,-84.75,37876.25,1,Long
2023-10-13,37961.0,-308.0,37653.0,1,Long
2023-10-15,37666.0,0.0,37666.0,0,
2023-10-16,37666.0,0.0,37666.0,0,
2023-10-17,37666.0,0.0,37666.0,0,
2023-10-18,37666.0,0.0,37666.0,0,
2023-10-19,37666.0,0.0,37666.0,0,
2023-10-20,37666.0,0.0,37666.0,0,
2023-10-22,37666.0,0.0,37666.0,0,
2023-10-23,37666.0,0.0,37666.0,0,
2023-10-24,37666.0,0.0,37666.0,0,
2023-10-25,37666.0,0.0,37666.0,0,
2023-10-26,37666.0,0.0,37666.0,0,
2023-10-27,37666.0,0.0,37666.0,0,
2023-10-29,37666.0,0.0,37666.0,0,
2023-10-30,37666.0,0.0,37666.0,0,
2023-10-31,37666.0,0.0,37666.0,0,
2023-11-01,37666.0,0.0,37666.0,0,
2023-11-02,37666.0,0.0,37666.0,0,
2023-11-03,37666.0,0.0,37666.0,0,
2023-11-05,37666.0,-11.25,37654.75,1,Long
2023-11-06,37666.0,21.75,37687.75,1,Long
2023-11-07,37666.0,181.25,37847.25,1,Long
2023-11-08,37666.0,171.0,37837.0,1,Long
2023-11-09,37666.0,45.75,37711.75,1,Long
2023-11-10,37666.0,394.25,38060.25,1,Long
2023-11-12,37666.0,373.25,38039.25,1,Long
2023-11-13,37666.0,371.5,38037.5,1,Long
2023-11-14,37666.0,717.75,38383.75,1,Long
2023-11-15,37666.0,678.0,38344.0,1,Long
2023-11-16,37666.0,698.75,38364.75,1,Long
2023-11-17,37666.0,687.75,38353.75,2,Long
2023-11-19,37666.0,667.25,38333.25,2,Long
2023-11-20,37666.0,1141.25,38807.25,2,Long
2023-11-21,37666.0,848.25,38514.25,2,Long
2023-11-22,37666.0,1031.25,38697.25,2,Long
2023-11-23,37666.0,1068.75,38734.75,2,Long
2023-11-24,37666.0,961.25,38627.25,2,Long
2023-11-26,37666.0,912.25,38578.25,2,Long
2023-11-27,37666.0,959.25,38625.25,2,Long
2023-11-28,37666.0,1046.25,38712.25,2,Long
2023-11-29,37666.0,1033.75,38699.75,2,Long
2023-11-30,37666.0,868.75,38534.75,2,Long
2023-12-01,37666.0,1014.5,38680.5,3,Long
2023-12-03,37666.0,897.5,38563.5,3,Long
2023-12-04,37666.0,470.0,38136.0,3,Long
2023-12-05,37666.0,705.5,38371.5,3,Long
2023-12-06,37666.0,371.0,38037.0,3,Long
2023-12-07,37666.0,981.5,38647.5,3,Long
2023-12-08,37666.0,1199.0,38865.0,3,Long
2023-12-10,37666.0,1235.0,38901.0,3,Long
2023-12-11,37666.0,2285.75,39951.75,3,Long
2023-12-12,37666.0,2750.0,40416.0,3,Long
2023-12-13,37666.0,3369.5,41035.5,3,Long
2023-12-14,37666.0,3203.0,40869.0,3,Long
2023-12-15,37666.0,3350.5,41016.5,4,Long
2023-12-17,37666.0,3381.5,41047.5,4,Long
2023-12-18,37666.0,3783.5,41449.5,4,Long
2023-12-19,37666.0,4197.5,41863.5,4,Long
2023-12-20,37666.0,3333.5,40999.5,4,Long
2023-12-21,37666.0,3854.5,41520.5,4,Long
2023-12-22,37666.0,3936.5,41602.5,4,Long
2023-12-25,37666.0,4102.5,41768.5,4,Long
2023-12-26,37666.0,4444.5,42110.5,4,Long
2023-12-27,37666.0,4573.5,42239.5,4,Long
2023-12-28,37666.0,4489.5,42155.5,4,Long
2023-12-29,37666.0,4089.0,41755.0,5,Long
2024-01-01,37666.0,4217.75,41883.75,5,Long
2024-01-02,37666.0,2691.5,40357.5,5,Long
2024-01-03,40358.75,0.0,40358.75,0,
2024-01-04,40358.75,0.0,40358.75,0,
2024-01-05,40358.75,0.0,40358.75,0,
2024-01-07,40358.75,0.0,40358.75,0,
2024-01-08,40358.75,0.0,40358.75,0,
2024-01-09,40358.75,0.0,40358.75,0,
2024-01-10,40358.75,0.0,40358.75,0,
2024-01-11,40358.75,0.0,40358.75,0,
2024-01-12,40358.75,0.0,40358.75,0,
2024-01-14,40358.75,0.0,40358.75,0,
2024-01-15,40358.75,0.0,40358.75,0,
2024-01-16,40358.75,0.0,40358.75,0,
2024-01-17,40358.75,-125.5,40233.25,1,Long
2024-01-18,40233.25,0.0,40233.25,0,
2024-01-19,40233.25,0.0,40233.25,0,
2024-01-21,40233.25,0.0,40233.25,0,
2024-01-22,40233.25,0.0,40233.25,0,
2024-01-23,40233.25,0.0,40233.25,0,
2024-01-24,40233.25,0.0,40233.25,0,
2024-01-25,40233.25,0.0,40233.25,0,
2024-01-26,40233.25,-26.75,40206.5,1,Long
2024-01-28,40233.25,-51.75,40181.5,1,Long
2024-01-29,40233.25,190.5,40423.75,1,Long
2024-01-30,40233.25,-83.25,40150.0,1,Long
2024-01-31,40233.25,-249.0,39984.25,1,Long
2024-02-01,40233.25,62.0,40295.25,1,Long
2024-02-02,40233.25,154.5,40387.75,1,Long
2024-02-04,40233.25,176.0,40409.25,1,Long
2024-02-05,40233.25,164.75,40398.0,1,Long
2024-02-06,40233.25,120.5,40353.75,1,Long
2024-02-07,40233.25,311.0,40544.25,1,Long
2024-02-08,40233.25,335.75,40569.0,1,Long
2024-02-09,40233.25,509.0,40742.25,2,Long
2024-02-11,40233.25,503.5,40736.75,2,Long
2024-02-12,40233.25,308.0,40541.25,2,Long
2024-02-13,40233.25,-186.0,40047.25,2,Long
2024-02-14,40233.25,191.0,40424.25,2,Long
2024-02-15,40233.25,338.5,40571.75,2,Long
2024-02-16,40233.25,-124.0,40109.25,2,Long
2024-02-18,40233.25,-11.5,40221.75,2,Long
2024-02-19,40233.25,-70.0,40163.25,2,Long
2024-02-20,40233.25,-430.0,39803.25,2,Long
2024-02-21,40233.25,-158.5,40074.75,2,Long
2024-02-22,40233.25,516.5,40749.75,2,Long
2024-02-23,40233.25,309.75,40543.0,3,Long
2024-02-25,40233.25,374.25,40607.5,3,Long
2024-02-26,40233.25,315.75,40549.0,3,Long
2024-02-27,40233.25,441.75,40675.0,3,Long
2024-02-28,40233.25,36.0,40269.25,3,Long
2024-02-29,40233.25,605.25,40838.5,3,Long
2024-03-01,40233.25,1391.25,41624.5,3,Long
2024-03-03,40233.25,1457.25,41690.5,3,Long
2024-03-04,40233.25,1096.5,41329.75,3,Long
2024-03-05,40233.25,314.25,40547.5,3,Long
2024-03-06,40233.25,482.25,40715.5,3,Long
2024-03-07,40233.25,1225.5,41458.75,3,Long
2024-03-08,40233.25,579.25,40812.5,4,Long
2024-03-10,40233.25,529.25,40762.5,4,Long
2024-03-11,40233.25,1534.25,41767.5,4,Long
2024-03-12,40233.25,2272.25,42505.5,4,Long
2024-03-13,40233.25,1850.25,42083.5,4,Long
2024-03-14,40233.25,1312.25,41545.5,4,Long
2024-03-15,40233.25,612.25,40845.5,4,Long
2024-03-17,40233.25,674.25,40907.5,4,Long
2024-03-18,40233.25,1124.25,41357.5,4,Long
2024-03-19,40233.25,1432.25,41665.5,4,Long
2024-03-20,40233.25,2673.25,42906.5,4,Long
2024-03-21,40233.25,2714.25,42947.5,4,Long
2024-03-22,40233.25,2591.25,42824.5,5,Long
2024-03-24,40233.25,2701.25,42934.5,5,Long
2024-03-25,40233.25,2473.75,42707.0,5,Long
2024-03-26,40233.25,2217.5,42450.75,5,Long
2024-03-27,40233.25,2172.5,42405.75,5,Long
2024-03-28,40233.25,2097.5,42330.75,5,Long
2024-03-31,40233.25,2813.75,43047.0,5,Long
2024-04-01,40233.25,2122.5,42355.75,5,Long
2024-04-02,40233.25,1413.75,41647.0,5,Long
2024-04-03,40233.25,2000.0,42233.25,5,Long
2024-04-04,40233.25,228.75,40462.0,5,Long
2024-04-05,40233.25,1323.75,41557.0,5,Long
2024-04-07,40233.25,1366.25,41599.5,5,Long
2024-04-08,40233.25,1280.0,41513.25,5,Long
2024-04-09,40233.25,1611.25,41844.5,5,Long
2024-04-10,40233.25,563.75,40797.0,5,Long
2024-04-11,40233.25,2222.5,42455.75,5,Long
2024-04-12,40233.25,628.75,40862.0,5,Long
2024-04-14,40233.25,960.0,41193.25,5,Long
2024-04-15,41194.5,0.0,41194.5,0,
2024-04-16,41194.5,0.0,41194.5,0,
2024-04-17,41194.5,0.0,41194.5,0,
2024-04-18,41194.5,0.0,41194.5,0,
2024-04-19,41194.5,0.0,41194.5,0,
2024-04-21,41194.5,0.0,41194.5,0,
2024-04-22,41194.5,0.0,41194.5,0,
2024-04-23,41194.5,0.0,41194.5,0,
2024-04-24,41194.5,0.0,41194.5,0,
2024-04-25,41194.5,0.0,41194.5,0,
2024-04-26,41194.5,0.0,41194.5,0,
2024-04-28,41194.5,0.0,41194.5,0,
2024-04-29,41194.5,0.0,41194.5,0,
2024-04-30,41194.5,0.0,41194.5,0,
2024-05-01,41194.5,0.0,41194.5,0,
2024-05-02,41194.5,0.0,41194.5,0,
2024-05-03,41194.5,0.0,41194.5,0,
2024-05-05,41194.5,0.0,41194.5,0,
2024-05-06,41194.5,0.0,41194.5,0,
2024-05-07,41194.5,20.5,41215.0,1,Long
2024-05-08,41194.5,-22.0,41172.5,1,Long
2024-05-09,41194.5,47.5,41242.0,1,Long
2024-05-10,41194.5,55.75,41250.25,1,Long
2024-05-12,41194.5,61.75,41256.25,1,Long
2024-05-13,41194.5,100.0,41294.5,1,Long
2024-05-14,41194.5,233.25,41427.75,1,Long
2024-05-15,41194.5,537.25,41731.75,1,Long
2024-05-16,41194.5,467.5,41662.0,1,Long
2024-05-17,41194.5,463.0,41657.5,2,Long
2024-05-19,41194.5,529.5,41724.0,2,Long
2024-05-20,41194.5,699.0,41893.5,2,Long
2024-05-21,41194.5,822.5,42017.0,2,Long
2024-05-22,41194.5,945.0,42139.5,2,Long
2024-05-23,41194.5,597.5,41792.0,2,Long
2024-05-24,41194.5,938.5,42133.0,2,Long
2024-05-26,41194.5,868.0,42062.5,2,Long
2024-05-27,41194.5,1011.5,42206.0,2,Long
2024-05-28,41194.5,1055.0,42249.5,2,Long
2024-05-29,41194.5,642.0,41836.5,2,Long
2024-05-30,41194.5,313.0,41507.5,2,Long
2024-05-31,41194.5,397.5,41592.0,3,Long
2024-06-02,41194.5,458.25,41652.75,3,Long
2024-06-03,41194.5,633.75,41828.25,3,Long
2024-06-04,41194.5,895.5,42090.0,3,Long
2024-06-05,41194.5,1956.0,43150.5,3,Long
2024-06-06,41194.5,1907.25,43101.75,3,Long
2024-06-07,41194.5,1775.25,42969.75,3,Long
2024-06-09,41194.5,1763.25,42957.75,3,Long
2024-06-10,41194.5,1936.5,43131.0,3,Long
2024-06-11,41194.5,2452.5,43647.0,3,Long
2024-06-12,41194.5,3483.0,44677.5,3,Long
2024-06-13,41194.5,3537.75,44732.25,3,Long
2024-06-14,41194.5,3811.0,45005.5,4,Long
2024-06-16,41194.5,3872.0,45066.5,4,Long
2024-06-17,41194.5,5846.0,47040.5,4,Long
2024-06-18,41194.5,5919.0,47113.5,4,Long
2024-06-19,41194.5,5970.0,47164.5,4,Long
2024-06-20,41194.5,5304.0,46498.5,4,Long
2024-06-21,41194.5,5062.0,46256.5,4,Long
2024-06-23,41194.5,5059.0,46253.5,4,Long
2024-06-24,41194.5,4113.0,45307.5,4,Long
2024-06-25,41194.5,4889.0,46083.5,4,Long
2024-06-26,41194.5,4701.0,45895.5,4,Long
2024-06-27,41194.5,5408.0,46602.5,4,Long
2024-06-28,41194.5,4859.0,46053.5,5,Long
2024-06-30,41194.5,4754.0,45948.5,5,Long
2024-07-01,41194.5,5119.0,46313.5,5,Long
2024-07-02,41194.5,6212.75,47407.25,5,Long
2024-07-03,41194.5,7035.25,48229.75,5,Long
2024-07-04,41194.5,6976.5,48171.0,5,Long
2024-07-05,41194.5,7975.25,49169.75,5,Long
2024-07-07,41194.5,7976.5,49171.0,5,Long
2024-07-08,41194.5,8715.25,49909.75,5,Long
2024-07-09,41194.5,8511.5,49706.0,5,Long
2024-07-10,41194.5,9430.25,50624.75,5,Long
2024-07-11,41194.5,7096.5,48291.0,5,Long
2024-07-12,41194.5,7722.75,48917.25,5,Long
2024-07-14,41194.5,7824.0,49018.5,5,Long
2024-07-15,41194.5,8182.75,49377.25,5,Long
2024-07-16,41194.5,7850.25,49044.75,5,Long
2024-07-17,49044.75,0.0,49044.75,0,
2024-07-18,49044.75,0.0,49044.75,0,
2024-07-19,49044.75,0.0,49044.75,0,
2024-07-21,49044.75,0.0,49044.75,0,
2024-07-22,49044.75,0.0,49044.75,0,
2024-07-23,49044.75,0.0,49044.75,0,
2024-07-24,49044.75,0.0,49044.75,0,
2024-07-25,49044.75,0.0,49044.75,0,
2024-07-26,49044.75,0.0,49044.75,0,
2024-07-28,49044.75,0.0,49044.75,0,
2024-07-29,49044.75,0.0,49044.75,0,
2024-07-30,49044.75,0.0,49044.75,0,
2024-07-31,49044.75,0.0,49044.75,0,
2024-08-01,49044.75,0.0,49044.75,0,
2024-08-02,49044.75,0.0,49044.75,0,
2024-08-04,49044.75,0.0,49044.75,0,
2024-08-05,49044.75,0.0,49044.75,0,
2024-08-06,49044.75,0.0,49044.75,0,
2024-08-07,49044.75,0.0,49044.75,0,
2024-08-08,49044.75,0.0,49044.75,0,
2024-08-09,49044.75,0.0,49044.75,0,
2024-08-11,49044.75,0.0,49044.75,0,
2024-08-12,49044.75,0.0,49044.75,0,
2024-08-13,49044.75,0.0,49044.75,0,
2024-08-14,49044.75,-10.0,49034.75,1,Long
2024-08-15,49044.75,497.0,49541.75,1,Long
2024-08-16,49044.75,487.5,49532.25,1,Long
2024-08-18,49044.75,531.5,49576.25,1,Long
2024-08-19,49044.75,744.0,49788.75,1,Long
2024-08-20,49044.75,673.0,49717.75,1,Long
2024-08-21,49044.75,819.5,49864.25,1,Long
2024-08-22,49044.75,521.75,49566.5,1,Long
2024-08-23,49044.75,674.5,49719.25,2,Long
2024-08-25,49044.75,645.0,49689.75,2,Long
2024-08-26,49044.75,261.5,49306.25,2,Long
2024-08-27,49044.75,293.0,49337.75,2,Long
2024-08-28,49044.75,-495.5,48549.25,2,Long
2024-08-29,49044.75,-21.0,49023.75,2,Long
2024-08-30,49044.75,307.0,49351.75,2,Long
2024-09-01,49044.75,291.0,49335.75,2,Long
2024-09-02,49044.75,280.0,49324.75,2,Long
2024-09-03,49044.75,-966.0,48078.75,2,Long
2024-09-04,48079.75,0.0,48079.75,0,
2024-09-05,48079.75,0.0,48079.75,0,
2024-09-06,48079.75,0.0,48079.75,0,
2024-09-08,48079.75,0.0,48079.75,0,
2024-09-09,48079.75,0.0,48079.75,0,
2024-09-10,48079.75,0.0,48079.75,0,
2024-09-11,48079.75,0.0,48079.75,0,
2024-09-12,48079.75,0.0,48079.75,0,
2024-09-13,48079.75,0.0,48079.75,0,
2024-09-15,48079.75,40.25,48120.0,1,Long
2024-09-16,48079.75,174.75,48254.5,1,Long
2024-09-17,48079.75,207.25,48287.0,1,Long
2024-09-18,48079.75,265.25,48345.0,1,Long
2024-09-19,48079.75,551.0,48630.75,1,Long
2024-09-20,48079.75,516.25,48596.0,1,Long
2024-09-22,48079.75,564.0,48643.75,1,Long
2024-09-23,48079.75,570.25,48650.0,1,Long
2024-09-24,48079.75,681.5,48761.25,1,Long
2024-09-25,48079.75,779.5,48859.25,1,Long
2024-09-26,48079.75,845.75,48925.5,1,Long
2024-09-27,48079.75,674.5,48754.25,2,Long
2024-09-29,48079.75,832.5,48912.25,2,Long
2024-09-30,48079.75,782.5,48862.25,2,Long
2024-10-01,48079.75,152.5,48232.25,2,Long
2024-10-02,48079.75,397.0,48476.75,2,Long
2024-10-03,48079.75,253.5,48333.25,2,Long
2024-10-04,48079.75,694.0,48773.75,2,Long
2024-10-06,48079.75,748.5,48828.25,2,Long
2024-10-07,48079.75,253.5,48333.25,2,Long
2024-10-08,48079.75,833.5,48913.25,2,Long
2024-10-09,48079.75,1188.0,49267.75,2,Long
2024-10-10,48079.75,1190.5,49270.25,2,Long
2024-10-11,48079.75,1051.5,49131.25,3,Long
2024-10-13,48079.75,1095.75,49175.5,3,Long
2024-10-14,48079.75,1710.0,49789.75,3,Long
2024-10-15,48079.75,870.0,48949.75,3,Long
2024-10-16,48079.75,756.0,48835.75,3,Long
2024-10-17,48079.75,1029.75,49109.5,3,Long
2024-10-18,48079.75,1267.5,49347.25,3,Long
2024-10-20,48079.75,1355.25,49435.0,3,Long
2024-10-21,48079.75,1362.0,49441.75,3,Long
2024-10-22,48079.75,1403.25,49483.0,3,Long
2024-10-23,48079.75,684.75,48764.5,3,Long
2024-10-24,48079.75,957.75,49037.5,3,Long
2024-10-25,48079.75,1204.0,49283.75,4,Long
2024-10-27,48079.75,1689.0,49768.75,4,Long
2024-10-28,48079.75,1327.0,49406.75,4,Long
2024-10-29,48079.75,2287.0,50366.75,4,Long
2024-10-30,48079.75,1001.0,49080.75,4,Long
2024-10-31,48079.75,-409.0,47670.75,4,Long
2024-11-01,48079.75,-27.0,48052.75,4,Long
2024-11-03,48079.75,-165.0,47914.75,4,Long
2024-11-04,48079.75,-352.0,47727.75,4,Long
2024-11-05,48079.75,671.0,48750.75,4,Long
2024-11-06,48079.75,2859.0,50938.75,4,Long
2024-11-07,48079.75,4202.0,52281.75,4,Long
2024-11-08,48079.75,4211.5,52291.25,5,Long
2024-11-10,48079.75,4596.5,52676.25,5,Long
2024-11-11,48079.75,4156.5,52236.25,5,Long
2024-11-12,48079.75,3876.5,51956.25,5,Long
2024-11-13,48079.75,3906.5,51986.25,5,Long
2024-11-14,48079.75,2824.0,50903.75,5,Long
2024-11-15,48079.75,594.0,48673.75,5,Long
2024-11-17,48079.75,917.75,48997.5,5,Long
2024-11-18,48079.75,1187.75,49267.5,5,Long
2024-11-19,48079.75,1991.5,50071.25,5,Long
2024-11-20,48079.75,1839.0,49918.75,5,Long
2024-11-21,48079.75,1944.0,50023.75,5,Long
2024-11-22,48079.75,2467.75,50547.5,5,Long
2024-11-24,48079.75,2754.0,50833.75,5,Long
2024-11-25,48079.75,2246.5,50326.25,5,Long
2024-11-26,48079.75,3004.0,51083.75,5,Long
2024-11-27,48079.75,2191.5,50271.25,5,Long
2024-11-28,48079.75,2514.0,50593.75,5,Long
2024-11-29,48079.75,3032.75,51112.5,5,Long
2024-12-01,48079.75,2897.75,50977.5,5,Long
2024-12-02,48079.75,4144.0,52223.75,5,Long
2024-12-03,48079.75,4739.0,52818.75,5,Long
2024-12-04,48079.75,5626.5,53706.25,5,Long
2024-12-05,48079.75,5354.0,53433.75,5,Long
2024-12-06,48079.75,6245.25,54325.0,5,Long
2024-12-08,48079.75,6364.0,54443.75,5,Long
2024-12-09,48079.75,5402.75,53482.5,5,Long
2024-12-10,48079.75,5217.75,53297.5,5,Long
2024-12-11,48079.75,6866.5,54946.25,5,Long
2024-12-12,48079.75,6797.75,54877.5,5,Long
2024-12-13,48079.75,6877.75,54957.5,5,Long
2024-12-15,48079.75,7021.5,55101.25,5,Long
2024-12-16,48079.75,8570.25,56650.0,5,Long
2024-12-17,48079.75,9446.5,57526.25,5,Long
2024-12-18,57526.25,0.0,57526.25,0,
2024-12-19,57526.25,0.0,57526.25,0,
2024-12-20,57526.25,0.0,57526.25,0,
2024-12-22,57526.25,0.0,57526.25,0,
2024-12-23,57526.25,0.0,57526.25,0,
2024-12-24,57526.25,0.0,57526.25,0,
2024-12-25,57526.25,0.0,57526.25,0,
2024-12-26,57526.25,0.0,57526.25,0,
2024-12-27,57526.25,0.0,57526.25,0,
2024-12-29,57526.25,0.0,57526.25,0,
2024-12-30,57526.25,0.0,57526.25,0,
2024-12-31,57526.25,0.0,57526.25,0,
2025-01-01,57526.25,0.0,57526.25,0,
2025-01-02,57526.25,0.0,57526.25,0,
2025-01-03,57526.25,0.0,57526.25,0,
2025-01-05,57526.25,0.0,57526.25,0,
2025-01-06,57526.25,0.0,57526.25,0,
2025-01-07,57526.25,0.0,57526.25,0,
2025-01-08,57526.25,0.0,57526.25,0,
2025-01-09,57526.25,0.0,57526.25,0,
2025-01-10,57526.25,0.0,57526.25,0,
2025-01-12,57526.25,0.0,57526.25,0,
2025-01-13,57526.25,0.0,57526.25,0,
2025-01-14,57526.25,0.0,57526.25,0,
2025-01-15,57526.25,0.0,57526.25,0,
2025-01-16,57526.25,0.0,57526.25,0,
2025-01-17,57526.25,0.0,57526.25,0,
2025-01-19,57526.25,0.0,57526.25,0,
2025-01-20,57526.25,0.0,57526.25,0,
2025-01-21,57526.25,0.0,57526.25,0,
2025-01-22,57526.25,0.0,57526.25,0,
2025-01-23,57526.25,45.25,57571.5,1,Long
2025-01-24,57526.25,-57.0,57469.25,1,Long
2025-01-26,57526.25,-299.5,57226.75,1,Long
2025-01-27,57226.5,0.0,57226.5,0,
2025-01-28,57226.5,0.0,57226.5,0,
2025-01-29,57226.5,0.0,57226.5,0,
2025-01-30,57226.5,0.0,57226.5,0,
2025-01-31,57226.5,0.0,57226.5,0,
2025-02-02,57226.5,0.0,57226.5,0,
2025-02-03,57226.5,0.0,57226.5,0,
2025-02-04,57226.5,0.0,57226.5,0,
2025-02-05,57226.5,0.0,57226.5,0,
2025-02-06,57226.5,0.0,57226.5,0,
2025-02-07,57226.5,0.0,57226.5,0,
2025-02-09,57226.5,0.0,57226.5,0,
2025-02-10,57226.5,0.0,57226.5,0,
2025-02-11,57226.5,0.0,57226.5,0,
2025-02-12,57226.5,0.0,57226.5,0,
2025-02-13,57226.5,0.0,57226.5,0,
2025-02-14,57226.5,0.0,57226.5,0,
2025-02-16,57226.5,0.0,57226.5,0,
2025-02-17,57226.5,0.0,57226.5,0,
2025-02-18,57226.5,0.0,57226.5,0,
2025-02-19,57226.5,0.0,57226.5,0,
2025-02-20,57226.5,0.0,57226.5,0,
2025-02-21,57226.5,0.0,57226.5,0,
2025-02-23,57226.5,0.0,57226.5,0,
2025-02-24,57226.5,0.0,57226.5,0,
2025-02-25,57226.5,0.0,57226.5,0,
2025-02-26,57226.5,0.0,57226.5,0,
2025-02-27,57226.5,0.0,57226.5,0,
2025-02-28,57226.5,0.0,57226.5,0,
2025-03-02,57226.5,0.0,57226.5,0,
2025-03-03,57226.5,0.0,57226.5,0,
2025-03-04,57226.5,0.0,57226.5,0,
2025-03-05,57226.5,0.0,57226.5,0,
2025-03-06,57226.5,0.0,57226.5,0,
2025-03-07,57226.5,0.0,57226.5,0,
2025-03-09,57226.5,0.0,57226.5,0,
2025-03-10,57226.5,0.0,57226.5,0,
2025-03-11,57226.5,0.0,57226.5,0,
2025-03-12,57226.5,0.0,57226.5,0,
2025-03-13,57226.5,0.0,57226.5,0,
2025-03-14,57226.5,0.0,57226.5,0,
2025-03-16,57226.5,0.0,57226.5,0,
2025-03-17,57226.5,0.0,57226.5,0,
2025-03-18,57226.5,0.0,57226.5,0,
2025-03-19,57226.5,0.0,57226.5,0,
2025-03-20,57226.5,0.0,57226.5,0,
2025-03-21,57226.5,0.0,57226.5,0,
2025-03-23,57226.5,0.0,57226.5,0,
2025-03-24,57226.5,0.0,57226.5,0,
2025-03-25,57226.5,0.0,57226.5,0,
2025-03-26,57226.5,0.0,57226.5,0,
2025-03-27,57226.5,0.0,57226.5,0,
2025-03-28,57226.5,0.0,57226.5,0,
2025-03-30,57226.5,0.0,57226.5,0,
2025-03-31,57226.5,0.0,57226.5,0,
2025-04-01,57226.5,0.0,57226.5,0,
2025-04-02,57226.5,0.0,57226.5,0,
2025-04-03,57226.5,0.0,57226.5,0,
2025-04-04,57226.5,0.0,57226.5,0,
2025-04-06,57226.5,0.0,57226.5,0,
2025-04-07,57226.5,0.0,57226.5,0,
2025-04-08,57226.5,0.0,57226.5,0,
2025-04-09,57226.5,0.0,57226.5,0,
2025-04-10,57226.5,-956.0,56270.5,1,Long
2025-04-11,56269.0,0.0,56269.0,0,
2025-04-13,56269.0,0.0,56269.0,0,
2025-04-14,56269.0,0.0,56269.0,0,
2025-04-15,56269.0,0.0,56269.0,0,
2025-04-16,56269.0,0.0,56269.0,0,
2025-04-17,56269.0,0.0,56269.0,0,
2025-04-20,56269.0,0.0,56269.0,0,
2025-04-21,56269.0,0.0,56269.0,0,
2025-04-22,56269.0,0.0,56269.0,0,
2025-04-23,56269.0,0.0,56269.0,0,
2025-04-24,56269.0,0.0,56269.0,0,
2025-04-25,56269.0,0.0,56269.0,0,
2025-04-27,56269.0,0.0,56269.0,0,
2025-04-28,56269.0,0.0,56269.0,0,
2025-04-29,56269.0,0.0,56269.0,0,
2025-04-30,56269.0,0.0,56269.0,0,
2025-05-01,56269.0,0.0,56269.0,0,
2025-05-02,56269.0,42.0,56311.0,1,Long
2025-05-04,56269.0,-73.25,56195.75,1,Long
2025-05-05,56269.0,-150.0,56119.0,1,Long
2025-05-06,56269.0,-91.0,56178.0,1,Long
2025-05-07,56269.0,-206.25,56062.75,1,Long
2025-05-08,56269.0,-19.25,56249.75,1,Long
2025-05-09,56269.0,-12.0,56257.0,1,Long
2025-05-11,56269.0,294.5,56563.5,1,Long
2025-05-12,56269.0,750.0,57019.0,1,Long
2025-05-13,56269.0,1133.75,57402.75,1,Long
2025-05-14,56269.0,1217.0,57486.0,1,Long
2025-05-15,56269.0,1256.25,57525.25,1,Long
2025-05-16,56269.0,1157.0,57426.0,2,Long
2025-05-18,56269.0,1111.5,57380.5,2,Long
2025-05-19,56269.0,1428.0,57697.0,2,Long
2025-05-20,56269.0,1212.0,57481.0,2,Long
2025-05-21,56269.0,643.0,56912.0,2,Long
2025-05-22,56269.0,706.0,56975.0,2,Long
2025-05-23,56269.0,255.0,56524.0,2,Long
2025-05-25,56269.0,726.0,56995.0,2,Long
2025-05-26,56269.0,820.5,57089.5,2,Long
2025-05-27,56269.0,1289.5,57558.5,2,Long
2025-05-28,56269.0,1880.5,58149.5,2,Long
2025-05-29,56269.0,982.5,57251.5,2,Long
2025-05-30,56269.0,1071.5,57340.5,3,Long
2025-06-01,56269.0,875.0,57144.0,3,Long
2025-06-02,56269.0,1448.75,57717.75,3,Long
2025-06-03,56269.0,2080.25,58349.25,3,Long
2025-06-04,56269.0,2188.25,58457.25,3,Long
2025-06-05,56269.0,1602.5,57871.5,3,Long
2025-06-06,56269.0,2393.75,58662.75,3,Long
2025-06-08,56269.0,2249.75,58518.75,3,Long
2025-06-09,56269.0,2460.5,58729.5,3,Long
2025-06-10,56269.0,2828.75,59097.75,3,Long
2025-06-11,56269.0,2480.0,58749.0,3,Long
2025-06-12,56269.0,2316.5,58585.5,3,Long
2025-06-13,56269.0,1944.75,58213.75,4,Long
2025-06-15,56269.0,2077.75,58346.75,4,Long
2025-06-16,56269.0,3391.75,59660.75,4,Long
2025-06-17,56269.0,2950.75,59219.75,4,Long
2025-06-18,56269.0,3123.75,59392.75,4,Long
2025-06-19,56269.0,2876.75,59145.75,4,Long
2025-06-20,56269.0,2824.75,59093.75,4,Long
2025-06-22,56269.0,2371.75,58640.75,4,Long
2025-06-23,56269.0,4273.75,60542.75,4,Long
2025-06-24,56269.0,5025.75,61294.75,4,Long
2025-06-25,56269.0,5188.75,61457.75,4,Long
2025-06-26,56269.0,6039.75,62308.75,4,Long
2025-06-27,56269.0,6323.5,62592.5,5,Long
2025-06-29,56269.0,6708.5,62977.5,5,Long
2025-06-30,56269.0,7029.75,63298.75,5,Long
2025-07-01,56269.0,6163.5,62432.5,5,Long
2025-07-02,56269.0,6864.75,63133.75,5,Long
2025-07-03,56269.0,7796.0,64065.0,5,Long
2025-07-04,56269.0,7144.75,63413.75,5,Long
2025-07-06,56269.0,7541.0,63810.0,5,Long
2025-07-07,56269.0,6992.25,63261.25,5,Long
2025-07-08,56269.0,7128.5,63397.5,5,Long
2025-07-09,56269.0,7797.25,64066.25,5,Long
2025-07-10,56269.0,7844.75,64113.75,5,Long
2025-07-11,56269.0,7308.5,63577.5,5,Long
2025-07-13,56269.0,6954.75,63223.75,5,Long
2025-07-14,56269.0,7679.75,63948.75,5,Long
2025-07-15,56269.0,7693.5,63962.5,5,Long
2025-07-16,56269.0,7824.75,64093.75,5,Long
2025-07-17,56269.0,9023.5,65292.5,5,Long
2025-07-18,56269.0,8766.0,65035.0,5,Long
2025-07-20,56269.0,8922.25,65191.25,5,Long
2025-07-21,56269.0,9354.75,65623.75,5,Long
2025-07-22,56269.0,8931.0,65200.0,5,Long
2025-07-23,56269.0,9627.25,65896.25,5,Long
2025-07-24,56269.0,9653.5,65922.5,5,Long
2025-07-25,56269.0,9858.5,66127.5,5,Long
2025-07-27,56269.0,10293.5,66562.5,5,Long
2025-07-28,56269.0,10264.75,66533.75,5,Long
2025-07-29,56269.0,9996.0,66265.0,5,Long
2025-07-30,56269.0,11247.25,67516.25,5,Long
2025-07-31,56269.0,9109.75,65378.75,5,Long
2025-08-01,65382.5,0.0,65382.5,0,
2025-08-03,65382.5,0.0,65382.5,0,
2025-08-04,65382.5,0.0,65382.5,0,
2025-08-05,65382.5,0.0,65382.5,0,
2025-08-06,65382.5,0.0,65382.5,0,
2025-08-07,65382.5,0.0,65382.5,0,
2025-08-08,65382.5,0.0,65382.5,0,
2025-08-10,65382.5,-59.5,65323.0,1,Long
2025-08-11,65382.5,-130.5,65252.0,1,Long
2025-08-12,65251.25,0.0,65251.25,0,
2025-08-13,65251.25,0.0,65251.25,0,
2025-08-14,65251.25,0.0,65251.25,0,
2025-08-15,65251.25,0.0,65251.25,0,
2025-08-17,65251.25,0.0,65251.25,0,
2025-08-18,65251.25,0.0,65251.25,0,
2025-08-19,65251.25,0.0,65251.25,0,
2025-08-20,65251.25,0.0,65251.25,0,
2025-08-21,65251.25,0.0,65251.25,0,
2025-08-22,65251.25,0.0,65251.25,0,
2025-08-24,65251.25,0.0,65251.25,0,
2025-08-25,65251.25,0.0,65251.25,0,
2025-08-26,65251.25,0.0,65251.25,0,
2025-08-27,65251.25,0.0,65251.25,0,
2025-08-28,65251.25,0.0,65251.25,0,
2025-08-29,65251.25,0.0,65251.25,0,
2025-08-31,65251.25,0.0,65251.25,0,
2025-09-01,65251.25,0.0,65251.25,0,
2025-09-02,65251.25,0.0,65251.25,0,
2025-09-03,65251.25,0.0,65251.25,0,
2025-09-04,65251.25,0.0,65251.25,0,
2025-09-05,65251.25,7.25,65258.5,1,Long
2025-09-07,65251.25,112.0,65363.25,1,Long
2025-09-08,65251.25,141.5,65392.75,1,Long
2025-09-09,65251.25,220.0,65471.25,1,Long
2025-09-10,65251.25,235.0,65486.25,1,Long
2025-09-11,65251.25,353.5,65604.75,1,Long
2025-09-12,65251.25,448.75,65700.0,1,Long
2025-09-14,65251.25,445.25,65696.5,1,Long
2025-09-15,65251.25,639.25,65890.5,1,Long
2025-09-16,65251.25,877.25,66128.5,1,Long
2025-09-17,65251.25,918.25,66169.5,1,Long
2025-09-18,65251.25,1074.25,66325.5,1,Long
2025-09-19,65251.25,1212.75,66464.0,2,Long
2025-09-21,65251.25,1192.75,66444.0,2,Long
2025-09-22,65251.25,1485.25,66736.5,2,Long
2025-09-23,65251.25,1171.75,66423.0,2,Long
2025-09-24,65251.25,1001.75,66253.0,2,Long
2025-09-25,65251.25,723.75,65975.0,2,Long
2025-09-26,65251.25,945.25,66196.5,2,Long
2025-09-28,65251.25,1034.75,66286.0,2,Long
2025-09-29,65251.25,1138.25,66389.5,2,Long
2025-09-30,65251.25,1150.75,66402.0,2,Long
2025-10-01,65251.25,1535.25,66786.5,2,Long
2025-10-02,65251.25,1738.75,66990.0,2,Long
2025-10-03,65251.25,1416.0,66667.25,3,Long
2025-10-05,65251.25,1671.75,66923.0,3,Long
2025-10-06,65251.25,1897.5,67148.75,3,Long
2025-10-07,65251.25,1572.0,66823.25,3,Long
2025-10-08,65251.25,2608.5,67859.75,3,Long
2025-10-09,65251.25,2476.5,67727.75,3,Long
2025-10-10,67729.25,0.0,67729.25,0,
2025-10-12,67729.25,0.0,67729.25,0,
2025-10-13,67729.25,0.0,67729.25,0,
2025-10-14,67729.25,0.0,67729.25,0,
2025-10-15,67729.25,0.0,67729.25,0,
2025-10-16,67729.25,0.0,67729.25,0,
2025-10-17,67729.25,0.0,67729.25,0,
2025-10-19,67729.25,0.0,67729.25,0,
2025-10-20,67729.25,0.0,67729.25,0,
2025-10-21,67729.25,0.0,67729.25,0,
2025-10-22,67729.25,0.0,67729.25,0,
2025-10-23,67729.25,0.0,67729.25,0,
2025-10-24,67729.25,0.0,67729.25,0,
2025-10-26,67729.25,0.0,67729.25,0,
2025-10-27,67729.25,277.75,68007.0,1,Long
2025-10-28,67729.25,467.0,68196.25,1,Long
2025-10-29,67729.25,518.75,68248.0,1,Long
2025-10-30,67729.25,453.5,68182.75,1,Long
2025-10-31,67729.25,266.75,67996.0,1,Long
2025-11-02,67729.25,363.75,68093.0,1,Long
2025-11-03,67729.25,352.0,68081.25,1,Long
2025-11-04,67729.25,-213.25,67516.0,1,Long
2025-11-05,67516.5,0.0,67516.5,0,
2025-11-06,67516.5,0.0,67516.5,0,
2025-11-07,67516.5,0.0,67516.5,0,
2025-11-09,67516.5,0.0,67516.5,0,
2025-11-10,67516.5,0.0,67516.5,0,
2025-11-11,67516.5,0.0,67516.5,0,
2025-11-12,67516.5,0.0,67516.5,0,
2025-11-13,67516.5,0.0,67516.5,0,
2025-11-14,67516.5,0.0,67516.5,0,
2025-11-16,67516.5,0.0,67516.5,0,
2025-11-17,67516.5,0.0,67516.5,0,
2025-11-18,67516.5,0.0,67516.5,0,
2025-11-19,67516.5,0.0,67516.5,0,
2025-11-20,67516.5,0.0,67516.5,0,
2025-11-21,67516.5,0.0,67516.5,0,
2025-11-23,67516.5,0.0,67516.5,0,
2025-11-24,67516.5,0.0,67516.5,0,
2025-11-25,67516.5,0.0,67516.5,0,
2025-11-26,67516.5,0.0,67516.5,0,
2025-11-27,67516.5,0.0,67516.5,0,
2025-11-28,67516.5,0.0,67516.5,0,
2025-11-30,67516.5,0.0,67516.5,0,
2025-12-01,67516.5,0.0,67516.5,0,
2025-12-02,67516.5,0.0,67516.5,0,
2025-12-03,67516.5,0.0,67516.5,0,
2025-12-04,67516.5,0.0,67516.5,0,
2025-12-05,67516.5,0.0,67516.5,0,
2025-12-07,67516.5,0.0,67516.5,0,
2025-12-08,67516.5,0.0,67516.5,0,
2025-12-09,67516.5,0.0,67516.5,0,
2025-12-10,67516.5,0.0,67516.5,0,
2025-12-11,67516.5,0.0,67516.5,0,
2025-12-12,67516.5,0.0,67516.5,0,
2025-12-14,67516.5,0.0,67516.5,0,
2025-12-15,67516.5,0.0,67516.5,0,
2025-12-16,67516.5,0.0,67516.5,0,
2025-12-17,67516.5,0.0,67516.5,0,
2025-12-18,67516.5,0.0,67516.5,0,
2025-12-19,67516.5,0.0,67516.5,0,
2025-12-21,67516.5,0.0,67516.5,0,
2025-12-22,67516.5,0.0,67516.5,0,
2025-12-23,67516.5,0.0,67516.5,0,
2025-12-24,67516.5,0.0,67516.5,0,
2025-12-25,67516.5,17.25,67533.75,1,Long
2025-12-26,67516.5,-13.0,67503.5,1,Long
2025-12-28,67516.5,0.0,67516.5,1,Long
2025-12-29,67516.5,-163.0,67353.5,1,Long
2025-12-30,67353.75,0.0,67353.75,0,
2025-12-31,67353.75,0.0,67353.75,0,
2026-01-01,67353.75,0.0,67353.75,0,
2026-01-02,67353.75,0.0,67353.75,0,
2026-01-04,67353.75,0.0,67353.75,0,
2026-01-05,67353.75,0.0,67353.75,0,
2026-01-06,67353.75,0.0,67353.75,0,
2026-01-07,67353.75,0.0,67353.75,0,
2026-01-08,67353.75,0.0,67353.75,0,
2026-01-09,67353.75,0.0,67353.75,0,
2026-01-11,67353.75,0.0,67353.75,0,
2026-01-12,67353.75,0.0,67353.75,0,
2026-01-13,67353.75,0.0,67353.75,0,
2026-01-14,67353.75,0.0,67353.75,0,
2026-01-15,67353.75,0.0,67353.75,0,
2026-01-16,67353.75,0.0,67353.75,0,
2026-01-18,67353.75,0.0,67353.75,0,
2026-01-19,67353.75,0.0,67353.75,0,
2026-01-20,67353.75,0.0,67353.75,0,
2026-01-21,67353.75,0.0,67353.75,0,
2026-01-22,67353.75,0.0,67353.75,0,
2026-01-23,67353.75,0.0,67353.75,0,
2026-01-25,67353.75,0.0,67353.75,0,
2026-01-26,67353.75,0.0,67353.75,0,
2026-01-27,67353.75,0.0,67353.75,0,
2026-01-28,67353.75,32.0,67385.75,1,Long
2026-01-29,67353.75,-166.0,67187.75,1,Long
2026-01-30,67187.25,0.0,67187.25,0,
2026-02-01,67187.25,0.0,67187.25,0,
2026-02-02,67187.25,0.0,67187.25,0,
2026-02-03,67187.25,0.0,67187.25,0,
2026-02-04,67187.25,0.0,67187.25,0,
2026-02-05,67187.25,0.0,67187.25,0,
2026-02-06,67187.25,0.0,67187.25,0,
2026-02-08,67187.25,0.0,67187.25,0,
2026-02-09,67187.25,0.0,67187.25,0,
2026-02-10,67187.25,0.0,67187.25,0,
2026-02-11,67187.25,0.0,67187.25,0,
2026-02-12,67187.25,0.0,67187.25,0,
2026-02-13,67187.25,0.0,67187.25,0,
2026-02-15,67187.25,0.0,67187.25,0,
2026-02-16,67187.25,0.0,67187.25,0,
2026-02-17,67187.25,0.0,67187.25,0,
2026-02-18,67187.25,0.0,67187.25,0,
2026-02-19,67187.25,0.0,67187.25,0,
2026-02-20,67187.25,0.0,67187.25,0,
2026-02-22,67187.25,0.0,67187.25,0,
2026-02-23,67187.25,0.0,67187.25,0,
2026-02-24,67187.25,0.0,67187.25,0,
2026-02-25,67187.25,0.0,67187.25,0,
2026-02-26,67187.25,0.0,67187.25,0,
2026-02-27,67187.25,0.0,67187.25,0,
2026-03-01,67187.25,0.0,67187.25,0,
2026-03-02,67187.25,0.0,67187.25,0,
2026-03-03,67187.25,0.0,67187.25,0,
2026-03-04,67187.25,0.0,67187.25,0,
2026-03-05,67187.25,0.0,67187.25,0,
2026-03-06,67187.25,0.0,67187.25,0,
2026-03-08,67187.25,0.0,67187.25,0,
