date,year,bump_level,max_contracts,daily_equity_delta_usd,equity_usd,drawdown_usd,open_units
2019-05-05,2019,0,10,0.0,235566.0,0.0,0
2019-05-06,2019,0,10,0.0,235566.0,0.0,0
2019-05-07,2019,0,10,0.0,235566.0,0.0,0
2019-05-08,2019,0,10,0.0,235566.0,0.0,0
2019-05-09,2019,0,10,0.0,235566.0,0.0,0
2019-05-10,2019,0,10,0.0,235566.0,0.0,0
2019-05-12,2019,0,10,0.0,235566.0,0.0,0
2019-05-13,2019,0,10,0.0,235566.0,0.0,0
2019-05-14,2019,0,10,0.0,235566.0,0.0,0
2019-05-15,2019,0,10,0.0,235566.0,0.0,0
2019-05-16,2019,0,10,0.0,235566.0,0.0,0
2019-05-17,2019,0,10,0.0,235566.0,0.0,0
2019-05-19,2019,0,10,0.0,235566.0,0.0,0
2019-05-20,2019,0,10,0.0,235566.0,0.0,0
2019-05-21,2019,0,10,0.0,235566.0,0.0,0
2019-05-22,2019,0,10,0.0,235566.0,0.0,0
2019-05-23,2019,0,10,0.0,235566.0,0.0,0
2019-05-24,2019,0,10,0.0,235566.0,0.0,0
2019-05-26,2019,0,10,0.0,235566.0,0.0,0
2019-05-27,2019,0,10,0.0,235566.0,0.0,0
2019-05-28,2019,0,10,0.0,235566.0,0.0,0
2019-05-29,2019,0,10,0.0,235566.0,0.0,0
2019-05-30,2019,0,10,0.0,235566.0,0.0,0
2019-05-31,2019,0,10,0.0,235566.0,0.0,0
2019-06-02,2019,0,10,0.0,235566.0,0.0,0
2019-06-03,2019,0,10,0.0,235566.0,0.0,0
2019-06-04,2019,0,10,0.0,235566.0,0.0,0
2019-06-05,2019,0,10,0.0,235566.0,0.0,0
2019-06-06,2019,0,10,0.0,235566.0,0.0,0
2019-06-07,2019,0,10,0.0,235566.0,0.0,0
2019-06-09,2019,0,10,0.0,235566.0,0.0,0
2019-06-10,2019,0,10,0.0,235566.0,0.0,0
2019-06-11,2019,0,10,0.0,235566.0,0.0,0
2019-06-12,2019,0,10,0.0,235566.0,0.0,0
2019-06-13,2019,0,10,0.0,235566.0,0.0,0
2019-06-14,2019,0,10,0.0,235566.0,0.0,0
2019-06-16,2019,0,10,0.0,235566.0,0.0,0
2019-06-17,2019,0,10,0.0,235566.0,0.0,0
2019-06-18,2019,0,10,0.0,235566.0,0.0,0
2019-06-19,2019,0,10,0.0,235566.0,0.0,0
2019-06-20,2019,0,10,0.0,235566.0,0.0,0
2019-06-21,2019,0,10,0.0,235566.0,0.0,0
2019-06-23,2019,0,10,0.0,235566.0,0.0,0
2019-06-24,2019,0,10,0.0,235566.0,0.0,0
2019-06-25,2019,0,10,0.0,235566.0,0.0,0
2019-06-26,2019,0,10,0.0,235566.0,0.0,0
2019-06-27,2019,0,10,0.0,235566.0,0.0,0
2019-06-28,2019,0,10,0.0,235566.0,0.0,0
2019-06-30,2019,0,10,0.0,235566.0,0.0,0
2019-07-01,2019,0,10,0.0,235566.0,0.0,0
2019-07-02,2019,0,10,0.0,235566.0,0.0,0
2019-07-03,2019,0,10,0.0,235566.0,0.0,0
2019-07-04,2019,0,10,0.0,235566.0,0.0,0
2019-07-05,2019,0,10,0.0,235566.0,0.0,0
2019-07-07,2019,0,10,0.0,235566.0,0.0,0
2019-07-08,2019,0,10,0.0,235566.0,0.0,0
2019-07-09,2019,0,10,0.0,235566.0,0.0,0
2019-07-10,2019,0,10,0.0,235566.0,0.0,0
2019-07-11,2019,0,10,0.0,235566.0,0.0,0
2019-07-12,2019,0,10,0.0,235566.0,0.0,0
2019-07-14,2019,0,10,0.0,235566.0,0.0,0
2019-07-15,2019,0,10,0.0,235566.0,0.0,0
2019-07-16,2019,0,10,0.0,235566.0,0.0,0
2019-07-17,2019,0,10,0.0,235566.0,0.0,0
2019-07-18,2019,0,10,0.0,235566.0,0.0,0
2019-07-19,2019,0,10,0.0,235566.0,0.0,0
2019-07-21,2019,0,10,0.0,235566.0,0.0,0
2019-07-22,2019,0,10,0.0,235566.0,0.0,0
2019-07-23,2019,0,10,0.0,235566.0,0.0,0
2019-07-24,2019,0,10,0.0,235566.0,0.0,0
2019-07-25,2019,0,10,0.0,235566.0,0.0,0
2019-07-26,2019,0,10,0.0,235566.0,0.0,0
2019-07-28,2019,0,10,0.0,235566.0,0.0,0
2019-07-29,2019,0,10,0.0,235566.0,0.0,0
2019-07-30,2019,0,10,0.0,235566.0,0.0,0
2019-07-31,2019,0,10,0.0,235566.0,0.0,0
2019-08-01,2019,0,10,0.0,235566.0,0.0,0
2019-08-02,2019,0,10,0.0,235566.0,0.0,0
2019-08-04,2019,0,10,0.0,235566.0,0.0,0
2019-08-05,2019,0,10,0.0,235566.0,0.0,0
2019-08-06,2019,0,10,0.0,235566.0,0.0,0
2019-08-07,2019,0,10,0.0,235566.0,0.0,0
2019-08-08,2019,0,10,0.0,235566.0,0.0,0
2019-08-09,2019,0,10,0.0,235566.0,0.0,0
2019-08-11,2019,0,10,0.0,235566.0,0.0,0
2019-08-12,2019,0,10,0.0,235566.0,0.0,0
2019-08-13,2019,0,10,0.0,235566.0,0.0,0
2019-08-14,2019,0,10,0.0,235566.0,0.0,0
2019-08-15,2019,0,10,0.0,235566.0,0.0,0
2019-08-16,2019,0,10,0.0,235566.0,0.0,0
2019-08-18,2019,0,10,0.0,235566.0,0.0,0
2019-08-19,2019,0,10,0.0,235566.0,0.0,0
2019-08-20,2019,0,10,0.0,235566.0,0.0,0
2019-08-21,2019,0,10,0.0,235566.0,0.0,0
2019-08-22,2019,0,10,0.0,235566.0,0.0,0
2019-08-23,2019,0,10,0.0,235566.0,0.0,0
2019-08-25,2019,0,10,0.0,235566.0,0.0,0
2019-08-26,2019,0,10,0.0,235566.0,0.0,0
2019-08-27,2019,0,10,0.0,235566.0,0.0,0
2019-08-28,2019,0,10,0.0,235566.0,0.0,0
2019-08-29,2019,0,10,0.0,235566.0,0.0,0
2019-08-30,2019,0,10,0.0,235566.0,0.0,0
2019-09-01,2019,0,10,0.0,235566.0,0.0,0
2019-09-02,2019,0,10,0.0,235566.0,0.0,0
2019-09-03,2019,0,10,0.0,235566.0,0.0,0
2019-09-04,2019,0,10,0.0,235566.0,0.0,0
2019-09-05,2019,0,10,0.0,235566.0,0.0,0
2019-09-06,2019,0,10,0.0,235566.0,0.0,0
2019-09-08,2019,0,10,0.0,235566.0,0.0,0
2019-09-09,2019,0,10,0.0,235566.0,0.0,0
2019-09-10,2019,0,10,0.0,235566.0,0.0,0
2019-09-11,2019,0,10,0.0,235566.0,0.0,0
2019-09-12,2019,0,10,0.0,235566.0,0.0,0
2019-09-13,2019,0,10,0.0,235566.0,0.0,0
2019-09-15,2019,0,10,0.0,235566.0,0.0,0
2019-09-16,2019,0,10,0.0,235566.0,0.0,0
2019-09-17,2019,0,10,0.0,235566.0,0.0,0
2019-09-18,2019,0,10,0.0,235566.0,0.0,0
2019-09-19,2019,0,10,0.0,235566.0,0.0,0
2019-09-20,2019,0,10,0.0,235566.0,0.0,0
2019-09-22,2019,0,10,0.0,235566.0,0.0,0
2019-09-23,2019,0,10,0.0,235566.0,0.0,0
2019-09-24,2019,0,10,0.0,235566.0,0.0,0
2019-09-25,2019,0,10,0.0,235566.0,0.0,0
2019-09-26,2019,0,10,0.0,235566.0,0.0,0
2019-09-27,2019,0,10,0.0,235566.0,0.0,0
2019-09-29,2019,0,10,0.0,235566.0,0.0,0
2019-09-30,2019,0,10,0.0,235566.0,0.0,0
2019-10-01,2019,0,10,0.0,235566.0,0.0,0
2019-10-02,2019,0,10,0.0,235566.0,0.0,0
2019-10-03,2019,0,10,0.0,235566.0,0.0,0
2019-10-04,2019,0,10,0.0,235566.0,0.0,0
2019-10-06,2019,0,10,0.0,235566.0,0.0,0
2019-10-07,2019,0,10,0.0,235566.0,0.0,0
2019-10-08,2019,0,10,0.0,235566.0,0.0,0
2019-10-09,2019,0,10,0.0,235566.0,0.0,0
2019-10-10,2019,0,10,0.0,235566.0,0.0,0
2019-10-11,2019,0,10,0.0,235566.0,0.0,0
2019-10-13,2019,0,10,0.0,235566.0,0.0,0
2019-10-14,2019,0,10,0.0,235566.0,0.0,0
2019-10-15,2019,0,10,0.0,235566.0,0.0,0
2019-10-16,2019,0,10,0.0,235566.0,0.0,0
2019-10-17,2019,0,10,0.0,235566.0,0.0,0
2019-10-18,2019,0,10,0.0,235566.0,0.0,0
2019-10-20,2019,0,10,0.0,235566.0,0.0,0
2019-10-21,2019,0,10,0.0,235566.0,0.0,0
2019-10-22,2019,0,10,0.0,235566.0,0.0,0
2019-10-23,2019,0,10,0.0,235566.0,0.0,0
2019-10-24,2019,0,10,0.0,235566.0,0.0,0
2019-10-25,2019,0,10,0.0,235566.0,0.0,0
2019-10-27,2019,0,10,0.0,235566.0,0.0,0
2019-10-28,2019,0,10,0.0,235566.0,0.0,0
2019-10-29,2019,0,10,0.0,235566.0,0.0,0
2019-10-30,2019,0,10,0.0,235566.0,0.0,0
2019-10-31,2019,0,10,0.0,235566.0,0.0,0
2019-11-01,2019,0,10,0.0,235566.0,0.0,0
2019-11-03,2019,0,10,0.0,235566.0,0.0,0
2019-11-04,2019,0,10,0.0,235566.0,0.0,0
2019-11-05,2019,0,10,0.0,235566.0,0.0,0
2019-11-06,2019,0,10,0.0,235566.0,0.0,0
2019-11-07,2019,0,10,0.0,235566.0,0.0,0
2019-11-08,2019,0,10,0.0,235566.0,0.0,0
2019-11-10,2019,0,10,0.0,235566.0,0.0,0
2019-11-11,2019,0,10,0.0,235566.0,0.0,0
2019-11-12,2019,0,10,0.0,235566.0,0.0,0
2019-11-13,2019,0,10,0.0,235566.0,0.0,0
2019-11-14,2019,0,10,0.0,235566.0,0.0,0
2019-11-15,2019,0,10,0.0,235566.0,0.0,0
2019-11-17,2019,0,10,0.0,235566.0,0.0,0
2019-11-18,2019,0,10,0.0,235566.0,0.0,0
2019-11-19,2019,0,10,0.0,235566.0,0.0,0
2019-11-20,2019,0,10,0.0,235566.0,0.0,0
2019-11-21,2019,0,10,0.0,235566.0,0.0,0
2019-11-22,2019,0,10,0.0,235566.0,0.0,0
2019-11-24,2019,0,10,0.0,235566.0,0.0,0
2019-11-25,2019,0,10,0.0,235566.0,0.0,0
2019-11-26,2019,0,10,0.0,235566.0,0.0,0
2019-11-27,2019,0,10,0.0,235566.0,0.0,0
2019-11-28,2019,0,10,0.0,235566.0,0.0,0
2019-11-29,2019,0,10,0.0,235566.0,0.0,0
2019-12-01,2019,0,10,0.0,235566.0,0.0,0
2019-12-02,2019,0,10,0.0,235566.0,0.0,0
2019-12-03,2019,0,10,0.0,235566.0,0.0,0
2019-12-04,2019,0,10,0.0,235566.0,0.0,0
2019-12-05,2019,0,10,0.0,235566.0,0.0,0
2019-12-06,2019,0,10,0.0,235566.0,0.0,0
2019-12-08,2019,0,10,0.0,235566.0,0.0,0
2019-12-09,2019,0,10,0.0,235566.0,0.0,0
2019-12-10,2019,0,10,0.0,235566.0,0.0,0
2019-12-11,2019,0,10,0.0,235566.0,0.0,0
2019-12-12,2019,0,10,0.0,235566.0,0.0,0
2019-12-13,2019,0,10,0.0,235566.0,0.0,0
2019-12-15,2019,0,10,0.0,235566.0,0.0,0
2019-12-16,2019,0,10,0.0,235566.0,0.0,0
2019-12-17,2019,0,10,0.0,235566.0,0.0,0
2019-12-18,2019,0,10,0.0,235566.0,0.0,0
2019-12-19,2019,0,10,0.0,235566.0,0.0,0
2019-12-20,2019,0,10,0.0,235566.0,0.0,0
2019-12-22,2019,0,10,0.0,235566.0,0.0,0
2019-12-23,2019,0,10,0.0,235566.0,0.0,0
2019-12-24,2019,0,10,0.0,235566.0,0.0,0
2019-12-25,2019,0,10,0.0,235566.0,0.0,0
2019-12-26,2019,0,10,0.0,235566.0,0.0,0
2019-12-27,2019,0,10,0.0,235566.0,0.0,0
2019-12-29,2019,0,10,0.0,235566.0,0.0,0
2019-12-30,2019,0,10,0.0,235566.0,0.0,0
2019-12-31,2019,0,10,0.0,235566.0,0.0,0
2020-01-01,2020,0,10,0.0,235566.0,0.0,0
2020-01-02,2020,0,10,0.0,235566.0,0.0,0
2020-01-03,2020,0,10,0.0,235566.0,0.0,0
2020-01-05,2020,0,10,0.0,235566.0,0.0,0
2020-01-06,2020,0,10,0.0,235566.0,0.0,0
2020-01-07,2020,0,10,0.0,235566.0,0.0,0
2020-01-08,2020,0,10,0.0,235566.0,0.0,0
2020-01-09,2020,0,10,0.0,235566.0,0.0,0
2020-01-10,2020,0,10,0.0,235566.0,0.0,0
2020-01-12,2020,0,10,0.0,235566.0,0.0,0
2020-01-13,2020,0,10,0.0,235566.0,0.0,0
2020-01-14,2020,0,10,0.0,235566.0,0.0,0
2020-01-15,2020,0,10,0.0,235566.0,0.0,0
2020-01-16,2020,0,10,0.0,235566.0,0.0,0
2020-01-17,2020,0,10,0.0,235566.0,0.0,0
2020-01-19,2020,0,10,0.0,235566.0,0.0,0
2020-01-20,2020,0,10,0.0,235566.0,0.0,0
2020-01-21,2020,0,10,0.0,235566.0,0.0,0
2020-01-22,2020,0,10,0.0,235566.0,0.0,0
2020-01-23,2020,0,10,0.0,235566.0,0.0,0
2020-01-24,2020,0,10,0.0,235566.0,0.0,0
2020-01-26,2020,0,10,0.0,235566.0,0.0,0
2020-01-27,2020,0,10,0.0,235566.0,0.0,0
2020-01-28,2020,0,10,0.0,235566.0,0.0,0
2020-01-29,2020,0,10,0.0,235566.0,0.0,0
2020-01-30,2020,0,10,0.0,235566.0,0.0,0
2020-01-31,2020,0,10,0.0,235566.0,0.0,0
2020-02-02,2020,0,10,0.0,235566.0,0.0,0
2020-02-03,2020,0,10,0.0,235566.0,0.0,0
2020-02-04,2020,0,10,0.0,235566.0,0.0,0
2020-02-05,2020,0,10,0.0,235566.0,0.0,0
2020-02-06,2020,0,10,0.0,235566.0,0.0,0
2020-02-07,2020,0,10,0.0,235566.0,0.0,0
2020-02-09,2020,0,10,0.0,235566.0,0.0,0
2020-02-10,2020,0,10,0.0,235566.0,0.0,0
2020-02-11,2020,0,10,0.0,235566.0,0.0,0
2020-02-12,2020,0,10,0.0,235566.0,0.0,0
2020-02-13,2020,0,10,0.0,235566.0,0.0,0
2020-02-14,2020,0,10,0.0,235566.0,0.0,0
2020-02-16,2020,0,10,0.0,235566.0,0.0,0
2020-02-17,2020,0,10,0.0,235566.0,0.0,0
2020-02-18,2020,0,10,0.0,235566.0,0.0,0
2020-02-19,2020,0,10,0.0,235566.0,0.0,0
2020-02-20,2020,0,10,0.0,235566.0,0.0,0
2020-02-21,2020,0,10,0.0,235566.0,0.0,0
2020-02-23,2020,0,10,0.0,235566.0,0.0,0
2020-02-24,2020,0,10,0.0,235566.0,0.0,0
2020-02-25,2020,0,10,0.0,235566.0,0.0,0
2020-02-26,2020,0,10,0.0,235566.0,0.0,0
2020-02-27,2020,0,10,0.0,235566.0,0.0,0
2020-02-28,2020,0,10,0.0,235566.0,0.0,0
2020-03-01,2020,0,10,0.0,235566.0,0.0,0
2020-03-02,2020,0,10,0.0,235566.0,0.0,0
2020-03-03,2020,0,10,0.0,235566.0,0.0,0
2020-03-04,2020,0,10,0.0,235566.0,0.0,0
2020-03-05,2020,0,10,0.0,235566.0,0.0,0
2020-03-06,2020,0,10,0.0,235566.0,0.0,0
2020-03-08,2020,0,10,0.0,235566.0,0.0,0
2020-03-09,2020,0,10,0.0,235566.0,0.0,0
2020-03-10,2020,0,10,0.0,235566.0,0.0,0
2020-03-11,2020,0,10,0.0,235566.0,0.0,0
2020-03-12,2020,0,10,0.0,235566.0,0.0,0
2020-03-13,2020,0,10,0.0,235566.0,0.0,0
2020-03-15,2020,0,10,0.0,235566.0,0.0,0
2020-03-16,2020,0,10,0.0,235566.0,0.0,0
2020-03-17,2020,0,10,0.0,235566.0,0.0,0
2020-03-18,2020,0,10,0.0,235566.0,0.0,0
2020-03-19,2020,0,10,0.0,235566.0,0.0,0
2020-03-20,2020,0,10,0.0,235566.0,0.0,0
2020-03-22,2020,0,10,0.0,235566.0,0.0,0
2020-03-23,2020,0,10,0.0,235566.0,0.0,0
2020-03-24,2020,0,10,0.0,235566.0,0.0,0
2020-03-25,2020,0,10,0.0,235566.0,0.0,0
2020-03-26,2020,0,10,0.0,235566.0,0.0,0
2020-03-27,2020,0,10,0.0,235566.0,0.0,0
2020-03-29,2020,0,10,0.0,235566.0,0.0,0
2020-03-30,2020,0,10,0.0,235566.0,0.0,0
2020-03-31,2020,0,10,0.0,235566.0,0.0,0
2020-04-01,2020,0,10,0.0,235566.0,0.0,0
2020-04-02,2020,0,10,0.0,235566.0,0.0,0
2020-04-03,2020,0,10,0.0,235566.0,0.0,0
2020-04-05,2020,0,10,0.0,235566.0,0.0,0
2020-04-06,2020,0,10,0.0,235566.0,0.0,0
2020-04-07,2020,0,10,0.0,235566.0,0.0,0
2020-04-08,2020,0,10,0.0,235566.0,0.0,0
2020-04-09,2020,0,10,0.0,235566.0,0.0,0
2020-04-12,2020,0,10,0.0,235566.0,0.0,0
2020-04-13,2020,0,10,0.0,235566.0,0.0,0
2020-04-14,2020,0,10,0.0,235566.0,0.0,0
2020-04-15,2020,0,10,0.0,235566.0,0.0,0
2020-04-16,2020,0,10,0.0,235566.0,0.0,0
2020-04-17,2020,0,10,0.0,235566.0,0.0,0
2020-04-19,2020,0,10,0.0,235566.0,0.0,0
2020-04-20,2020,0,10,0.0,235566.0,0.0,0
2020-04-21,2020,0,10,0.0,235566.0,0.0,0
2020-04-22,2020,0,10,0.0,235566.0,0.0,0
2020-04-23,2020,0,10,0.0,235566.0,0.0,0
2020-04-24,2020,0,10,0.0,235566.0,0.0,0
2020-04-26,2020,0,10,0.0,235566.0,0.0,0
2020-04-27,2020,0,10,0.0,235566.0,0.0,0
2020-04-28,2020,0,10,0.0,235566.0,0.0,0
2020-04-29,2020,0,10,0.0,235566.0,0.0,0
2020-04-30,2020,0,10,0.0,235566.0,0.0,0
2020-05-01,2020,0,10,0.0,235566.0,0.0,0
2020-05-03,2020,0,10,0.0,235566.0,0.0,0
2020-05-04,2020,0,10,0.0,235566.0,0.0,0
2020-05-05,2020,0,10,0.0,235566.0,0.0,0
2020-05-06,2020,0,10,0.0,235566.0,0.0,0
2020-05-07,2020,0,10,0.0,235566.0,0.0,0
2020-05-08,2020,0,10,0.0,235566.0,0.0,0
2020-05-10,2020,0,10,327.0,235893.0,0.0,3
2020-05-11,2020,0,10,142.5,236035.5,0.0,3
2020-05-12,2020,0,10,-1578.0,234457.5,-1578.0,3
2020-05-13,2020,0,10,1.5,234459.0,-1576.5,0
2020-05-14,2020,0,10,0.0,234459.0,-1576.5,0
2020-05-15,2020,0,10,0.0,234459.0,-1576.5,0
2020-05-17,2020,0,10,0.0,234459.0,-1576.5,0
2020-05-18,2020,0,10,0.0,234459.0,-1576.5,0
2020-05-19,2020,0,10,-151.5,234307.5,-1728.0,3
2020-05-20,2020,0,10,1005.0,235312.5,-723.0,3
2020-05-21,2020,0,10,-498.0,234814.5,-1221.0,3
2020-05-22,2020,0,10,120.0,234934.5,-1101.0,3
2020-05-24,2020,0,10,199.5,235134.0,-901.5,3
2020-05-25,2020,0,10,325.5,235459.5,-576.0,3
2020-05-26,2020,0,10,-694.5,234765.0,-1270.5,3
2020-05-27,2020,0,10,286.5,235051.5,-984.0,3
2020-05-28,2020,0,10,-144.0,234907.5,-1128.0,3
2020-05-29,2020,0,10,1158.5,236066.0,0.0,4
2020-05-31,2020,0,10,-654.0,235412.0,-654.0,4
2020-06-01,2020,0,10,468.0,235880.0,-186.0,4
2020-06-02,2020,0,10,874.0,236754.0,0.0,4
2020-06-03,2020,0,10,174.0,236928.0,0.0,4
2020-06-04,2020,0,10,-624.0,236304.0,-624.0,4
2020-06-05,2020,0,10,1510.0,237814.0,0.0,4
2020-06-07,2020,0,10,506.0,238320.0,0.0,4
2020-06-08,2020,0,10,74.0,238394.0,0.0,4
2020-06-09,2020,0,10,874.0,239268.0,0.0,4
2020-06-10,2020,0,10,434.0,239702.0,0.0,4
2020-06-11,2020,0,10,-2918.0,236784.0,-2918.0,4
2020-06-12,2020,0,10,-335.5,236448.5,-3253.5,5
2020-06-14,2020,0,10,-1040.0,235408.5,-4293.5,5
2020-06-15,2020,0,10,3270.0,238678.5,-1023.5,5
2020-06-16,2020,0,10,1187.5,239866.0,0.0,5
2020-06-17,2020,0,10,-345.0,239521.0,-345.0,5
2020-06-18,2020,0,10,712.5,240233.5,0.0,5
2020-06-19,2020,0,10,-962.5,239271.0,-962.5,5
2020-06-21,2020,0,10,-195.0,239076.0,-1157.5,5
2020-06-22,2020,0,10,2447.5,241523.5,0.0,5
2020-06-23,2020,0,10,310.0,241833.5,0.0,5
2020-06-24,2020,0,10,-2072.5,239761.0,-2072.5,5
2020-06-25,2020,0,10,1327.5,241088.5,-745.0,5
2020-06-26,2020,0,10,-2691.5,238397.0,-3436.5,6
2020-06-28,2020,0,10,-204.0,238193.0,-3640.5,6
2020-06-29,2020,0,10,1989.0,240182.0,-1651.5,6
2020-06-30,2020,0,10,504.0,240686.0,-1147.5,6
2020-07-01,2020,0,10,2817.0,243503.0,0.0,6
2020-07-02,2020,0,10,966.0,244469.0,0.0,6
2020-07-03,2020,0,10,-297.0,244172.0,-297.0,6
2020-07-05,2020,0,10,813.0,244985.0,0.0,6
2020-07-06,2020,0,10,2964.0,247949.0,0.0,6
2020-07-07,2020,0,10,-1077.0,246872.0,-1077.0,6
2020-07-08,2020,0,10,1587.0,248459.0,0.0,6
2020-07-09,2020,0,10,861.0,249320.0,0.0,6
2020-07-10,2020,0,10,1110.0,250430.0,0.0,7
2020-07-12,2020,0,10,476.0,250906.0,0.0,7
2020-07-13,2020,0,10,-3237.5,247668.5,-3237.5,7
2020-07-14,2020,0,10,1008.0,248676.5,-2229.5,7
2020-07-15,2020,0,10,-983.5,247693.0,-3213.0,7
2020-07-16,2020,0,10,-1127.0,246566.0,-4340.0,7
2020-07-17,2020,0,10,794.5,247360.5,-3545.5,7
2020-07-19,2020,0,10,336.0,247696.5,-3209.5,7
2020-07-20,2020,0,10,4231.5,251928.0,0.0,7
2020-07-21,2020,0,10,-1071.0,250857.0,-1071.0,7
2020-07-22,2020,0,10,-703.5,250153.5,-1774.5,7
2020-07-23,2020,0,10,-3363.5,246790.0,-5138.0,7
2020-07-24,2020,0,10,-1670.5,245119.5,-6808.5,8
2020-07-26,2020,0,10,-384.0,244735.5,-7192.5,8
2020-07-27,2020,0,10,4152.0,248887.5,-3040.5,8
2020-07-28,2020,0,10,-2152.0,246735.5,-5192.5,8
2020-07-29,2020,0,10,1848.0,248583.5,-3344.5,8
2020-07-30,2020,0,10,3616.0,252199.5,0.0,8
2020-07-31,2020,0,10,160.0,252359.5,0.0,8
2020-08-02,2020,0,10,-60.0,252299.5,-60.0,8
2020-08-03,2020,0,10,1996.0,254295.5,0.0,8
2020-08-04,2020,0,10,596.0,254891.5,0.0,8
2020-08-05,2020,0,10,248.0,255139.5,0.0,8
2020-08-06,2020,0,10,2612.0,257751.5,0.0,8
2020-08-07,2020,0,10,-1951.5,255800.0,-1951.5,9
2020-08-09,2020,0,10,-427.5,255372.5,-2379.0,9
2020-08-10,2020,0,10,-598.5,254774.0,-2977.5,9
2020-08-11,2020,0,10,-2722.5,252051.5,-5700.0,9
2020-08-12,2020,0,10,3762.0,255813.5,-1938.0,9
2020-08-13,2020,0,10,1323.0,257136.5,-615.0,9
2020-08-14,2020,0,10,-1071.0,256065.5,-1686.0,9
2020-08-16,2020,0,10,283.5,256349.0,-1402.5,9
2020-08-17,2020,0,10,2583.0,258932.0,0.0,9
2020-08-18,2020,0,10,2007.0,260939.0,0.0,9
2020-08-19,2020,0,10,-2268.0,258671.0,-2268.0,9
2020-08-20,2020,0,10,3762.0,262433.0,0.0,9
2020-08-21,2020,0,10,1185.5,263618.5,0.0,10
2020-08-23,2020,0,10,410.0,264028.5,0.0,10
2020-08-24,2020,0,10,1265.0,265293.5,0.0,10
2020-08-25,2020,0,10,2000.0,267293.5,0.0,10
2020-08-26,2020,0,10,4420.0,271713.5,0.0,10
2020-08-27,2020,0,10,30.0,271743.5,0.0,10
2020-08-28,2020,0,10,690.0,272433.5,0.0,10
2020-08-30,2020,0,10,880.0,273313.5,0.0,10
2020-08-31,2020,0,10,1550.0,274863.5,0.0,10
2020-09-01,2020,0,10,4705.0,279568.5,0.0,10
2020-09-02,2020,0,10,1225.0,280793.5,0.0,10
2020-09-03,2020,0,10,-16415.0,264378.5,-16415.0,10
2020-09-04,2020,0,10,-1210.0,263168.5,-17625.0,10
2020-09-06,2020,0,10,-2465.0,260703.5,-20090.0,10
2020-09-07,2020,0,10,2845.0,263548.5,-17245.0,10
2020-09-08,2020,0,10,-10365.0,253183.5,-27610.0,10
2020-09-09,2020,0,10,8045.0,261228.5,-19565.0,10
2020-09-10,2020,0,10,-4815.0,256413.5,-24380.0,10
2020-09-11,2020,0,10,-2595.0,253818.5,-26975.0,10
2020-09-13,2020,0,10,2000.0,255818.5,-24975.0,10
2020-09-14,2020,0,10,2235.0,258053.5,-22740.0,10
2020-09-15,2020,0,10,2735.0,260788.5,-20005.0,10
2020-09-16,2020,0,10,-3055.0,257733.5,-23060.0,10
2020-09-17,2020,0,10,-3990.0,253743.5,-27050.0,10
2020-09-18,2020,0,10,-2625.0,251118.5,-29675.0,10
2020-09-20,2020,0,10,-135.0,250983.5,-29810.0,10
2020-09-21,2020,0,10,1615.0,252598.5,-28195.0,10
2020-09-22,2020,0,10,2170.0,254768.5,-26025.0,10
2020-09-23,2020,0,10,-7430.0,247338.5,-33455.0,10
2020-09-24,2020,0,10,4035.0,251373.5,-29420.0,10
2020-09-25,2020,0,10,3700.0,255073.5,-25720.0,10
2020-09-27,2020,0,10,470.0,255543.5,-25250.0,10
2020-09-28,2020,0,10,5180.0,260723.5,-20070.0,10
2020-09-29,2020,0,10,-1560.0,259163.5,-21630.0,10
2020-09-30,2020,0,10,2075.0,261238.5,-19555.0,10
2020-10-01,2020,0,10,2550.0,263788.5,-17005.0,10
2020-10-02,2020,0,10,-6345.0,257443.5,-23350.0,10
2020-10-04,2020,0,10,1550.0,258993.5,-21800.0,10
2020-10-05,2020,0,10,2065.0,261058.5,-19735.0,10
2020-10-06,2020,0,10,-3580.0,257478.5,-23315.0,10
2020-10-07,2020,0,10,4895.0,262373.5,-18420.0,10
2020-10-08,2020,0,10,1575.0,263948.5,-16845.0,10
2020-10-09,2020,0,10,2895.0,266843.5,-13950.0,10
2020-10-11,2020,0,10,385.0,267228.5,-13565.0,10
2020-10-12,2020,0,10,7315.0,274543.5,-6250.0,10
2020-10-13,2020,0,10,110.0,274653.5,-6140.0,10
2020-10-14,2020,0,10,-3075.0,271578.5,-9215.0,10
2020-10-15,2020,0,10,-910.0,270668.5,-10125.0,10
2020-10-16,2020,0,10,-2445.0,268223.5,-12570.0,10
2020-10-18,2020,0,10,1595.0,269818.5,-10975.0,10
2020-10-19,2020,0,10,-3160.0,266658.5,-14135.0,10
2020-10-20,2020,0,10,-225.0,266433.5,-14360.0,10
2020-10-21,2020,0,10,-1570.0,264863.5,-15930.0,10
2020-10-22,2020,0,10,790.0,265653.5,-15140.0,10
2020-10-23,2020,0,10,95.0,265748.5,-15045.0,10
2020-10-25,2020,0,10,-845.0,264903.5,-15890.0,10
2020-10-26,2020,0,10,-2760.0,262143.5,-18650.0,10
2020-10-27,2020,0,10,970.0,263113.5,-17680.0,10
2020-10-28,2020,0,10,-6970.0,256143.5,-24650.0,10
2020-10-29,2020,0,10,500.0,256643.5,-24150.0,10
2020-10-30,2020,0,10,-2540.0,254103.5,-26690.0,10
2020-11-01,2020,0,10,-1765.0,252338.5,-28455.0,10
2020-11-02,2020,0,10,1775.0,254113.5,-26680.0,10
2020-11-03,2020,0,10,4605.0,258718.5,-22075.0,10
2020-11-04,2020,0,10,9555.0,268273.5,-12520.0,10
2020-11-05,2020,0,10,5435.0,273708.5,-7085.0,10
2020-11-06,2020,0,10,560.0,274268.5,-6525.0,10
2020-11-08,2020,0,10,2755.0,277023.5,-3770.0,10
2020-11-09,2020,0,10,-7565.0,269458.5,-11335.0,10
2020-11-10,2020,0,10,-5135.0,264323.5,-16470.0,10
2020-11-11,2020,0,10,5980.0,270303.5,-10490.0,10
2020-11-12,2020,0,10,-900.0,269403.5,-11390.0,10
2020-11-13,2020,0,10,1895.0,271298.5,-9495.0,10
2020-11-15,2020,0,10,1985.0,273283.5,-7510.0,10
2020-11-16,2020,0,10,65.0,273348.5,-7445.0,10
2020-11-17,2020,0,10,-1390.0,271958.5,-8835.0,10
2020-11-18,2020,0,10,-1975.0,269983.5,-10810.0,10
2020-11-19,2020,0,10,1140.0,271123.5,-9670.0,10
2020-11-20,2020,0,10,-525.0,270598.5,-10195.0,10
2020-11-22,2020,0,10,405.0,271003.5,-9790.0,10
2020-11-23,2020,0,10,410.0,271413.5,-9380.0,10
2020-11-24,2020,0,10,3485.0,274898.5,-5895.0,10
2020-11-25,2020,0,10,1070.0,275968.5,-4825.0,10
2020-11-26,2020,0,10,-500.0,275468.5,-5325.0,10
2020-11-27,2020,0,10,2380.0,277848.5,-2945.0,10
2020-11-29,2020,0,10,865.0,278713.5,-2080.0,10
2020-11-30,2020,0,10,640.0,279353.5,-1440.0,10
2020-12-01,2020,0,10,2040.0,281393.5,0.0,10
2020-12-02,2020,0,10,305.0,281698.5,0.0,10
2020-12-03,2020,0,10,380.0,282078.5,0.0,10
2020-12-04,2020,0,10,500.0,282578.5,0.0,10
2020-12-06,2020,0,10,690.0,283268.5,0.0,10
2020-12-07,2020,0,10,610.0,283878.5,0.0,10
2020-12-08,2020,0,10,1440.0,285318.5,0.0,10
2020-12-09,2020,0,10,-5680.0,279638.5,-5680.0,10
2020-12-10,2020,0,10,800.0,280438.5,-4880.0,10
2020-12-11,2020,0,10,-735.0,279703.5,-5615.0,10
2020-12-13,2020,0,10,1000.0,280703.5,-4615.0,10
2020-12-14,2020,0,10,1260.0,281963.5,-3355.0,10
2020-12-15,2020,0,10,2310.0,284273.5,-1045.0,10
2020-12-16,2020,0,10,1755.0,286028.5,0.0,10
2020-12-17,2020,0,10,1345.0,287373.5,0.0,10
2020-12-18,2020,0,10,-35.0,287338.5,-35.0,10
2020-12-20,2020,0,10,15.0,287353.5,-20.0,10
2020-12-21,2020,0,10,-955.0,286398.5,-975.0,10
2020-12-22,2020,0,10,380.0,286778.5,-595.0,10
2020-12-23,2020,0,10,-1310.0,285468.5,-1905.0,10
2020-12-24,2020,0,10,985.0,286453.5,-920.0,10
2020-12-27,2020,0,10,605.0,287058.5,-315.0,10
2020-12-28,2020,0,10,2350.0,289408.5,0.0,10
2020-12-29,2020,0,10,-145.0,289263.5,-145.0,10
2020-12-30,2020,0,10,80.0,289343.5,-65.0,10
2020-12-31,2020,0,10,715.0,290058.5,0.0,10
2021-01-03,2021,2,12,-492.0,289566.5,-492.0,12
2021-01-04,2021,2,12,-4536.0,285030.5,-5028.0,12
2021-01-05,2021,2,12,2880.0,287910.5,-2148.0,12
2021-01-06,2021,2,12,-2928.0,284982.5,-5076.0,12
2021-01-07,2021,2,12,6372.0,291354.5,0.0,12
2021-01-08,2021,2,12,4470.0,295824.5,0.0,12
2021-01-10,2021,2,12,-1008.0,294816.5,-1008.0,12
2021-01-11,2021,2,12,-3852.0,290964.5,-4860.0,12
2021-01-12,2021,2,12,-606.0,290358.5,-5466.0,12
2021-01-13,2021,2,12,1758.0,292116.5,-3708.0,12
2021-01-14,2021,2,12,-1272.0,290844.5,-4980.0,12
2021-01-15,2021,2,12,-3678.0,287166.5,-8658.0,12
2021-01-17,2021,2,12,-426.0,286740.5,-9084.0,12
2021-01-18,2021,2,12,2052.0,288792.5,-7032.0,12
2021-01-19,2021,2,12,5238.0,294030.5,-1794.0,12
2021-01-20,2021,2,12,6354.0,300384.5,0.0,12
2021-01-21,2021,2,12,1662.0,302046.5,0.0,12
2021-01-22,2021,2,12,-768.0,301278.5,-768.0,12
2021-01-24,2021,2,12,1110.0,302388.5,0.0,12
2021-01-25,2021,2,12,1536.0,303924.5,0.0,12
2021-01-26,2021,2,12,2334.0,306258.5,0.0,12
2021-01-27,2021,2,12,-13950.0,292308.5,-13950.0,12
2021-01-28,2021,2,12,3810.0,296118.5,-10140.0,12
2021-01-29,2021,2,12,-6384.0,289734.5,-16524.0,12
2021-01-31,2021,2,12,-1860.0,287874.5,-18384.0,12
2021-02-01,2021,2,12,11232.0,299106.5,-7152.0,12
2021-02-02,2021,2,12,5430.0,304536.5,-1722.0,12
2021-02-03,2021,2,12,-1062.0,303474.5,-2784.0,12
2021-02-04,2021,2,12,2634.0,306108.5,-150.0,12
2021-02-05,2021,2,12,1200.0,307308.5,0.0,12
2021-02-07,2021,2,12,840.0,308148.5,0.0,12
2021-02-08,2021,2,12,1026.0,309174.5,0.0,12
2021-02-09,2021,2,12,144.0,309318.5,0.0,12
2021-02-10,2021,2,12,-810.0,308508.5,-810.0,12
2021-02-11,2021,2,12,1854.0,310362.5,0.0,12
2021-02-12,2021,2,12,2178.0,312540.5,0.0,12
2021-02-14,2021,2,12,96.0,312636.5,0.0,12
2021-02-15,2021,2,12,774.0,313410.5,0.0,12
2021-02-16,2021,2,12,-3036.0,310374.5,-3036.0,12
2021-02-17,2021,2,12,-684.0,309690.5,-3720.0,12
2021-02-18,2021,2,12,-2100.0,307590.5,-5820.0,12
2021-02-19,2021,2,12,-1044.0,306546.5,-6864.0,12
2021-02-21,2021,2,12,480.0,307026.5,-6384.0,12
2021-02-22,2021,2,12,-8724.0,298302.5,-15108.0,12
2021-02-23,2021,2,12,-1428.0,296874.5,-16536.0,12
2021-02-24,2021,2,12,3816.0,300690.5,-12720.0,12
2021-02-25,2021,2,12,-13194.0,287496.5,-25914.0,12
2021-02-26,2021,2,12,3210.0,290706.5,-22704.0,12
2021-02-28,2021,2,12,2214.0,292920.5,-20490.0,12
2021-03-01,2021,2,12,7536.0,300456.5,-12954.0,12
2021-03-02,2021,2,12,-5370.0,295086.5,-18324.0,12
2021-03-03,2021,2,12,-12012.0,283074.5,-30336.0,12
2021-03-04,2021,2,12,-4488.0,278586.5,-34824.0,12
2021-03-05,2021,2,12,6054.0,284640.5,-28770.0,12
2021-03-07,2021,2,12,264.0,284904.5,-28506.0,12
2021-03-08,2021,2,12,-7176.0,277728.5,-35682.0,12
2021-03-09,2021,2,12,10518.0,288246.5,-25164.0,12
2021-03-10,2021,2,12,-936.0,287310.5,-26100.0,12
2021-03-11,2021,2,12,7176.0,294486.5,-18924.0,12
2021-03-12,2021,2,12,-3246.0,291240.5,-22170.0,12
2021-03-14,2021,2,12,396.0,291636.5,-21774.0,12
2021-03-15,2021,2,12,2502.0,294138.5,-19272.0,12
2021-03-16,2021,2,12,2226.0,296364.5,-17046.0,12
2021-03-17,2021,2,12,1794.0,298158.5,-15252.0,12
2021-03-18,2021,2,12,-10530.0,287628.5,-25782.0,12
2021-03-19,2021,2,12,1008.0,288636.5,-24774.0,12
2021-03-21,2021,2,12,864.0,289500.5,-23910.0,12
2021-03-22,2021,2,12,5376.0,294876.5,-18534.0,12
2021-03-23,2021,2,12,-1362.0,293514.5,-19896.0,12
2021-03-24,2021,2,12,-5382.0,288132.5,-25278.0,12
2021-03-25,2021,2,12,-108.0,288024.5,-25386.0,12
2021-03-26,2021,2,12,3864.0,291888.5,-21522.0,12
2021-03-28,2021,2,12,-990.0,290898.5,-22512.0,12
2021-03-29,2021,2,12,1410.0,292308.5,-21102.0,12
2021-03-30,2021,2,12,-2010.0,290298.5,-23112.0,12
2021-03-31,2021,2,12,5430.0,295728.5,-17682.0,12
2021-04-01,2021,2,12,5388.0,301116.5,-12294.0,12
2021-04-02,2021,2,12,84.0,301200.5,-12210.0,12
2021-04-04,2021,2,12,60.0,301260.5,-12150.0,12
2021-04-05,2021,2,12,6354.0,307614.5,-5796.0,12
2021-04-06,2021,2,12,-528.0,307086.5,-6324.0,12
2021-04-07,2021,2,12,1050.0,308136.5,-5274.0,12
2021-04-08,2021,2,12,3936.0,312072.5,-1338.0,12
2021-04-09,2021,2,12,162.0,312234.5,-1176.0,12
2021-04-11,2021,2,12,-720.0,311514.5,-1896.0,12
2021-04-12,2021,2,12,924.0,312438.5,-972.0,12
2021-04-13,2021,2,12,3588.0,316026.5,0.0,12
2021-04-14,2021,2,12,-3726.0,312300.5,-3726.0,12
2021-04-15,2021,2,12,4770.0,317070.5,0.0,12
2021-04-16,2021,2,12,282.0,317352.5,0.0,12
2021-04-18,2021,2,12,-750.0,316602.5,-750.0,12
2021-04-19,2021,2,12,-1770.0,314832.5,-2520.0,12
2021-04-20,2021,2,12,-4110.0,310722.5,-6630.0,12
2021-04-21,2021,2,12,3294.0,314016.5,-3336.0,12
2021-04-22,2021,2,12,-2970.0,311046.5,-6306.0,12
2021-04-23,2021,2,12,3504.0,314550.5,-2802.0,12
2021-04-25,2021,2,12,114.0,314664.5,-2688.0,12
2021-04-26,2021,2,12,2814.0,317478.5,0.0,12
2021-04-27,2021,2,12,-1548.0,315930.5,-1548.0,12
2021-04-28,2021,2,12,216.0,316146.5,-1332.0,12
2021-04-29,2021,2,12,-1350.0,314796.5,-2682.0,12
2021-04-30,2021,2,12,-1200.0,313596.5,-3882.0,12
2021-05-02,2021,2,12,342.0,313938.5,-3540.0,12
2021-05-03,2021,2,12,-2658.0,311280.5,-6198.0,12
2021-05-04,2021,2,12,-5868.0,305412.5,-12066.0,12
2021-05-05,2021,2,12,-582.0,304830.5,-12648.0,12
2021-05-06,2021,2,12,2676.0,307506.5,-9972.0,12
2021-05-07,2021,2,12,2532.0,310038.5,-7440.0,12
2021-05-09,2021,2,12,510.0,310548.5,-6930.0,12
2021-05-10,2021,2,12,-9702.0,300846.5,-16632.0,12
2021-05-11,2021,2,12,72.0,300918.5,-16560.0,12
2021-05-12,2021,2,12,-7722.0,293196.5,-24282.0,12
2021-05-13,2021,2,12,2310.0,295506.5,-21972.0,12
2021-05-14,2021,2,12,6912.0,302418.5,-15060.0,12
2021-05-16,2021,2,12,-150.0,302268.5,-15210.0,12
2021-05-17,2021,2,12,-1542.0,300726.5,-16752.0,12
2021-05-18,2021,2,12,-3810.0,296916.5,-20562.0,12
2021-05-19,2021,2,12,360.0,297276.5,-20202.0,12
2021-05-20,2021,2,12,8010.0,305286.5,-12192.0,12
2021-05-21,2021,2,12,-2586.0,302700.5,-14778.0,12
2021-05-23,2021,2,12,-1086.0,301614.5,-15864.0,12
2021-05-24,2021,2,12,6966.0,308580.5,-8898.0,12
2021-05-25,2021,2,12,924.0,309504.5,-7974.0,12
2021-05-26,2021,2,12,306.0,309810.5,-7668.0,12
2021-05-27,2021,2,12,-114.0,309696.5,-7782.0,12
2021-05-28,2021,2,12,-450.0,309246.5,-8232.0,12
2021-05-30,2021,2,12,672.0,309918.5,-7560.0,12
2021-05-31,2021,2,12,-630.0,309288.5,-8190.0,12
2021-06-01,2021,2,12,-1242.0,308046.5,-9432.0,12
2021-06-02,2021,2,12,1254.0,309300.5,-8178.0,12
2021-06-03,2021,2,12,-4380.0,304920.5,-12558.0,12
2021-06-04,2021,2,12,6240.0,311160.5,-6318.0,12
2021-06-06,2021,2,12,84.0,311244.5,-6234.0,12
2021-06-07,2021,2,12,1326.0,312570.5,-4908.0,12
2021-06-08,2021,2,12,-138.0,312432.5,-5046.0,12
2021-06-09,2021,2,12,-48.0,312384.5,-5094.0,12
2021-06-10,2021,2,12,3666.0,316050.5,-1428.0,12
2021-06-11,2021,2,12,408.0,316458.5,-1020.0,12
2021-06-13,2021,2,12,594.0,317052.5,-426.0,12
2021-06-14,2021,2,12,2322.0,319374.5,0.0,12
2021-06-15,2021,2,12,-1800.0,317574.5,-1800.0,12
2021-06-16,2021,2,12,-3474.0,314100.5,-5274.0,12
2021-06-17,2021,2,12,6936.0,321036.5,0.0,12
2021-06-18,2021,2,12,-3786.0,317250.5,-3786.0,12
2021-06-20,2021,2,12,486.0,317736.5,-3300.0,12
2021-06-21,2021,2,12,2322.0,320058.5,-978.0,12
2021-06-22,2021,2,12,3300.0,323358.5,0.0,12
2021-06-23,2021,2,12,330.0,323688.5,0.0,12
2021-06-24,2021,2,12,1446.0,325134.5,0.0,12
2021-06-25,2021,2,12,-366.0,324768.5,-366.0,12
2021-06-27,2021,2,12,564.0,325332.5,0.0,12
2021-06-28,2021,2,12,3288.0,328620.5,0.0,12
2021-06-29,2021,2,12,2304.0,330924.5,0.0,12
2021-06-30,2021,2,12,-654.0,330270.5,-654.0,12
2021-07-01,2021,2,12,-660.0,329610.5,-1314.0,12
2021-07-02,2021,2,12,4020.0,333630.5,0.0,12
2021-07-04,2021,2,12,336.0,333966.5,0.0,12
2021-07-05,2021,2,12,-6.0,333960.5,-6.0,12
2021-07-06,2021,2,12,1212.0,335172.5,0.0,12
2021-07-07,2021,2,12,1092.0,336264.5,0.0,12
2021-07-08,2021,2,12,-2838.0,333426.5,-2838.0,12
2021-07-09,2021,2,12,2940.0,336366.5,0.0,12
2021-07-11,2021,2,12,360.0,336726.5,0.0,12
2021-07-12,2021,2,12,1206.0,337932.5,0.0,12
2021-07-13,2021,2,12,-834.0,337098.5,-834.0,12
2021-07-14,2021,2,12,1422.0,338520.5,0.0,12
2021-07-15,2021,2,12,-3534.0,334986.5,-3534.0,12
2021-07-16,2021,2,12,-2070.0,332916.5,-5604.0,12
2021-07-18,2021,2,12,-660.0,332256.5,-6264.0,12
2021-07-19,2021,2,12,-1278.0,330978.5,-7542.0,12
2021-07-20,2021,2,12,3684.0,334662.5,-3858.0,12
2021-07-21,2021,2,12,2220.0,336882.5,-1638.0,12
2021-07-22,2021,2,12,3246.0,340128.5,0.0,12
2021-07-23,2021,2,12,2922.0,343050.5,0.0,12
2021-07-25,2021,2,12,684.0,343734.5,0.0,12
2021-07-26,2021,2,12,-228.0,343506.5,-228.0,12
2021-07-27,2021,2,12,-4590.0,338916.5,-4818.0,12
2021-07-28,2021,2,12,1632.0,340548.5,-3186.0,12
2021-07-29,2021,2,12,-2838.0,337710.5,-6024.0,12
2021-07-30,2021,2,12,2322.0,340032.5,-3702.0,12
2021-08-01,2021,2,12,828.0,340860.5,-2874.0,12
2021-08-02,2021,2,12,-972.0,339888.5,-3846.0,12
2021-08-03,2021,2,12,1674.0,341562.5,-2172.0,12
2021-08-04,2021,2,12,1266.0,342828.5,-906.0,12
2021-08-05,2021,2,12,1842.0,344670.5,0.0,12
2021-08-06,2021,2,12,-1626.0,343044.5,-1626.0,12
2021-08-08,2021,2,12,-1698.0,341346.5,-3324.0,12
2021-08-09,2021,2,12,2322.0,343668.5,-1002.0,12
2021-08-10,2021,2,12,-1998.0,341670.5,-3000.0,12
2021-08-11,2021,2,12,-954.0,340716.5,-3954.0,12
2021-08-12,2021,2,12,1728.0,342444.5,-2226.0,12
2021-08-13,2021,2,12,1344.0,343788.5,-882.0,12
2021-08-15,2021,2,12,-234.0,343554.5,-1116.0,12
2021-08-16,2021,2,12,396.0,343950.5,-720.0,12
2021-08-17,2021,2,12,-4164.0,339786.5,-4884.0,12
2021-08-18,2021,2,12,-2676.0,337110.5,-7560.0,12
2021-08-19,2021,2,12,1710.0,338820.5,-5850.0,12
2021-08-20,2021,2,12,4278.0,343098.5,-1572.0,12
2021-08-22,2021,2,12,294.0,343392.5,-1278.0,12
2021-08-23,2021,2,12,5334.0,348726.5,0.0,12
2021-08-24,2021,2,12,678.0,349404.5,0.0,12
2021-08-25,2021,2,12,96.0,349500.5,0.0,12
2021-08-26,2021,2,12,-2004.0,347496.5,-2004.0,12
2021-08-27,2021,2,12,3594.0,351090.5,0.0,12
2021-08-29,2021,2,12,588.0,351678.5,0.0,12
2021-08-30,2021,2,12,3498.0,355176.5,0.0,12
2021-08-31,2021,2,12,-30.0,355146.5,-30.0,12
2021-09-01,2021,2,12,516.0,355662.5,0.0,12
2021-09-02,2021,2,12,-516.0,355146.5,-516.0,12
2021-09-03,2021,2,12,1356.0,356502.5,0.0,12
2021-09-05,2021,2,12,-78.0,356424.5,-78.0,12
2021-09-06,2021,2,12,936.0,357360.5,0.0,12
2021-09-07,2021,2,12,-654.0,356706.5,-654.0,12
2021-09-08,2021,2,12,-1488.0,355218.5,-2142.0,12
2021-09-09,2021,2,12,-864.0,354354.5,-3006.0,12
2021-09-10,2021,2,12,-3030.0,351324.5,-6036.0,12
2021-09-12,2021,2,12,1122.0,352446.5,-4914.0,12
2021-09-13,2021,2,12,-942.0,351504.5,-5856.0,12
2021-09-14,2021,2,12,-918.0,350586.5,-6774.0,12
2021-09-15,2021,2,12,2274.0,352860.5,-4500.0,12
2021-09-16,2021,2,12,-486.0,352374.5,-4986.0,12
2021-09-17,2021,2,12,-4716.0,347658.5,-9702.0,12
2021-09-19,2021,2,12,984.0,348642.5,-8718.0,12
2021-09-20,2021,2,12,-7134.0,341508.5,-15852.0,12
2021-09-21,2021,2,12,-1338.0,340170.5,-17190.0,12
2021-09-22,2021,2,12,5250.0,345420.5,-11940.0,12
2021-09-23,2021,2,12,2706.0,348126.5,-9234.0,12
2021-09-24,2021,2,12,306.0,348432.5,-8928.0,12
2021-09-26,2021,2,12,18.0,348450.5,-8910.0,12
2021-09-27,2021,2,12,-3588.0,344862.5,-12498.0,12
2021-09-28,2021,2,12,-8802.0,336060.5,-21300.0,12
2021-09-29,2021,2,12,-300.0,335760.5,-21600.0,12
2021-09-30,2021,2,12,-1794.0,333966.5,-23394.0,12
2021-10-01,2021,2,12,1560.0,335526.5,-21834.0,12
2021-10-03,2021,2,12,846.0,336372.5,-20988.0,12
2021-10-04,2021,2,12,-7896.0,328476.5,-28884.0,12
2021-10-05,2021,2,12,3648.0,332124.5,-25236.0,12
2021-10-06,2021,2,12,4110.0,336234.5,-21126.0,12
2021-10-07,2021,2,12,2772.0,339006.5,-18354.0,12
2021-10-08,2021,2,12,-2880.0,336126.5,-21234.0,12
2021-10-10,2021,2,12,-2094.0,334032.5,-23328.0,12
2021-10-11,2021,2,12,-780.0,333252.5,-24108.0,12
2021-10-12,2021,2,12,-1920.0,331332.5,-26028.0,12
2021-10-13,2021,2,12,4788.0,336120.5,-21240.0,12
2021-10-14,2021,2,12,6408.0,342528.5,-14832.0,12
2021-10-15,2021,2,12,1770.0,344298.5,-13062.0,12
2021-10-17,2021,2,12,-1512.0,342786.5,-14574.0,12
2021-10-18,2021,2,12,5040.0,347826.5,-9534.0,12
2021-10-19,2021,2,12,2814.0,350640.5,-6720.0,12
2021-10-20,2021,2,12,-1776.0,348864.5,-8496.0,12
2021-10-21,2021,2,12,1356.0,350220.5,-7140.0,12
2021-10-22,2021,2,12,-1626.0,348594.5,-8766.0,12
2021-10-24,2021,2,12,-426.0,348168.5,-9192.0,12
2021-10-25,2021,2,12,5586.0,353754.5,-3606.0,12
2021-10-26,2021,2,12,504.0,354258.5,-3102.0,12
2021-10-27,2021,2,12,1590.0,355848.5,-1512.0,12
2021-10-28,2021,2,12,1104.0,356952.5,-408.0,12
2021-10-29,2021,2,12,4722.0,361674.5,0.0,12
2021-10-31,2021,2,12,276.0,361950.5,0.0,12
2021-11-01,2021,2,12,-102.0,361848.5,-102.0,12
2021-11-02,2021,2,12,1596.0,363444.5,0.0,12
2021-11-03,2021,2,12,5838.0,369282.5,0.0,12
2021-11-04,2021,2,12,3702.0,372984.5,0.0,12
2021-11-05,2021,2,12,72.0,373056.5,0.0,12
2021-11-07,2021,2,12,-744.0,372312.5,-744.0,12
2021-11-08,2021,2,12,-36.0,372276.5,-780.0,12
2021-11-09,2021,2,12,-3000.0,369276.5,-3780.0,12
2021-11-10,2021,2,12,-4686.0,364590.5,-8466.0,12
2021-11-11,2021,2,12,1776.0,366366.5,-6690.0,12
2021-11-12,2021,2,12,3294.0,369660.5,-3396.0,12
2021-11-14,2021,2,12,588.0,370248.5,-2808.0,12
2021-11-15,2021,2,12,-876.0,369372.5,-3684.0,12
2021-11-16,2021,2,12,2772.0,372144.5,-912.0,12
2021-11-17,2021,2,12,582.0,372726.5,-330.0,12
2021-11-18,2021,2,12,3996.0,376722.5,0.0,12
2021-11-19,2021,2,12,2214.0,378936.5,0.0,12
2021-11-21,2021,2,12,12.0,378948.5,0.0,12
2021-11-22,2021,2,12,-4608.0,374340.5,-4608.0,12
2021-11-23,2021,2,12,-2646.0,371694.5,-7254.0,12
2021-11-24,2021,2,12,1710.0,373404.5,-5544.0,12
2021-11-25,2021,2,12,318.0,373722.5,-5226.0,12
2021-11-26,2021,2,12,-7830.0,365892.5,-13056.0,12
2021-11-28,2021,2,12,2976.0,368868.5,-10080.0,12
2021-11-29,2021,2,12,6294.0,375162.5,-3786.0,12
2021-11-30,2021,2,12,-4950.0,370212.5,-8736.0,12
2021-12-01,2021,2,12,-6630.0,363582.5,-15366.0,12
2021-12-02,2021,2,12,-264.0,363318.5,-15630.0,12
2021-12-03,2021,2,12,-6036.0,357282.5,-21666.0,12
2021-12-05,2021,2,12,1266.0,358548.5,-20400.0,12
2021-12-06,2021,2,12,2490.0,361038.5,-17910.0,12
2021-12-07,2021,2,12,12012.0,373050.5,-5898.0,12
2021-12-08,2021,2,12,834.0,373884.5,-5064.0,12
2021-12-09,2021,2,12,-4866.0,369018.5,-9930.0,12
2021-12-10,2021,2,12,3582.0,372600.5,-6348.0,12
2021-12-12,2021,2,12,900.0,373500.5,-5448.0,12
2021-12-13,2021,2,12,-6504.0,366996.5,-11952.0,12
2021-12-14,2021,2,12,-4236.0,362760.5,-16188.0,12
2021-12-15,2021,2,12,9822.0,372582.5,-6366.0,12
2021-12-16,2021,2,12,-11634.0,360948.5,-18000.0,12
2021-12-17,2021,2,12,-210.0,360738.5,-18210.0,12
2021-12-19,2021,2,12,-2958.0,357780.5,-21168.0,12
2021-12-20,2021,2,12,324.0,358104.5,-20844.0,12
2021-12-21,2021,2,12,5754.0,363858.5,-15090.0,12
2021-12-22,2021,2,12,5400.0,369258.5,-9690.0,12
2021-12-23,2021,2,12,2820.0,372078.5,-6870.0,12
2021-12-26,2021,2,12,954.0,373032.5,-5916.0,12
2021-12-27,2021,2,12,5100.0,378132.5,-816.0,12
2021-12-28,2021,2,12,-372.0,377760.5,-1188.0,12
2021-12-29,2021,2,12,-1824.0,375936.5,-3012.0,12
2021-12-30,2021,2,12,-600.0,375336.5,-3612.0,12
2021-12-31,2021,2,12,-2514.0,372822.5,-6126.0,12
2022-01-02,2022,6,16,1624.0,374446.5,-4502.0,16
2022-01-03,2022,6,16,3192.0,377638.5,-1310.0,16
2022-01-04,2022,6,16,-8032.0,369606.5,-9342.0,16
2022-01-05,2022,6,16,-14352.0,355254.5,-23694.0,16
2022-01-06,2022,6,16,1056.0,356310.5,-22638.0,16
2022-01-07,2022,6,16,-7832.0,348478.5,-30470.0,16
2022-01-09,2022,6,16,-440.0,348038.5,-30910.0,16
2022-01-10,2022,6,16,2200.0,350238.5,-28710.0,16
2022-01-11,2022,6,16,6176.0,356414.5,-22534.0,16
2022-01-12,2022,6,16,2312.0,358726.5,-20222.0,16
2022-01-13,2022,6,16,-12640.0,346086.5,-32862.0,16
2022-01-14,2022,6,16,3896.0,349982.5,-28966.0,16
2022-01-16,2022,6,16,-1216.0,348766.5,-30182.0,16
2022-01-17,2022,6,16,208.0,348974.5,-29974.0,16
2022-01-18,2022,6,16,-12624.0,336350.5,-42598.0,16
2022-01-19,2022,6,16,-6024.0,330326.5,-48622.0,16
2022-01-20,2022,6,16,-8344.0,321982.5,-56966.0,16
2022-01-21,2022,6,16,-10632.0,311350.5,-67598.0,16
2022-01-23,2022,6,16,-88.0,311262.5,-67686.0,0
2022-01-24,2022,6,16,0.0,311262.5,-67686.0,0
2022-01-25,2022,6,16,0.0,311262.5,-67686.0,0
2022-01-26,2022,6,16,0.0,311262.5,-67686.0,0
2022-01-27,2022,6,16,0.0,311262.5,-67686.0,0
2022-01-28,2022,6,16,0.0,311262.5,-67686.0,0
2022-01-30,2022,6,16,0.0,311262.5,-67686.0,0
2022-01-31,2022,6,16,0.0,311262.5,-67686.0,0
2022-02-01,2022,6,16,0.0,311262.5,-67686.0,0
2022-02-02,2022,6,16,0.0,311262.5,-67686.0,0
2022-02-03,2022,6,16,0.0,311262.5,-67686.0,0
2022-02-04,2022,6,16,0.0,311262.5,-67686.0,0
2022-02-06,2022,6,16,0.0,311262.5,-67686.0,0
2022-02-07,2022,6,16,0.0,311262.5,-67686.0,0
2022-02-08,2022,6,16,0.0,311262.5,-67686.0,0
2022-02-09,2022,6,16,0.0,311262.5,-67686.0,0
2022-02-10,2022,6,16,0.0,311262.5,-67686.0,0
2022-02-11,2022,6,16,0.0,311262.5,-67686.0,0
2022-02-13,2022,6,16,0.0,311262.5,-67686.0,0
2022-02-14,2022,6,16,0.0,311262.5,-67686.0,0
2022-02-15,2022,6,16,0.0,311262.5,-67686.0,0
2022-02-16,2022,6,16,0.0,311262.5,-67686.0,0
2022-02-17,2022,6,16,0.0,311262.5,-67686.0,0
2022-02-18,2022,6,16,0.0,311262.5,-67686.0,0
2022-02-20,2022,6,16,0.0,311262.5,-67686.0,0
2022-02-21,2022,6,16,0.0,311262.5,-67686.0,0
2022-02-22,2022,6,16,0.0,311262.5,-67686.0,0
2022-02-23,2022,6,16,0.0,311262.5,-67686.0,0
2022-02-24,2022,6,16,0.0,311262.5,-67686.0,0
2022-02-25,2022,6,16,0.0,311262.5,-67686.0,0
2022-02-27,2022,6,16,0.0,311262.5,-67686.0,0
2022-02-28,2022,6,16,0.0,311262.5,-67686.0,0
2022-03-01,2022,6,16,0.0,311262.5,-67686.0,0
2022-03-02,2022,6,16,0.0,311262.5,-67686.0,0
2022-03-03,2022,6,16,0.0,311262.5,-67686.0,0
2022-03-04,2022,6,16,0.0,311262.5,-67686.0,0
2022-03-06,2022,6,16,0.0,311262.5,-67686.0,0
2022-03-07,2022,6,16,0.0,311262.5,-67686.0,0
2022-03-08,2022,6,16,0.0,311262.5,-67686.0,0
2022-03-09,2022,6,16,0.0,311262.5,-67686.0,0
2022-03-10,2022,6,16,0.0,311262.5,-67686.0,0
2022-03-11,2022,6,16,0.0,311262.5,-67686.0,0
2022-03-13,2022,6,16,0.0,311262.5,-67686.0,0
2022-03-14,2022,6,16,0.0,311262.5,-67686.0,0
2022-03-15,2022,6,16,0.0,311262.5,-67686.0,0
2022-03-16,2022,6,16,0.0,311262.5,-67686.0,0
2022-03-17,2022,6,16,0.0,311262.5,-67686.0,0
2022-03-18,2022,6,16,0.0,311262.5,-67686.0,0
2022-03-20,2022,6,16,0.0,311262.5,-67686.0,0
2022-03-21,2022,6,16,0.0,311262.5,-67686.0,0
2022-03-22,2022,6,16,0.0,311262.5,-67686.0,0
2022-03-23,2022,6,16,0.0,311262.5,-67686.0,0
2022-03-24,2022,6,16,0.0,311262.5,-67686.0,0
2022-03-25,2022,6,16,0.0,311262.5,-67686.0,0
2022-03-27,2022,6,16,0.0,311262.5,-67686.0,0
2022-03-28,2022,6,16,0.0,311262.5,-67686.0,0
2022-03-29,2022,6,16,0.0,311262.5,-67686.0,0
2022-03-30,2022,6,16,0.0,311262.5,-67686.0,0
2022-03-31,2022,6,16,0.0,311262.5,-67686.0,0
2022-04-01,2022,6,16,0.0,311262.5,-67686.0,0
2022-04-03,2022,6,16,0.0,311262.5,-67686.0,0
2022-04-04,2022,6,16,0.0,311262.5,-67686.0,0
2022-04-05,2022,6,16,0.0,311262.5,-67686.0,0
2022-04-06,2022,6,16,0.0,311262.5,-67686.0,0
2022-04-07,2022,6,16,0.0,311262.5,-67686.0,0
2022-04-08,2022,6,16,0.0,311262.5,-67686.0,0
2022-04-10,2022,6,16,0.0,311262.5,-67686.0,0
2022-04-11,2022,6,16,0.0,311262.5,-67686.0,0
2022-04-12,2022,6,16,0.0,311262.5,-67686.0,0
2022-04-13,2022,6,16,0.0,311262.5,-67686.0,0
2022-04-14,2022,6,16,0.0,311262.5,-67686.0,0
2022-04-17,2022,6,16,0.0,311262.5,-67686.0,0
2022-04-18,2022,6,16,0.0,311262.5,-67686.0,0
2022-04-19,2022,6,16,0.0,311262.5,-67686.0,0
2022-04-20,2022,6,16,0.0,311262.5,-67686.0,0
2022-04-21,2022,6,16,0.0,311262.5,-67686.0,0
2022-04-22,2022,6,16,0.0,311262.5,-67686.0,0
2022-04-24,2022,6,16,0.0,311262.5,-67686.0,0
2022-04-25,2022,6,16,0.0,311262.5,-67686.0,0
2022-04-26,2022,6,16,0.0,311262.5,-67686.0,0
2022-04-27,2022,6,16,0.0,311262.5,-67686.0,0
2022-04-28,2022,6,16,0.0,311262.5,-67686.0,0
2022-04-29,2022,6,16,0.0,311262.5,-67686.0,0
2022-05-01,2022,6,16,0.0,311262.5,-67686.0,0
2022-05-02,2022,6,16,0.0,311262.5,-67686.0,0
2022-05-03,2022,6,16,0.0,311262.5,-67686.0,0
2022-05-04,2022,6,16,0.0,311262.5,-67686.0,0
2022-05-05,2022,6,16,0.0,311262.5,-67686.0,0
2022-05-06,2022,6,16,0.0,311262.5,-67686.0,0
2022-05-08,2022,6,16,0.0,311262.5,-67686.0,0
2022-05-09,2022,6,16,0.0,311262.5,-67686.0,0
2022-05-10,2022,6,16,0.0,311262.5,-67686.0,0
2022-05-11,2022,6,16,0.0,311262.5,-67686.0,0
2022-05-12,2022,6,16,0.0,311262.5,-67686.0,0
2022-05-13,2022,6,16,0.0,311262.5,-67686.0,0
2022-05-15,2022,6,16,0.0,311262.5,-67686.0,0
2022-05-16,2022,6,16,0.0,311262.5,-67686.0,0
2022-05-17,2022,6,16,0.0,311262.5,-67686.0,0
2022-05-18,2022,6,16,0.0,311262.5,-67686.0,0
2022-05-19,2022,6,16,0.0,311262.5,-67686.0,0
2022-05-20,2022,6,16,0.0,311262.5,-67686.0,0
2022-05-22,2022,6,16,0.0,311262.5,-67686.0,0
2022-05-23,2022,6,16,0.0,311262.5,-67686.0,0
2022-05-24,2022,6,16,0.0,311262.5,-67686.0,0
2022-05-25,2022,6,16,0.0,311262.5,-67686.0,0
2022-05-26,2022,6,16,0.0,311262.5,-67686.0,0
2022-05-27,2022,6,16,0.0,311262.5,-67686.0,0
2022-05-29,2022,6,16,0.0,311262.5,-67686.0,0
2022-05-30,2022,6,16,0.0,311262.5,-67686.0,0
2022-05-31,2022,6,16,0.0,311262.5,-67686.0,0
2022-06-01,2022,6,16,0.0,311262.5,-67686.0,0
2022-06-02,2022,6,16,0.0,311262.5,-67686.0,0
2022-06-03,2022,6,16,0.0,311262.5,-67686.0,0
2022-06-05,2022,6,16,0.0,311262.5,-67686.0,0
2022-06-06,2022,6,16,0.0,311262.5,-67686.0,0
2022-06-07,2022,6,16,0.0,311262.5,-67686.0,0
2022-06-08,2022,6,16,0.0,311262.5,-67686.0,0
2022-06-09,2022,6,16,0.0,311262.5,-67686.0,0
2022-06-10,2022,6,16,0.0,311262.5,-67686.0,0
2022-06-12,2022,6,16,0.0,311262.5,-67686.0,0
2022-06-13,2022,6,16,0.0,311262.5,-67686.0,0
2022-06-14,2022,6,16,0.0,311262.5,-67686.0,0
2022-06-15,2022,6,16,0.0,311262.5,-67686.0,0
2022-06-16,2022,6,16,0.0,311262.5,-67686.0,0
2022-06-17,2022,6,16,0.0,311262.5,-67686.0,0
2022-06-19,2022,6,16,0.0,311262.5,-67686.0,0
2022-06-20,2022,6,16,0.0,311262.5,-67686.0,0
2022-06-21,2022,6,16,0.0,311262.5,-67686.0,0
2022-06-22,2022,6,16,0.0,311262.5,-67686.0,0
2022-06-23,2022,6,16,0.0,311262.5,-67686.0,0
2022-06-24,2022,6,16,0.0,311262.5,-67686.0,0
2022-06-26,2022,6,16,0.0,311262.5,-67686.0,0
2022-06-27,2022,6,16,0.0,311262.5,-67686.0,0
2022-06-28,2022,6,16,0.0,311262.5,-67686.0,0
2022-06-29,2022,6,16,0.0,311262.5,-67686.0,0
2022-06-30,2022,6,16,0.0,311262.5,-67686.0,0
2022-07-01,2022,6,16,0.0,311262.5,-67686.0,0
2022-07-03,2022,6,16,0.0,311262.5,-67686.0,0
2022-07-04,2022,6,16,0.0,311262.5,-67686.0,0
2022-07-05,2022,6,16,0.0,311262.5,-67686.0,0
2022-07-06,2022,6,16,0.0,311262.5,-67686.0,0
2022-07-07,2022,6,16,0.0,311262.5,-67686.0,0
2022-07-08,2022,6,16,0.0,311262.5,-67686.0,0
2022-07-10,2022,6,16,0.0,311262.5,-67686.0,0
2022-07-11,2022,6,16,0.0,311262.5,-67686.0,0
2022-07-12,2022,6,16,0.0,311262.5,-67686.0,0
2022-07-13,2022,6,16,0.0,311262.5,-67686.0,0
2022-07-14,2022,6,16,0.0,311262.5,-67686.0,0
2022-07-15,2022,6,16,0.0,311262.5,-67686.0,0
2022-07-17,2022,6,16,0.0,311262.5,-67686.0,0
2022-07-18,2022,6,16,0.0,311262.5,-67686.0,0
2022-07-19,2022,6,16,0.0,311262.5,-67686.0,0
2022-07-20,2022,6,16,0.0,311262.5,-67686.0,0
2022-07-21,2022,6,16,0.0,311262.5,-67686.0,0
2022-07-22,2022,6,16,0.0,311262.5,-67686.0,0
2022-07-24,2022,6,16,0.0,311262.5,-67686.0,0
2022-07-25,2022,6,16,0.0,311262.5,-67686.0,0
2022-07-26,2022,6,16,0.0,311262.5,-67686.0,0
2022-07-27,2022,6,16,0.0,311262.5,-67686.0,0
2022-07-28,2022,6,16,0.0,311262.5,-67686.0,0
2022-07-29,2022,6,16,0.0,311262.5,-67686.0,0
2022-07-31,2022,6,16,0.0,311262.5,-67686.0,0
2022-08-01,2022,6,16,0.0,311262.5,-67686.0,0
2022-08-02,2022,6,16,0.0,311262.5,-67686.0,0
2022-08-03,2022,6,16,0.0,311262.5,-67686.0,0
2022-08-04,2022,6,16,0.0,311262.5,-67686.0,0
2022-08-05,2022,6,16,0.0,311262.5,-67686.0,0
2022-08-07,2022,6,16,0.0,311262.5,-67686.0,0
2022-08-08,2022,6,16,0.0,311262.5,-67686.0,0
2022-08-09,2022,6,16,0.0,311262.5,-67686.0,0
2022-08-10,2022,6,16,0.0,311262.5,-67686.0,0
2022-08-11,2022,6,16,0.0,311262.5,-67686.0,0
2022-08-12,2022,6,16,0.0,311262.5,-67686.0,0
2022-08-14,2022,6,16,0.0,311262.5,-67686.0,0
2022-08-15,2022,6,16,0.0,311262.5,-67686.0,0
2022-08-16,2022,6,16,0.0,311262.5,-67686.0,0
2022-08-17,2022,6,16,0.0,311262.5,-67686.0,0
2022-08-18,2022,6,16,0.0,311262.5,-67686.0,0
2022-08-19,2022,6,16,0.0,311262.5,-67686.0,0
2022-08-21,2022,6,16,0.0,311262.5,-67686.0,0
2022-08-22,2022,6,16,0.0,311262.5,-67686.0,0
2022-08-23,2022,6,16,0.0,311262.5,-67686.0,0
2022-08-24,2022,6,16,0.0,311262.5,-67686.0,0
2022-08-25,2022,6,16,0.0,311262.5,-67686.0,0
2022-08-26,2022,6,16,0.0,311262.5,-67686.0,0
2022-08-28,2022,6,16,0.0,311262.5,-67686.0,0
2022-08-29,2022,6,16,0.0,311262.5,-67686.0,0
2022-08-30,2022,6,16,0.0,311262.5,-67686.0,0
2022-08-31,2022,6,16,0.0,311262.5,-67686.0,0
2022-09-01,2022,6,16,0.0,311262.5,-67686.0,0
2022-09-02,2022,6,16,0.0,311262.5,-67686.0,0
2022-09-04,2022,6,16,0.0,311262.5,-67686.0,0
2022-09-05,2022,6,16,0.0,311262.5,-67686.0,0
2022-09-06,2022,6,16,0.0,311262.5,-67686.0,0
2022-09-07,2022,6,16,0.0,311262.5,-67686.0,0
2022-09-08,2022,6,16,0.0,311262.5,-67686.0,0
2022-09-09,2022,6,16,0.0,311262.5,-67686.0,0
2022-09-11,2022,6,16,0.0,311262.5,-67686.0,0
2022-09-12,2022,6,16,0.0,311262.5,-67686.0,0
2022-09-13,2022,6,16,0.0,311262.5,-67686.0,0
2022-09-14,2022,6,16,0.0,311262.5,-67686.0,0
2022-09-15,2022,6,16,0.0,311262.5,-67686.0,0
2022-09-16,2022,6,16,0.0,311262.5,-67686.0,0
2022-09-18,2022,6,16,0.0,311262.5,-67686.0,0
2022-09-19,2022,6,16,0.0,311262.5,-67686.0,0
2022-09-20,2022,6,16,0.0,311262.5,-67686.0,0
2022-09-21,2022,6,16,0.0,311262.5,-67686.0,0
2022-09-22,2022,6,16,0.0,311262.5,-67686.0,0
2022-09-23,2022,6,16,0.0,311262.5,-67686.0,0
2022-09-25,2022,6,16,0.0,311262.5,-67686.0,0
2022-09-26,2022,6,16,0.0,311262.5,-67686.0,0
2022-09-27,2022,6,16,0.0,311262.5,-67686.0,0
2022-09-28,2022,6,16,0.0,311262.5,-67686.0,0
2022-09-29,2022,6,16,0.0,311262.5,-67686.0,0
2022-09-30,2022,6,16,0.0,311262.5,-67686.0,0
2022-10-02,2022,6,16,0.0,311262.5,-67686.0,0
2022-10-03,2022,6,16,0.0,311262.5,-67686.0,0
2022-10-04,2022,6,16,0.0,311262.5,-67686.0,0
2022-10-05,2022,6,16,0.0,311262.5,-67686.0,0
2022-10-06,2022,6,16,0.0,311262.5,-67686.0,0
2022-10-07,2022,6,16,0.0,311262.5,-67686.0,0
2022-10-09,2022,6,16,0.0,311262.5,-67686.0,0
2022-10-10,2022,6,16,0.0,311262.5,-67686.0,0
2022-10-11,2022,6,16,0.0,311262.5,-67686.0,0
2022-10-12,2022,6,16,0.0,311262.5,-67686.0,0
2022-10-13,2022,6,16,0.0,311262.5,-67686.0,0
2022-10-14,2022,6,16,0.0,311262.5,-67686.0,0
2022-10-16,2022,6,16,0.0,311262.5,-67686.0,0
2022-10-17,2022,6,16,0.0,311262.5,-67686.0,0
2022-10-18,2022,6,16,0.0,311262.5,-67686.0,0
2022-10-19,2022,6,16,0.0,311262.5,-67686.0,0
2022-10-20,2022,6,16,0.0,311262.5,-67686.0,0
2022-10-21,2022,6,16,0.0,311262.5,-67686.0,0
2022-10-23,2022,6,16,0.0,311262.5,-67686.0,0
2022-10-24,2022,6,16,0.0,311262.5,-67686.0,0
2022-10-25,2022,6,16,0.0,311262.5,-67686.0,0
2022-10-26,2022,6,16,0.0,311262.5,-67686.0,0
2022-10-27,2022,6,16,0.0,311262.5,-67686.0,0
2022-10-28,2022,6,16,0.0,311262.5,-67686.0,0
2022-10-30,2022,6,16,0.0,311262.5,-67686.0,0
2022-10-31,2022,6,16,0.0,311262.5,-67686.0,0
2022-11-01,2022,6,16,0.0,311262.5,-67686.0,0
2022-11-02,2022,6,16,0.0,311262.5,-67686.0,0
2022-11-03,2022,6,16,0.0,311262.5,-67686.0,0
2022-11-04,2022,6,16,0.0,311262.5,-67686.0,0
2022-11-06,2022,6,16,0.0,311262.5,-67686.0,0
2022-11-07,2022,6,16,0.0,311262.5,-67686.0,0
2022-11-08,2022,6,16,0.0,311262.5,-67686.0,0
2022-11-09,2022,6,16,0.0,311262.5,-67686.0,0
2022-11-10,2022,6,16,0.0,311262.5,-67686.0,0
2022-11-11,2022,6,16,0.0,311262.5,-67686.0,0
2022-11-13,2022,6,16,0.0,311262.5,-67686.0,0
2022-11-14,2022,6,16,0.0,311262.5,-67686.0,0
2022-11-15,2022,6,16,0.0,311262.5,-67686.0,0
2022-11-16,2022,6,16,0.0,311262.5,-67686.0,0
2022-11-17,2022,6,16,0.0,311262.5,-67686.0,0
2022-11-18,2022,6,16,0.0,311262.5,-67686.0,0
2022-11-20,2022,6,16,0.0,311262.5,-67686.0,0
2022-11-21,2022,6,16,0.0,311262.5,-67686.0,0
2022-11-22,2022,6,16,0.0,311262.5,-67686.0,0
2022-11-23,2022,6,16,0.0,311262.5,-67686.0,0
2022-11-24,2022,6,16,0.0,311262.5,-67686.0,0
2022-11-25,2022,6,16,0.0,311262.5,-67686.0,0
2022-11-27,2022,6,16,0.0,311262.5,-67686.0,0
2022-11-28,2022,6,16,0.0,311262.5,-67686.0,0
2022-11-29,2022,6,16,0.0,311262.5,-67686.0,0
2022-11-30,2022,6,16,0.0,311262.5,-67686.0,0
2022-12-01,2022,6,16,0.0,311262.5,-67686.0,0
2022-12-02,2022,6,16,0.0,311262.5,-67686.0,0
2022-12-04,2022,6,16,0.0,311262.5,-67686.0,0
2022-12-05,2022,6,16,0.0,311262.5,-67686.0,0
2022-12-06,2022,6,16,0.0,311262.5,-67686.0,0
2022-12-07,2022,6,16,0.0,311262.5,-67686.0,0
2022-12-08,2022,6,16,0.0,311262.5,-67686.0,0
2022-12-09,2022,6,16,0.0,311262.5,-67686.0,0
2022-12-11,2022,6,16,0.0,311262.5,-67686.0,0
2022-12-12,2022,6,16,0.0,311262.5,-67686.0,0
2022-12-13,2022,6,16,0.0,311262.5,-67686.0,0
2022-12-14,2022,6,16,0.0,311262.5,-67686.0,0
2022-12-15,2022,6,16,0.0,311262.5,-67686.0,0
2022-12-16,2022,6,16,0.0,311262.5,-67686.0,0
2022-12-18,2022,6,16,0.0,311262.5,-67686.0,0
2022-12-19,2022,6,16,0.0,311262.5,-67686.0,0
2022-12-20,2022,6,16,0.0,311262.5,-67686.0,0
2022-12-21,2022,6,16,0.0,311262.5,-67686.0,0
2022-12-22,2022,6,16,0.0,311262.5,-67686.0,0
2022-12-23,2022,6,16,0.0,311262.5,-67686.0,0
2022-12-26,2022,6,16,0.0,311262.5,-67686.0,0
2022-12-27,2022,6,16,0.0,311262.5,-67686.0,0
2022-12-28,2022,6,16,0.0,311262.5,-67686.0,0
2022-12-29,2022,6,16,0.0,311262.5,-67686.0,0
2022-12-30,2022,6,16,0.0,311262.5,-67686.0,0
2023-01-02,2023,3,13,0.0,311262.5,-67686.0,0
2023-01-03,2023,3,13,0.0,311262.5,-67686.0,0
2023-01-04,2023,3,13,0.0,311262.5,-67686.0,0
2023-01-05,2023,3,13,0.0,311262.5,-67686.0,0
2023-01-06,2023,3,13,0.0,311262.5,-67686.0,0
2023-01-08,2023,3,13,0.0,311262.5,-67686.0,0
2023-01-09,2023,3,13,0.0,311262.5,-67686.0,0
2023-01-10,2023,3,13,0.0,311262.5,-67686.0,0
2023-01-11,2023,3,13,0.0,311262.5,-67686.0,0
2023-01-12,2023,3,13,0.0,311262.5,-67686.0,0
2023-01-13,2023,3,13,0.0,311262.5,-67686.0,0
2023-01-15,2023,3,13,0.0,311262.5,-67686.0,0
2023-01-16,2023,3,13,0.0,311262.5,-67686.0,0
2023-01-17,2023,3,13,0.0,311262.5,-67686.0,0
2023-01-18,2023,3,13,0.0,311262.5,-67686.0,0
2023-01-19,2023,3,13,0.0,311262.5,-67686.0,0
2023-01-20,2023,3,13,0.0,311262.5,-67686.0,0
2023-01-22,2023,3,13,0.0,311262.5,-67686.0,0
2023-01-23,2023,3,13,0.0,311262.5,-67686.0,0
2023-01-24,2023,3,13,0.0,311262.5,-67686.0,0
2023-01-25,2023,3,13,0.0,311262.5,-67686.0,0
2023-01-26,2023,3,13,0.0,311262.5,-67686.0,0
2023-01-27,2023,3,13,0.0,311262.5,-67686.0,0
2023-01-29,2023,3,13,0.0,311262.5,-67686.0,0
2023-01-30,2023,3,13,0.0,311262.5,-67686.0,0
2023-01-31,2023,3,13,0.0,311262.5,-67686.0,0
2023-02-01,2023,3,13,0.0,311262.5,-67686.0,0
2023-02-02,2023,3,13,0.0,311262.5,-67686.0,0
2023-02-03,2023,3,13,0.0,311262.5,-67686.0,0
2023-02-05,2023,3,13,0.0,311262.5,-67686.0,0
2023-02-06,2023,3,13,0.0,311262.5,-67686.0,0
2023-02-07,2023,3,13,0.0,311262.5,-67686.0,0
2023-02-08,2023,3,13,0.0,311262.5,-67686.0,0
2023-02-09,2023,3,13,0.0,311262.5,-67686.0,0
2023-02-10,2023,3,13,0.0,311262.5,-67686.0,0
2023-02-12,2023,3,13,0.0,311262.5,-67686.0,0
2023-02-13,2023,3,13,0.0,311262.5,-67686.0,0
2023-02-14,2023,3,13,0.0,311262.5,-67686.0,0
2023-02-15,2023,3,13,0.0,311262.5,-67686.0,0
2023-02-16,2023,3,13,0.0,311262.5,-67686.0,0
2023-02-17,2023,3,13,0.0,311262.5,-67686.0,0
2023-02-19,2023,3,13,0.0,311262.5,-67686.0,0
2023-02-20,2023,3,13,0.0,311262.5,-67686.0,0
2023-02-21,2023,3,13,0.0,311262.5,-67686.0,0
2023-02-22,2023,3,13,0.0,311262.5,-67686.0,0
2023-02-23,2023,3,13,0.0,311262.5,-67686.0,0
2023-02-24,2023,3,13,0.0,311262.5,-67686.0,0
2023-02-26,2023,3,13,0.0,311262.5,-67686.0,0
2023-02-27,2023,3,13,0.0,311262.5,-67686.0,0
2023-02-28,2023,3,13,0.0,311262.5,-67686.0,0
2023-03-01,2023,3,13,0.0,311262.5,-67686.0,0
2023-03-02,2023,3,13,0.0,311262.5,-67686.0,0
2023-03-03,2023,3,13,0.0,311262.5,-67686.0,0
2023-03-05,2023,3,13,0.0,311262.5,-67686.0,0
2023-03-06,2023,3,13,0.0,311262.5,-67686.0,0
2023-03-07,2023,3,13,0.0,311262.5,-67686.0,0
2023-03-08,2023,3,13,0.0,311262.5,-67686.0,0
2023-03-09,2023,3,13,0.0,311262.5,-67686.0,0
2023-03-10,2023,3,13,0.0,311262.5,-67686.0,0
2023-03-12,2023,3,13,0.0,311262.5,-67686.0,0
2023-03-13,2023,3,13,0.0,311262.5,-67686.0,0
2023-03-14,2023,3,13,0.0,311262.5,-67686.0,0
2023-03-15,2023,3,13,0.0,311262.5,-67686.0,0
2023-03-16,2023,3,13,0.0,311262.5,-67686.0,0
2023-03-17,2023,3,13,0.0,311262.5,-67686.0,0
2023-03-19,2023,3,13,0.0,311262.5,-67686.0,0
2023-03-20,2023,3,13,0.0,311262.5,-67686.0,0
2023-03-21,2023,3,13,0.0,311262.5,-67686.0,0
2023-03-22,2023,3,13,0.0,311262.5,-67686.0,0
2023-03-23,2023,3,13,0.0,311262.5,-67686.0,0
2023-03-24,2023,3,13,0.0,311262.5,-67686.0,0
2023-03-26,2023,3,13,0.0,311262.5,-67686.0,0
2023-03-27,2023,3,13,0.0,311262.5,-67686.0,0
2023-03-28,2023,3,13,0.0,311262.5,-67686.0,0
2023-03-29,2023,3,13,0.0,311262.5,-67686.0,0
2023-03-30,2023,3,13,0.0,311262.5,-67686.0,0
2023-03-31,2023,3,13,0.0,311262.5,-67686.0,0
2023-04-02,2023,3,13,-270.0,310992.5,-67956.0,6
2023-04-03,2023,3,13,0.0,310992.5,-67956.0,0
2023-04-04,2023,3,13,0.0,310992.5,-67956.0,0
2023-04-05,2023,3,13,0.0,310992.5,-67956.0,0
2023-04-06,2023,3,13,0.0,310992.5,-67956.0,0
2023-04-07,2023,3,13,0.0,310992.5,-67956.0,0
2023-04-09,2023,3,13,0.0,310992.5,-67956.0,0
2023-04-10,2023,3,13,0.0,310992.5,-67956.0,0
2023-04-11,2023,3,13,0.0,310992.5,-67956.0,0
2023-04-12,2023,3,13,0.0,310992.5,-67956.0,0
2023-04-13,2023,3,13,0.0,310992.5,-67956.0,0
2023-04-14,2023,3,13,0.0,310992.5,-67956.0,0
2023-04-16,2023,3,13,0.0,310992.5,-67956.0,0
2023-04-17,2023,3,13,0.0,310992.5,-67956.0,0
2023-04-18,2023,3,13,0.0,310992.5,-67956.0,0
2023-04-19,2023,3,13,0.0,310992.5,-67956.0,0
2023-04-20,2023,3,13,0.0,310992.5,-67956.0,0
2023-04-21,2023,3,13,0.0,310992.5,-67956.0,0
2023-04-23,2023,3,13,0.0,310992.5,-67956.0,0
2023-04-24,2023,3,13,0.0,310992.5,-67956.0,0
2023-04-25,2023,3,13,0.0,310992.5,-67956.0,0
2023-04-26,2023,3,13,0.0,310992.5,-67956.0,0
2023-04-27,2023,3,13,0.0,310992.5,-67956.0,0
2023-04-28,2023,3,13,0.0,310992.5,-67956.0,0
2023-04-30,2023,3,13,-108.0,310884.5,-68064.0,6
2023-05-01,2023,3,13,-258.0,310626.5,-68322.0,6
2023-05-02,2023,3,13,-1242.0,309384.5,-69564.0,6
2023-05-03,2023,3,13,0.0,309384.5,-69564.0,0
2023-05-04,2023,3,13,0.0,309384.5,-69564.0,0
2023-05-05,2023,3,13,0.0,309384.5,-69564.0,0
2023-05-07,2023,3,13,-135.0,309249.5,-69699.0,6
2023-05-08,2023,3,13,393.0,309642.5,-69306.0,6
2023-05-09,2023,3,13,-738.0,308904.5,-70044.0,6
2023-05-10,2023,3,13,1755.0,310659.5,-68289.0,6
2023-05-11,2023,3,13,396.0,311055.5,-67893.0,6
2023-05-12,2023,3,13,-1023.0,310032.5,-68916.0,6
2023-05-14,2023,3,13,-39.0,309993.5,-68955.0,6
2023-05-15,2023,3,13,1104.0,311097.5,-67851.0,6
2023-05-16,2023,3,13,495.0,311592.5,-67356.0,6
2023-05-17,2023,3,13,1725.0,313317.5,-65631.0,6
2023-05-18,2023,3,13,3435.0,316752.5,-62196.0,6
2023-05-19,2023,3,13,-1162.0,315590.5,-63358.0,10
2023-05-21,2023,3,13,245.0,315835.5,-63113.0,10
2023-05-22,2023,3,13,1790.0,317625.5,-61323.0,10
2023-05-23,2023,3,13,-3895.0,313730.5,-65218.0,10
2023-05-24,2023,3,13,1975.0,315705.5,-63243.0,10
2023-05-25,2023,3,13,2360.0,318065.5,-60883.0,10
2023-05-26,2023,3,13,8120.0,326185.5,-52763.0,10
2023-05-28,2023,3,13,910.0,327095.5,-51853.0,10
2023-05-29,2023,3,13,-610.0,326485.5,-52463.0,10
2023-05-30,2023,3,13,715.0,327200.5,-51748.0,10
2023-05-31,2023,3,13,-2235.0,324965.5,-53983.0,10
2023-06-01,2023,3,13,3465.0,328430.5,-50518.0,10
2023-06-02,2023,3,13,2071.0,330501.5,-48447.0,13
2023-06-04,2023,3,13,-1300.0,329201.5,-49747.0,13
2023-06-05,2023,3,13,760.5,329962.0,-48986.5,13
2023-06-06,2023,3,13,760.5,330722.5,-48226.0,13
2023-06-07,2023,3,13,-6883.5,323839.0,-55109.5,13
2023-06-08,2023,3,13,4413.5,328252.5,-50696.0,13
2023-06-09,2023,3,13,1638.0,329890.5,-49058.0,13
2023-06-11,2023,3,13,734.5,330625.0,-48323.5,13
2023-06-12,2023,3,13,10699.0,341324.0,-37624.5,13
2023-06-13,2023,3,13,2665.0,343989.0,-34959.5,13
2023-06-14,2023,3,13,2834.0,346823.0,-32125.5,13
2023-06-15,2023,3,13,3770.0,350593.0,-28355.5,13
2023-06-16,2023,3,13,-1508.0,349085.0,-29863.5,13
2023-06-18,2023,3,13,45.5,349130.5,-29818.0,13
2023-06-19,2023,3,13,-1417.0,347713.5,-31235.0,13
2023-06-20,2023,3,13,344.5,348058.0,-30890.5,13
2023-06-21,2023,3,13,-5746.0,342312.0,-36636.5,13
2023-06-22,2023,3,13,4699.5,347011.5,-31937.0,13
2023-06-23,2023,3,13,-4322.5,342689.0,-36259.5,13
2023-06-25,2023,3,13,1176.5,343865.5,-35083.0,13
2023-06-26,2023,3,13,-5401.5,338464.0,-40484.5,13
2023-06-27,2023,3,13,4322.5,342786.5,-36162.0,13
2023-06-28,2023,3,13,2938.0,345724.5,-33224.0,13
2023-06-29,2023,3,13,-1443.0,344281.5,-34667.0,13
2023-06-30,2023,3,13,5219.5,349501.0,-29447.5,13
2023-07-02,2023,3,13,871.0,350372.0,-28576.5,13
2023-07-03,2023,3,13,-344.5,350027.5,-28921.0,13
2023-07-04,2023,3,13,71.5,350099.0,-28849.5,13
2023-07-05,2023,3,13,455.0,350554.0,-28394.5,13
2023-07-06,2023,3,13,-3419.0,347135.0,-31813.5,13
2023-07-07,2023,3,13,-903.5,346231.5,-32717.0,13
2023-07-09,2023,3,13,-279.5,345952.0,-32996.5,13
2023-07-10,2023,3,13,299.0,346251.0,-32697.5,13
2023-07-11,2023,3,13,1878.5,348129.5,-30819.0,13
2023-07-12,2023,3,13,5388.5,353518.0,-25430.5,13
2023-07-13,2023,3,13,6253.0,359771.0,-19177.5,13
2023-07-14,2023,3,13,-520.0,359251.0,-19697.5,13
2023-07-16,2023,3,13,-663.0,358588.0,-20360.5,13
2023-07-17,2023,3,13,3932.5,362520.5,-16428.0,13
2023-07-18,2023,3,13,3718.0,366238.5,-12710.0,13
2023-07-19,2023,3,13,-2710.5,363528.0,-15420.5,13
2023-07-20,2023,3,13,-7202.0,356326.0,-22622.5,13
2023-07-21,2023,3,13,-650.0,355676.0,-23272.5,13
2023-07-23,2023,3,13,-149.5,355526.5,-23422.0,13
2023-07-24,2023,3,13,474.5,356001.0,-22947.5,13
2023-07-25,2023,3,13,1826.5,357827.5,-21121.0,13
2023-07-26,2023,3,13,403.0,358230.5,-20718.0,13
2023-07-27,2023,3,13,-1735.5,356495.0,-22453.5,13
2023-07-28,2023,3,13,6734.0,363229.0,-15719.5,13
2023-07-30,2023,3,13,1085.5,364314.5,-14634.0,13
2023-07-31,2023,3,13,-702.0,363612.5,-15336.0,13
2023-08-01,2023,3,13,-2788.5,360824.0,-18124.5,13
2023-08-02,2023,3,13,-6786.0,354038.0,-24910.5,13
2023-08-03,2023,3,13,-279.5,353758.5,-25190.0,13
2023-08-04,2023,3,13,-3022.5,350736.0,-28212.5,13
2023-08-06,2023,3,13,949.0,351685.0,-27263.5,13
2023-08-07,2023,3,13,2249.0,353934.0,-25014.5,13
2023-08-08,2023,3,13,-3510.0,350424.0,-28524.5,13
2023-08-09,2023,3,13,-3484.0,346940.0,-32008.5,13
2023-08-10,2023,3,13,533.0,347473.0,-31475.5,13
2023-08-11,2023,3,13,-3536.0,343937.0,-35011.5,13
2023-08-13,2023,3,13,877.5,344814.5,-34134.0,13
2023-08-14,2023,3,13,4264.0,349078.5,-29870.0,13
2023-08-15,2023,3,13,-4667.0,344411.5,-34537.0,13
2023-08-16,2023,3,13,-4979.0,339432.5,-39516.0,13
2023-08-17,2023,3,13,-4563.0,334869.5,-44079.0,13
2023-08-18,2023,3,13,-279.5,334590.0,-44358.5,13
2023-08-20,2023,3,13,910.0,335500.0,-43448.5,13
2023-08-21,2023,3,13,4563.0,340063.0,-38885.5,13
2023-08-22,2023,3,13,253.5,340316.5,-38632.0,13
2023-08-23,2023,3,13,9633.0,349949.5,-28999.0,13
2023-08-24,2023,3,13,-12538.5,337411.0,-41537.5,13
2023-08-25,2023,3,13,3087.5,340498.5,-38450.0,13
2023-08-27,2023,3,13,1020.5,341519.0,-37429.5,13
2023-08-28,2023,3,13,2236.0,343755.0,-35193.5,13
2023-08-29,2023,3,13,8794.5,352549.5,-26399.0,13
2023-08-30,2023,3,13,1768.0,354317.5,-24631.0,13
2023-08-31,2023,3,13,871.0,355188.5,-23760.0,13
2023-09-01,2023,3,13,-624.0,354564.5,-24384.0,13
2023-09-03,2023,3,13,110.5,354675.0,-24273.5,13
2023-09-04,2023,3,13,247.0,354922.0,-24026.5,13
2023-09-05,2023,3,13,-110.5,354811.5,-24137.0,13
2023-09-06,2023,3,13,-3399.5,351412.0,-27536.5,13
2023-09-07,2023,3,13,-2873.0,348539.0,-30409.5,13
2023-09-08,2023,3,13,890.5,349429.5,-29519.0,13
2023-09-10,2023,3,13,214.5,349644.0,-29304.5,13
2023-09-11,2023,3,13,8729.5,358373.5,-20575.0,13
2023-09-12,2023,3,13,-3978.0,354395.5,-24553.0,13
2023-09-13,2023,3,13,1924.0,356319.5,-22629.0,13
2023-09-14,2023,3,13,2535.0,358854.5,-20094.0,13
2023-09-15,2023,3,13,-7644.0,351210.5,-27738.0,13
2023-09-17,2023,3,13,780.0,351990.5,-26958.0,13
2023-09-18,2023,3,13,292.5,352283.0,-26665.5,13
2023-09-19,2023,3,13,-1066.0,351217.0,-27731.5,13
2023-09-20,2023,3,13,-7013.5,344203.5,-34745.0,13
2023-09-21,2023,3,13,-6818.5,337385.0,-41563.5,13
2023-09-22,2023,3,13,663.0,338048.0,-40900.5,13
2023-09-24,2023,3,13,539.5,338587.5,-40361.0,13
2023-09-25,2023,3,13,890.5,339478.0,-39470.5,13
2023-09-26,2023,3,13,-5011.5,334466.5,-44482.0,13
2023-09-27,2023,3,13,916.5,335383.0,-43565.5,13
2023-09-28,2023,3,13,2418.0,337801.0,-41147.5,13
2023-09-29,2023,3,13,637.0,338438.0,-40510.5,13
2023-10-01,2023,3,13,1586.0,340024.0,-38924.5,13
2023-10-02,2023,3,13,1059.5,341083.5,-37865.0,13
2023-10-03,2023,3,13,-7215.0,333868.5,-45080.0,13
2023-10-04,2023,3,13,5167.5,339036.0,-39912.5,13
2023-10-05,2023,3,13,-1644.5,337391.5,-41557.0,13
2023-10-06,2023,3,13,7533.5,344925.0,-34023.5,13
2023-10-08,2023,3,13,-2951.0,341974.0,-36974.5,13
2023-10-09,2023,3,13,4452.5,346426.5,-32522.0,13
2023-10-10,2023,3,13,2294.5,348721.0,-30227.5,13
2023-10-11,2023,3,13,3321.5,352042.5,-26906.0,13
2023-10-12,2023,3,13,-2216.5,349826.0,-29122.5,13
2023-10-13,2023,3,13,-5804.5,344021.5,-34927.0,13
2023-10-15,2023,3,13,1547.0,345568.5,-33380.0,13
2023-10-16,2023,3,13,3237.0,348805.5,-30143.0,13
2023-10-17,2023,3,13,-2073.5,346732.0,-32216.5,13
2023-10-18,2023,3,13,-4504.5,342227.5,-36721.0,13
2023-10-19,2023,3,13,-5057.0,337170.5,-41778.0,13
2023-10-20,2023,3,13,-5070.0,332100.5,-46848.0,13
2023-10-22,2023,3,13,1605.5,333706.0,-45242.5,13
2023-10-23,2023,3,13,1371.5,335077.5,-43871.0,13
2023-10-24,2023,3,13,1365.0,336442.5,-42506.0,13
2023-10-25,2023,3,13,-12090.0,324352.5,-54596.0,13
2023-10-26,2023,3,13,-923.0,323429.5,-55519.0,13
2023-10-27,2023,3,13,-1137.5,322292.0,-56656.5,13
2023-10-29,2023,3,13,1579.5,323871.5,-55077.0,13
2023-10-30,2023,3,13,1722.5,325594.0,-53354.5,13
2023-10-31,2023,3,13,1436.5,327030.5,-51918.0,13
2023-11-01,2023,3,13,8827.0,335857.5,-43091.0,13
2023-11-02,2023,3,13,3906.5,339764.0,-39184.5,13
2023-11-03,2023,3,13,6279.0,346043.0,-32905.5,13
2023-11-05,2023,3,13,-227.5,345815.5,-33133.0,13
2023-11-06,2023,3,13,858.0,346673.5,-32275.0,13
2023-11-07,2023,3,13,4147.0,350820.5,-28128.0,13
2023-11-08,2023,3,13,-266.5,350554.0,-28394.5,13
2023-11-09,2023,3,13,-3256.5,347297.5,-31651.0,13
2023-11-10,2023,3,13,9061.0,356358.5,-22590.0,13
2023-11-12,2023,3,13,-546.0,355812.5,-23136.0,13
2023-11-13,2023,3,13,-45.5,355767.0,-23181.5,13
2023-11-14,2023,3,13,9002.5,364769.5,-14179.0,13
2023-11-15,2023,3,13,-1033.5,363736.0,-15212.5,13
2023-11-16,2023,3,13,539.5,364275.5,-14673.0,13
2023-11-17,2023,3,13,-305.5,363970.0,-14978.5,13
2023-11-19,2023,3,13,-266.5,363703.5,-15245.0,13
2023-11-20,2023,3,13,6162.0,369865.5,-9083.0,13
2023-11-21,2023,3,13,-3809.0,366056.5,-12892.0,13
2023-11-22,2023,3,13,2379.0,368435.5,-10513.0,13
2023-11-23,2023,3,13,487.5,368923.0,-10025.5,13
2023-11-24,2023,3,13,-1397.5,367525.5,-11423.0,13
2023-11-26,2023,3,13,-637.0,366888.5,-12060.0,13
2023-11-27,2023,3,13,611.0,367499.5,-11449.0,13
2023-11-28,2023,3,13,1131.0,368630.5,-10318.0,13
2023-11-29,2023,3,13,-162.5,368468.0,-10480.5,13
2023-11-30,2023,3,13,-2145.0,366323.0,-12625.5,13
2023-12-01,2023,3,13,1729.0,368052.0,-10896.5,13
2023-12-03,2023,3,13,-1014.0,367038.0,-11910.5,13
2023-12-04,2023,3,13,-3705.0,363333.0,-15615.5,13
2023-12-05,2023,3,13,2041.0,365374.0,-13574.5,13
2023-12-06,2023,3,13,-2899.0,362475.0,-16473.5,13
2023-12-07,2023,3,13,5291.0,367766.0,-11182.5,13
2023-12-08,2023,3,13,1885.0,369651.0,-9297.5,13
2023-12-10,2023,3,13,312.0,369963.0,-8985.5,13
2023-12-11,2023,3,13,9106.5,379069.5,0.0,13
2023-12-12,2023,3,13,4023.5,383093.0,0.0,13
2023-12-13,2023,3,13,5369.0,388462.0,0.0,13
2023-12-14,2023,3,13,-1443.0,387019.0,-1443.0,13
2023-12-15,2023,3,13,1443.0,388462.0,0.0,13
2023-12-17,2023,3,13,201.5,388663.5,0.0,13
2023-12-18,2023,3,13,2613.0,391276.5,0.0,13
2023-12-19,2023,3,13,2691.0,393967.5,0.0,13
2023-12-20,2023,3,13,-5616.0,388351.5,-5616.0,13
2023-12-21,2023,3,13,3386.5,391738.0,-2229.5,13
2023-12-22,2023,3,13,533.0,392271.0,-1696.5,13
2023-12-25,2023,3,13,1079.0,393350.0,-617.5,13
2023-12-26,2023,3,13,2223.0,395573.0,0.0,13
2023-12-27,2023,3,13,838.5,396411.5,0.0,13
2023-12-28,2023,3,13,-546.0,395865.5,-546.0,13
2023-12-29,2023,3,13,-2515.5,393350.0,-3061.5,13
2024-01-01,2024,7,17,875.5,394225.5,-2186.0,17
2024-01-02,2024,7,17,-10378.5,383847.0,-12564.5,17
2024-01-03,2024,7,17,-5950.0,377897.0,-18514.5,17
2024-01-04,2024,7,17,-3162.0,374735.0,-21676.5,17
2024-01-05,2024,7,17,323.0,375058.0,-21353.5,17
2024-01-07,2024,7,17,569.5,375627.5,-20784.0,17
2024-01-08,2024,7,17,10285.0,385912.5,-10499.0,17
2024-01-09,2024,7,17,1793.5,387706.0,-8705.5,17
2024-01-10,2024,7,17,4173.5,391879.5,-4532.0,17
2024-01-11,2024,7,17,-306.0,391573.5,-4838.0,17
2024-01-12,2024,7,17,110.5,391684.0,-4727.5,17
2024-01-14,2024,7,17,-331.5,391352.5,-5059.0,17
2024-01-15,2024,7,17,-340.0,391012.5,-5399.0,17
2024-01-16,2024,7,17,1496.0,392508.5,-3903.0,17
2024-01-17,2024,7,17,-4267.0,388241.5,-8170.0,17
2024-01-18,2024,7,17,10030.0,398271.5,0.0,17
2024-01-19,2024,7,17,10693.0,408964.5,0.0,17
2024-01-21,2024,7,17,697.0,409661.5,0.0,17
2024-01-22,2024,7,17,-654.5,409007.0,-654.5,17
2024-01-23,2024,7,17,3791.0,412798.0,0.0,17
2024-01-24,2024,7,17,1394.0,414192.0,0.0,17
2024-01-25,2024,7,17,-2533.0,411659.0,-2533.0,17
2024-01-26,2024,7,17,-1283.5,410375.5,-3816.5,17
2024-01-28,2024,7,17,-850.0,409525.5,-4666.5,17
2024-01-29,2024,7,17,8236.5,417762.0,0.0,17
2024-01-30,2024,7,17,-9307.5,408454.5,-9307.5,17
2024-01-31,2024,7,17,-5635.5,402819.0,-14943.0,17
2024-02-01,2024,7,17,10574.0,413393.0,-4369.0,17
2024-02-02,2024,7,17,3145.0,416538.0,-1224.0,17
2024-02-04,2024,7,17,731.0,417269.0,-493.0,17
2024-02-05,2024,7,17,-382.5,416886.5,-875.5,17
2024-02-06,2024,7,17,-1504.5,415382.0,-2380.0,17
2024-02-07,2024,7,17,6477.0,421859.0,0.0,17
2024-02-08,2024,7,17,841.5,422700.5,0.0,17
2024-02-09,2024,7,17,5797.0,428497.5,0.0,17
2024-02-11,2024,7,17,-93.5,428404.0,-93.5,17
2024-02-12,2024,7,17,-3323.5,425080.5,-3417.0,17
2024-02-13,2024,7,17,-8398.0,416682.5,-11815.0,17
2024-02-14,2024,7,17,6409.0,423091.5,-5406.0,17
2024-02-15,2024,7,17,2507.5,425599.0,-2898.5,17
2024-02-16,2024,7,17,-7862.5,417736.5,-10761.0,17
2024-02-18,2024,7,17,1912.5,419649.0,-8848.5,17
2024-02-19,2024,7,17,-994.5,418654.5,-9843.0,17
2024-02-20,2024,7,17,-6120.0,412534.5,-15963.0,17
2024-02-21,2024,7,17,4615.5,417150.0,-11347.5,17
2024-02-22,2024,7,17,11475.0,428625.0,0.0,17
2024-02-23,2024,7,17,-2737.0,425888.0,-2737.0,17
2024-02-25,2024,7,17,731.0,426619.0,-2006.0,17
2024-02-26,2024,7,17,-663.0,425956.0,-2669.0,17
2024-02-27,2024,7,17,1428.0,427384.0,-1241.0,17
2024-02-28,2024,7,17,-4598.5,422785.5,-5839.5,17
2024-02-29,2024,7,17,6451.5,429237.0,0.0,17
2024-03-01,2024,7,17,8908.0,438145.0,0.0,17
2024-03-03,2024,7,17,748.0,438893.0,0.0,17
2024-03-04,2024,7,17,-4088.5,434804.5,-4088.5,17
2024-03-05,2024,7,17,-8865.5,425939.0,-12954.0,17
2024-03-06,2024,7,17,1904.0,427843.0,-11050.0,17
2024-03-07,2024,7,17,8423.5,436266.5,-2626.5,17
2024-03-08,2024,7,17,-7174.0,429092.5,-9800.5,17
2024-03-10,2024,7,17,-425.0,428667.5,-10225.5,17
2024-03-11,2024,7,17,8542.5,437210.0,-1683.0,17
2024-03-12,2024,7,17,6273.0,443483.0,0.0,17
2024-03-13,2024,7,17,-3587.0,439896.0,-3587.0,17
2024-03-14,2024,7,17,-4573.0,435323.0,-8160.0,17
2024-03-15,2024,7,17,-5950.0,429373.0,-14110.0,17
2024-03-17,2024,7,17,527.0,429900.0,-13583.0,17
2024-03-18,2024,7,17,3825.0,433725.0,-9758.0,17
2024-03-19,2024,7,17,2618.0,436343.0,-7140.0,17
2024-03-20,2024,7,17,10548.5,446891.5,0.0,17
2024-03-21,2024,7,17,348.5,447240.0,0.0,17
2024-03-22,2024,7,17,-850.0,446390.0,-850.0,17
2024-03-24,2024,7,17,748.0,447138.0,-102.0,17
2024-03-25,2024,7,17,-1547.0,445591.0,-1649.0,17
2024-03-26,2024,7,17,-1742.5,443848.5,-3391.5,17
2024-03-27,2024,7,17,-306.0,443542.5,-3697.5,17
2024-03-28,2024,7,17,-510.0,443032.5,-4207.5,17
2024-03-31,2024,7,17,4870.5,447903.0,0.0,17
2024-04-01,2024,7,17,-4700.5,443202.5,-4700.5,17
2024-04-02,2024,7,17,-4819.5,438383.0,-9520.0,17
2024-04-03,2024,7,17,3986.5,442369.5,-5533.5,17
2024-04-04,2024,7,17,-12044.5,430325.0,-17578.0,17
2024-04-05,2024,7,17,7446.0,437771.0,-10132.0,17
2024-04-07,2024,7,17,289.0,438060.0,-9843.0,17
2024-04-08,2024,7,17,-586.5,437473.5,-10429.5,17
2024-04-09,2024,7,17,2252.5,439726.0,-8177.0,17
2024-04-10,2024,7,17,-7123.0,432603.0,-15300.0,17
2024-04-11,2024,7,17,11279.5,443882.5,-4020.5,17
2024-04-12,2024,7,17,-10837.5,433045.0,-14858.0,17
2024-04-14,2024,7,17,2252.5,435297.5,-12605.5,17
2024-04-15,2024,7,17,-12486.5,422811.0,-25092.0,17
2024-04-16,2024,7,17,2218.5,425029.5,-22873.5,17
2024-04-17,2024,7,17,-8483.0,416546.5,-31356.5,17
2024-04-18,2024,7,17,-6689.5,409857.0,-38046.0,17
2024-04-19,2024,7,17,-10523.0,399334.0,-48569.0,17
2024-04-21,2024,7,17,3060.0,402394.0,-45509.0,17
2024-04-22,2024,7,17,1785.0,404179.0,-43724.0,17
2024-04-23,2024,7,17,12835.0,417014.0,-30889.0,17
2024-04-24,2024,7,17,-8083.5,408930.5,-38972.5,17
2024-04-25,2024,7,17,10089.5,419020.0,-28883.0,17
2024-04-26,2024,7,17,2652.0,421672.0,-26231.0,17
2024-04-28,2024,7,17,1683.0,423355.0,-24548.0,17
2024-04-29,2024,7,17,782.0,424137.0,-23766.0,17
2024-04-30,2024,7,17,-13668.0,410469.0,-37434.0,17
2024-05-01,2024,7,17,773.5,411242.5,-36660.5,17
2024-05-02,2024,7,17,7607.5,418850.0,-29053.0,17
2024-05-03,2024,7,17,9307.5,428157.5,-19745.5,17
2024-05-05,2024,7,17,-790.5,427367.0,-20536.0,17
2024-05-06,2024,7,17,6103.0,433470.0,-14433.0,17
2024-05-07,2024,7,17,697.0,434167.0,-13736.0,17
2024-05-08,2024,7,17,-1445.0,432722.0,-15181.0,17
2024-05-09,2024,7,17,2363.0,435085.0,-12818.0,17
2024-05-10,2024,7,17,280.5,435365.5,-12537.5,17
2024-05-12,2024,7,17,204.0,435569.5,-12333.5,17
2024-05-13,2024,7,17,1300.5,436870.0,-11033.0,17
2024-05-14,2024,7,17,4530.5,441400.5,-6502.5,17
2024-05-15,2024,7,17,10336.0,451736.5,0.0,17
2024-05-16,2024,7,17,-2371.5,449365.0,-2371.5,17
2024-05-17,2024,7,17,-595.0,448770.0,-2966.5,17
2024-05-19,2024,7,17,1130.5,449900.5,-1836.0,17
2024-05-20,2024,7,17,2881.5,452782.0,0.0,17
2024-05-21,2024,7,17,2099.5,454881.5,0.0,17
2024-05-22,2024,7,17,2082.5,456964.0,0.0,17
2024-05-23,2024,7,17,-5907.5,451056.5,-5907.5,17
2024-05-24,2024,7,17,5797.0,456853.5,-110.5,17
2024-05-26,2024,7,17,-1198.5,455655.0,-1309.0,17
2024-05-27,2024,7,17,2439.5,458094.5,0.0,17
2024-05-28,2024,7,17,739.5,458834.0,0.0,17
2024-05-29,2024,7,17,-7021.0,451813.0,-7021.0,17
2024-05-30,2024,7,17,-5593.0,446220.0,-12614.0,17
2024-05-31,2024,7,17,433.5,446653.5,-12180.5,17
2024-06-02,2024,7,17,688.5,447342.0,-11492.0,17
2024-06-03,2024,7,17,1989.0,449331.0,-9503.0,17
2024-06-04,2024,7,17,2966.5,452297.5,-6536.5,17
2024-06-05,2024,7,17,12019.0,464316.5,0.0,17
2024-06-06,2024,7,17,-552.5,463764.0,-552.5,17
2024-06-07,2024,7,17,-1496.0,462268.0,-2048.5,17
2024-06-09,2024,7,17,-136.0,462132.0,-2184.5,17
2024-06-10,2024,7,17,1963.5,464095.5,-221.0,17
2024-06-11,2024,7,17,5848.0,469943.5,0.0,17
2024-06-12,2024,7,17,11679.0,481622.5,0.0,17
2024-06-13,2024,7,17,620.5,482243.0,0.0,17
2024-06-14,2024,7,17,2643.5,484886.5,0.0,17
2024-06-16,2024,7,17,518.5,485405.0,0.0,17
2024-06-17,2024,7,17,16779.0,502184.0,0.0,17
2024-06-18,2024,7,17,620.5,502804.5,0.0,17
2024-06-19,2024,7,17,433.5,503238.0,0.0,17
2024-06-20,2024,7,17,-5661.0,497577.0,-5661.0,17
2024-06-21,2024,7,17,-2057.0,495520.0,-7718.0,17
2024-06-23,2024,7,17,-25.5,495494.5,-7743.5,17
2024-06-24,2024,7,17,-8041.0,487453.5,-15784.5,17
2024-06-25,2024,7,17,6596.0,494049.5,-9188.5,17
2024-06-26,2024,7,17,-1598.0,492451.5,-10786.5,17
2024-06-27,2024,7,17,6009.5,498461.0,-4777.0,17
2024-06-28,2024,7,17,-4369.0,494092.0,-9146.0,17
2024-06-30,2024,7,17,-714.0,493378.0,-9860.0,17
2024-07-01,2024,7,17,2482.0,495860.0,-7378.0,17
2024-07-02,2024,7,17,7437.5,503297.5,0.0,17
2024-07-03,2024,7,17,5593.0,508890.5,0.0,17
2024-07-04,2024,7,17,-399.5,508491.0,-399.5,17
2024-07-05,2024,7,17,6791.5,515282.5,0.0,17
2024-07-07,2024,7,17,8.5,515291.0,0.0,17
2024-07-08,2024,7,17,5023.5,520314.5,0.0,17
2024-07-09,2024,7,17,-1385.5,518929.0,-1385.5,17
2024-07-10,2024,7,17,6247.5,525176.5,0.0,17
2024-07-11,2024,7,17,-15869.5,509307.0,-15869.5,17
2024-07-12,2024,7,17,4258.5,513565.5,-11611.0,17
2024-07-14,2024,7,17,688.5,514254.0,-10922.5,17
2024-07-15,2024,7,17,2439.5,516693.5,-8483.0,17
2024-07-16,2024,7,17,-2261.0,514432.5,-10744.0,17
2024-07-17,2024,7,17,-17229.5,497203.0,-27973.5,17
2024-07-18,2024,7,17,-3833.5,493369.5,-31807.0,17
2024-07-19,2024,7,17,-8304.5,485065.0,-40111.5,17
2024-07-21,2024,7,17,3918.5,488983.5,-36193.0,17
2024-07-22,2024,7,17,4683.5,493667.0,-31509.5,17
2024-07-23,2024,7,17,-5508.0,488159.0,-37017.5,17
2024-07-24,2024,7,17,-17722.5,470436.5,-54740.0,17
2024-07-25,2024,7,17,-8423.5,462013.0,-63163.5,17
2024-07-26,2024,7,17,5176.5,467189.5,-57987.0,17
2024-07-28,2024,7,17,2235.5,469425.0,-55751.5,17
2024-07-29,2024,7,17,-3689.0,465736.0,-59440.5,17
2024-07-30,2024,7,17,-2456.5,463279.5,-61897.0,17
2024-07-31,2024,7,17,20859.0,484138.5,-41038.0,17
2024-08-01,2024,7,17,-25865.5,458273.0,-66903.5,17
2024-08-02,2024,7,17,-13727.5,444545.5,-80631.0,17
2024-08-04,2024,7,17,-4012.0,440533.5,-84643.0,0
2024-08-05,2024,7,17,0.0,440533.5,-84643.0,0
2024-08-06,2024,7,17,0.0,440533.5,-84643.0,0
2024-08-07,2024,7,17,0.0,440533.5,-84643.0,0
2024-08-08,2024,7,17,0.0,440533.5,-84643.0,0
2024-08-09,2024,7,17,0.0,440533.5,-84643.0,0
2024-08-11,2024,7,17,0.0,440533.5,-84643.0,0
2024-08-12,2024,7,17,0.0,440533.5,-84643.0,0
2024-08-13,2024,7,17,0.0,440533.5,-84643.0,0
2024-08-14,2024,7,17,0.0,440533.5,-84643.0,0
2024-08-15,2024,7,17,0.0,440533.5,-84643.0,0
2024-08-16,2024,7,17,0.0,440533.5,-84643.0,0
2024-08-18,2024,7,17,0.0,440533.5,-84643.0,0
2024-08-19,2024,7,17,0.0,440533.5,-84643.0,0
2024-08-20,2024,7,17,0.0,440533.5,-84643.0,0
2024-08-21,2024,7,17,0.0,440533.5,-84643.0,0
2024-08-22,2024,7,17,0.0,440533.5,-84643.0,0
2024-08-23,2024,7,17,0.0,440533.5,-84643.0,0
2024-08-25,2024,7,17,0.0,440533.5,-84643.0,0
2024-08-26,2024,7,17,0.0,440533.5,-84643.0,0
2024-08-27,2024,7,17,0.0,440533.5,-84643.0,0
2024-08-28,2024,7,17,0.0,440533.5,-84643.0,0
2024-08-29,2024,7,17,0.0,440533.5,-84643.0,0
2024-08-30,2024,7,17,0.0,440533.5,-84643.0,0
2024-09-01,2024,7,17,0.0,440533.5,-84643.0,0
2024-09-02,2024,7,17,0.0,440533.5,-84643.0,0
2024-09-03,2024,7,17,0.0,440533.5,-84643.0,0
2024-09-04,2024,7,17,0.0,440533.5,-84643.0,0
2024-09-05,2024,7,17,0.0,440533.5,-84643.0,0
2024-09-06,2024,7,17,0.0,440533.5,-84643.0,0
2024-09-08,2024,7,17,0.0,440533.5,-84643.0,0
2024-09-09,2024,7,17,0.0,440533.5,-84643.0,0
2024-09-10,2024,7,17,0.0,440533.5,-84643.0,0
2024-09-11,2024,7,17,0.0,440533.5,-84643.0,0
2024-09-12,2024,7,17,0.0,440533.5,-84643.0,0
2024-09-13,2024,7,17,0.0,440533.5,-84643.0,0
2024-09-15,2024,7,17,0.0,440533.5,-84643.0,0
2024-09-16,2024,7,17,0.0,440533.5,-84643.0,0
2024-09-17,2024,7,17,0.0,440533.5,-84643.0,0
2024-09-18,2024,7,17,0.0,440533.5,-84643.0,0
2024-09-19,2024,7,17,0.0,440533.5,-84643.0,0
2024-09-20,2024,7,17,0.0,440533.5,-84643.0,0
2024-09-22,2024,7,17,0.0,440533.5,-84643.0,0
2024-09-23,2024,7,17,0.0,440533.5,-84643.0,0
2024-09-24,2024,7,17,0.0,440533.5,-84643.0,0
2024-09-25,2024,7,17,0.0,440533.5,-84643.0,0
2024-09-26,2024,7,17,0.0,440533.5,-84643.0,0
2024-09-27,2024,7,17,0.0,440533.5,-84643.0,0
2024-09-29,2024,7,17,0.0,440533.5,-84643.0,0
2024-09-30,2024,7,17,0.0,440533.5,-84643.0,0
2024-10-01,2024,7,17,0.0,440533.5,-84643.0,0
2024-10-02,2024,7,17,0.0,440533.5,-84643.0,0
2024-10-03,2024,7,17,0.0,440533.5,-84643.0,0
2024-10-04,2024,7,17,0.0,440533.5,-84643.0,0
2024-10-06,2024,7,17,0.0,440533.5,-84643.0,0
2024-10-07,2024,7,17,0.0,440533.5,-84643.0,0
2024-10-08,2024,7,17,0.0,440533.5,-84643.0,0
2024-10-09,2024,7,17,0.0,440533.5,-84643.0,0
2024-10-10,2024,7,17,0.0,440533.5,-84643.0,0
2024-10-11,2024,7,17,0.0,440533.5,-84643.0,0
2024-10-13,2024,7,17,-135.0,440398.5,-84778.0,10
2024-10-14,2024,7,17,-5.0,440393.5,-84783.0,0
2024-10-15,2024,7,17,-5595.0,434798.5,-90378.0,10
2024-10-16,2024,7,17,5.0,434803.5,-90373.0,0
2024-10-17,2024,7,17,0.0,434803.5,-90373.0,0
2024-10-18,2024,7,17,0.0,434803.5,-90373.0,0
2024-10-20,2024,7,17,355.0,435158.5,-90018.0,10
2024-10-21,2024,7,17,45.0,435203.5,-89973.0,10
2024-10-22,2024,7,17,275.0,435478.5,-89698.0,10
2024-10-23,2024,7,17,-4790.0,430688.5,-94488.0,10
2024-10-24,2024,7,17,0.0,430688.5,-94488.0,0
2024-10-25,2024,7,17,0.0,430688.5,-94488.0,0
2024-10-27,2024,7,17,1490.0,432178.5,-92998.0,10
2024-10-28,2024,7,17,-1810.0,430368.5,-94808.0,10
2024-10-29,2024,7,17,4800.0,435168.5,-90008.0,10
2024-10-30,2024,7,17,-6430.0,428738.5,-96438.0,10
2024-10-31,2024,7,17,-15.0,428723.5,-96453.0,0
2024-11-01,2024,7,17,0.0,428723.5,-96453.0,0
2024-11-03,2024,7,17,0.0,428723.5,-96453.0,0
2024-11-04,2024,7,17,0.0,428723.5,-96453.0,0
2024-11-05,2024,7,17,0.0,428723.5,-96453.0,0
2024-11-06,2024,7,17,0.0,428723.5,-96453.0,0
2024-11-07,2024,7,17,6715.0,435438.5,-89738.0,10
2024-11-08,2024,7,17,10.0,435448.5,-89728.0,10
2024-11-10,2024,7,17,1540.0,436988.5,-88188.0,10
2024-11-11,2024,7,17,-1760.0,435228.5,-89948.0,10
2024-11-12,2024,7,17,-1120.0,434108.5,-91068.0,10
2024-11-13,2024,7,17,120.0,434228.5,-90948.0,10
2024-11-14,2024,7,17,-4330.0,429898.5,-95278.0,10
2024-11-15,2024,7,17,-8412.5,421486.0,-103690.5,17
2024-11-17,2024,7,17,2201.5,423687.5,-101489.0,17
2024-11-18,2024,7,17,1836.0,425523.5,-99653.0,17
2024-11-19,2024,7,17,5465.5,430989.0,-94187.5,17
2024-11-20,2024,7,17,-1037.0,429952.0,-95224.5,17
2024-11-21,2024,7,17,714.0,430666.0,-94510.5,17
2024-11-22,2024,7,17,3561.5,434227.5,-90949.0,17
2024-11-24,2024,7,17,1946.5,436174.0,-89002.5,17
2024-11-25,2024,7,17,-3451.0,432723.0,-92453.5,17
2024-11-26,2024,7,17,5151.0,437874.0,-87302.5,17
2024-11-27,2024,7,17,-5525.0,432349.0,-92827.5,17
2024-11-28,2024,7,17,2193.0,434542.0,-90634.5,17
2024-11-29,2024,7,17,3527.5,438069.5,-87107.0,17
2024-12-01,2024,7,17,-918.0,437151.5,-88025.0,17
2024-12-02,2024,7,17,8474.5,445626.0,-79550.5,17
2024-12-03,2024,7,17,4046.0,449672.0,-75504.5,17
2024-12-04,2024,7,17,6035.0,455707.0,-69469.5,17
2024-12-05,2024,7,17,-1853.0,453854.0,-71322.5,17
2024-12-06,2024,7,17,6060.5,459914.5,-65262.0,17
2024-12-08,2024,7,17,807.5,460722.0,-64454.5,17
2024-12-09,2024,7,17,-6536.5,454185.5,-70991.0,17
2024-12-10,2024,7,17,-1258.0,452927.5,-72249.0,17
2024-12-11,2024,7,17,11211.5,464139.0,-61037.5,17
2024-12-12,2024,7,17,-467.5,463671.5,-61505.0,17
2024-12-13,2024,7,17,544.0,464215.5,-60961.0,17
2024-12-15,2024,7,17,977.5,465193.0,-59983.5,17
2024-12-16,2024,7,17,10531.5,475724.5,-49452.0,17
2024-12-17,2024,7,17,5958.5,481683.0,-43493.5,17
2024-12-18,2024,7,17,-27310.5,454372.5,-70804.0,17
2024-12-19,2024,7,17,-3289.5,451083.0,-74093.5,17
2024-12-20,2024,7,17,6077.5,457160.5,-68016.0,17
2024-12-22,2024,7,17,3510.5,460671.0,-64505.5,17
2024-12-23,2024,7,17,2754.0,463425.0,-61751.5,17
2024-12-24,2024,7,17,10506.0,473931.0,-51245.5,17
2024-12-25,2024,7,17,467.5,474398.5,-50778.0,17
2024-12-26,2024,7,17,-1844.5,472554.0,-52622.5,17
2024-12-27,2024,7,17,-9707.0,462847.0,-62329.5,17
2024-12-29,2024,7,17,-603.5,462243.5,-62933.0,17
2024-12-30,2024,7,17,-10582.5,451661.0,-73515.5,17
2024-12-31,2024,7,17,-5312.5,446348.5,-78828.0,17
2025-01-01,2025,8,18,1170.0,447518.5,-77658.0,18
2025-01-02,2025,8,18,-3753.0,443765.5,-81411.0,18
2025-01-03,2025,8,18,11772.0,455537.5,-69639.0,18
2025-01-05,2025,8,18,1260.0,456797.5,-68379.0,18
2025-01-06,2025,8,18,8856.0,465653.5,-59523.0,18
2025-01-07,2025,8,18,-13617.0,452036.5,-73140.0,18
2025-01-08,2025,8,18,-2799.0,449237.5,-75939.0,18
2025-01-09,2025,8,18,-2781.0,446456.5,-78720.0,18
2025-01-10,2025,8,18,-8703.0,437753.5,-87423.0,18
2025-01-12,2025,8,18,144.0,437897.5,-87279.0,18
2025-01-13,2025,8,18,1629.0,439526.5,-85650.0,18
2025-01-14,2025,8,18,-3510.0,436016.5,-89160.0,18
2025-01-15,2025,8,18,16830.0,452846.5,-72330.0,18
2025-01-16,2025,8,18,-6516.0,446330.5,-78846.0,18
2025-01-17,2025,8,18,12807.0,459137.5,-66039.0,18
2025-01-19,2025,8,18,-1620.0,457517.5,-67659.0,18
2025-01-20,2025,8,18,6723.0,464240.5,-60936.0,18
2025-01-21,2025,8,18,2790.0,467030.5,-58146.0,18
2025-01-22,2025,8,18,5616.0,472646.5,-52530.0,18
2025-01-23,2025,8,18,1629.0,474275.5,-50901.0,18
2025-01-24,2025,8,18,-3681.0,470594.5,-54582.0,18
2025-01-26,2025,8,18,-8730.0,461864.5,-63312.0,18
2025-01-27,2025,8,18,-12186.0,449678.5,-75498.0,18
2025-01-28,2025,8,18,7848.0,457526.5,-67650.0,18
2025-01-29,2025,8,18,-252.0,457274.5,-67902.0,18
2025-01-30,2025,8,18,5760.0,463034.5,-62142.0,18
2025-01-31,2025,8,18,-4581.0,458453.5,-66723.0,18
2025-02-02,2025,8,18,-16488.0,441965.5,-83211.0,18
2025-02-03,2025,8,18,16497.0,458462.5,-66714.0,18
2025-02-04,2025,8,18,-153.0,458309.5,-66867.0,18
2025-02-05,2025,8,18,7434.0,465743.5,-59433.0,18
2025-02-06,2025,8,18,2889.0,468632.5,-56544.0,18
2025-02-07,2025,8,18,-10026.0,458606.5,-66570.0,18
2025-02-09,2025,8,18,2556.0,461162.5,-64014.0,18
2025-02-10,2025,8,18,5355.0,466517.5,-58659.0,18
2025-02-11,2025,8,18,567.0,467084.5,-58092.0,18
2025-02-12,2025,8,18,2781.0,469865.5,-55311.0,18
2025-02-13,2025,8,18,7065.0,476930.5,-48246.0,18
2025-02-14,2025,8,18,4266.0,481196.5,-43980.0,18
2025-02-16,2025,8,18,306.0,481502.5,-43674.0,18
2025-02-17,2025,8,18,324.0,481826.5,-43350.0,18
2025-02-18,2025,8,18,1080.0,482906.5,-42270.0,18
2025-02-19,2025,8,18,-1188.0,481718.5,-43458.0,18
2025-02-20,2025,8,18,-2016.0,479702.5,-45474.0,18
2025-02-21,2025,8,18,-18072.0,461630.5,-63546.0,18
2025-02-23,2025,8,18,3546.0,465176.5,-60000.0,18
2025-02-24,2025,8,18,-13419.0,451757.5,-73419.0,18
2025-02-25,2025,8,18,-5751.0,446006.5,-79170.0,18
2025-02-26,2025,8,18,-450.0,445556.5,-79620.0,18
2025-02-27,2025,8,18,-19404.0,426152.5,-99024.0,18
2025-02-28,2025,8,18,8496.0,434648.5,-90528.0,18
2025-03-02,2025,8,18,2115.0,436763.5,-88413.0,18
2025-03-03,2025,8,18,-16353.0,420410.5,-104766.0,18
2025-03-04,2025,8,18,2322.0,422732.5,-102444.0,18
2025-03-05,2025,8,18,954.0,423686.5,-101490.0,18
2025-03-06,2025,8,18,-15066.0,408620.5,-116556.0,18
2025-03-07,2025,8,18,0.0,408620.5,-116556.0,0
2025-03-09,2025,8,18,0.0,408620.5,-116556.0,0
2025-03-10,2025,8,18,0.0,408620.5,-116556.0,0
2025-03-11,2025,8,18,0.0,408620.5,-116556.0,0
2025-03-12,2025,8,18,0.0,408620.5,-116556.0,0
2025-03-13,2025,8,18,0.0,408620.5,-116556.0,0
2025-03-14,2025,8,18,0.0,408620.5,-116556.0,0
2025-03-16,2025,8,18,0.0,408620.5,-116556.0,0
2025-03-17,2025,8,18,0.0,408620.5,-116556.0,0
2025-03-18,2025,8,18,0.0,408620.5,-116556.0,0
2025-03-19,2025,8,18,0.0,408620.5,-116556.0,0
2025-03-20,2025,8,18,0.0,408620.5,-116556.0,0
2025-03-21,2025,8,18,0.0,408620.5,-116556.0,0
2025-03-23,2025,8,18,0.0,408620.5,-116556.0,0
2025-03-24,2025,8,18,0.0,408620.5,-116556.0,0
2025-03-25,2025,8,18,0.0,408620.5,-116556.0,0
2025-03-26,2025,8,18,-10224.5,398396.0,-126780.5,11
2025-03-27,2025,8,18,11.0,398407.0,-126769.5,0
2025-03-28,2025,8,18,0.0,398407.0,-126769.5,0
2025-03-30,2025,8,18,0.0,398407.0,-126769.5,0
2025-03-31,2025,8,18,0.0,398407.0,-126769.5,0
2025-04-01,2025,8,18,0.0,398407.0,-126769.5,0
2025-04-02,2025,8,18,0.0,398407.0,-126769.5,0
2025-04-03,2025,8,18,0.0,398407.0,-126769.5,0
2025-04-04,2025,8,18,0.0,398407.0,-126769.5,0
2025-04-06,2025,8,18,0.0,398407.0,-126769.5,0
2025-04-07,2025,8,18,0.0,398407.0,-126769.5,0
2025-04-08,2025,8,18,0.0,398407.0,-126769.5,0
2025-04-09,2025,8,18,0.0,398407.0,-126769.5,0
2025-04-10,2025,8,18,0.0,398407.0,-126769.5,0
2025-04-11,2025,8,18,0.0,398407.0,-126769.5,0
2025-04-13,2025,8,18,0.0,398407.0,-126769.5,0
2025-04-14,2025,8,18,0.0,398407.0,-126769.5,0
2025-04-15,2025,8,18,0.0,398407.0,-126769.5,0
2025-04-16,2025,8,18,0.0,398407.0,-126769.5,0
2025-04-17,2025,8,18,0.0,398407.0,-126769.5,0
2025-04-20,2025,8,18,0.0,398407.0,-126769.5,0
2025-04-21,2025,8,18,0.0,398407.0,-126769.5,0
2025-04-22,2025,8,18,0.0,398407.0,-126769.5,0
2025-04-23,2025,8,18,0.0,398407.0,-126769.5,0
2025-04-24,2025,8,18,0.0,398407.0,-126769.5,0
2025-04-25,2025,8,18,0.0,398407.0,-126769.5,0
2025-04-27,2025,8,18,0.0,398407.0,-126769.5,0
2025-04-28,2025,8,18,0.0,398407.0,-126769.5,0
2025-04-29,2025,8,18,0.0,398407.0,-126769.5,0
2025-04-30,2025,8,18,0.0,398407.0,-126769.5,0
2025-05-01,2025,8,18,0.0,398407.0,-126769.5,0
2025-05-02,2025,8,18,0.0,398407.0,-126769.5,0
2025-05-04,2025,8,18,0.0,398407.0,-126769.5,0
2025-05-05,2025,8,18,0.0,398407.0,-126769.5,0
2025-05-06,2025,8,18,0.0,398407.0,-126769.5,0
2025-05-07,2025,8,18,0.0,398407.0,-126769.5,0
2025-05-08,2025,8,18,0.0,398407.0,-126769.5,0
2025-05-09,2025,8,18,0.0,398407.0,-126769.5,0
2025-05-11,2025,8,18,0.0,398407.0,-126769.5,0
2025-05-12,2025,8,18,0.0,398407.0,-126769.5,0
2025-05-13,2025,8,18,0.0,398407.0,-126769.5,0
2025-05-14,2025,8,18,0.0,398407.0,-126769.5,0
2025-05-15,2025,8,18,0.0,398407.0,-126769.5,0
2025-05-16,2025,8,18,0.0,398407.0,-126769.5,0
2025-05-18,2025,8,18,0.0,398407.0,-126769.5,0
2025-05-19,2025,8,18,0.0,398407.0,-126769.5,0
2025-05-20,2025,8,18,0.0,398407.0,-126769.5,0
2025-05-21,2025,8,18,0.0,398407.0,-126769.5,0
2025-05-22,2025,8,18,0.0,398407.0,-126769.5,0
2025-05-23,2025,8,18,0.0,398407.0,-126769.5,0
2025-05-25,2025,8,18,0.0,398407.0,-126769.5,0
2025-05-26,2025,8,18,0.0,398407.0,-126769.5,0
2025-05-27,2025,8,18,0.0,398407.0,-126769.5,0
2025-05-28,2025,8,18,0.0,398407.0,-126769.5,0
2025-05-29,2025,8,18,0.0,398407.0,-126769.5,0
2025-05-30,2025,8,18,0.0,398407.0,-126769.5,0
2025-06-01,2025,8,18,0.0,398407.0,-126769.5,0
2025-06-02,2025,8,18,0.0,398407.0,-126769.5,0
2025-06-03,2025,8,18,0.0,398407.0,-126769.5,0
2025-06-04,2025,8,18,0.0,398407.0,-126769.5,0
2025-06-05,2025,8,18,0.0,398407.0,-126769.5,0
2025-06-06,2025,8,18,0.0,398407.0,-126769.5,0
2025-06-08,2025,8,18,-825.0,397582.0,-127594.5,11
2025-06-09,2025,8,18,16.5,397598.5,-127578.0,0
2025-06-10,2025,8,18,2678.5,400277.0,-124899.5,11
2025-06-11,2025,8,18,-2557.5,397719.5,-127457.0,11
2025-06-12,2025,8,18,-1199.0,396520.5,-128656.0,11
2025-06-13,2025,8,18,22.0,396542.5,-128634.0,0
2025-06-15,2025,8,18,0.0,396542.5,-128634.0,0
2025-06-16,2025,8,18,0.0,396542.5,-128634.0,0
2025-06-17,2025,8,18,-2442.0,394100.5,-131076.0,11
2025-06-18,2025,8,18,951.5,395052.0,-130124.5,11
2025-06-19,2025,8,18,-1358.5,393693.5,-131483.0,11
2025-06-20,2025,8,18,-286.0,393407.5,-131769.0,11
2025-06-22,2025,8,18,-2491.5,390916.0,-134260.5,11
2025-06-23,2025,8,18,0.0,390916.0,-134260.5,0
2025-06-24,2025,8,18,4119.5,395035.5,-130141.0,11
2025-06-25,2025,8,18,896.5,395932.0,-129244.5,11
2025-06-26,2025,8,18,4680.5,400612.5,-124564.0,11
2025-06-27,2025,8,18,1375.0,401987.5,-123189.0,11
2025-06-29,2025,8,18,1694.0,403681.5,-121495.0,11
2025-06-30,2025,8,18,1413.5,405095.0,-120081.5,11
2025-07-01,2025,8,18,-3811.5,401283.5,-123893.0,11
2025-07-02,2025,8,18,3085.5,404369.0,-120807.5,11
2025-07-03,2025,8,18,4097.5,408466.5,-116710.0,11
2025-07-04,2025,8,18,-2865.5,405601.0,-119575.5,18
2025-07-06,2025,8,18,2853.0,408454.0,-116722.5,18
2025-07-07,2025,8,18,-3951.0,404503.0,-120673.5,18
2025-07-08,2025,8,18,981.0,405484.0,-119692.5,18
2025-07-09,2025,8,18,4815.0,410299.0,-114877.5,18
2025-07-10,2025,8,18,342.0,410641.0,-114535.5,18
2025-07-11,2025,8,18,-3861.0,406780.0,-118396.5,18
2025-07-13,2025,8,18,-2547.0,404233.0,-120943.5,18
2025-07-14,2025,8,18,5220.0,409453.0,-115723.5,18
2025-07-15,2025,8,18,99.0,409552.0,-115624.5,18
2025-07-16,2025,8,18,945.0,410497.0,-114679.5,18
2025-07-17,2025,8,18,8631.0,419128.0,-106048.5,18
2025-07-18,2025,8,18,-1854.0,417274.0,-107902.5,18
2025-07-20,2025,8,18,1125.0,418399.0,-106777.5,18
2025-07-21,2025,8,18,3114.0,421513.0,-103663.5,18
2025-07-22,2025,8,18,-3051.0,418462.0,-106714.5,18
2025-07-23,2025,8,18,5013.0,423475.0,-101701.5,18
2025-07-24,2025,8,18,189.0,423664.0,-101512.5,18
2025-07-25,2025,8,18,1476.0,425140.0,-100036.5,18
2025-07-27,2025,8,18,3132.0,428272.0,-96904.5,18
2025-07-28,2025,8,18,-207.0,428065.0,-97111.5,18
2025-07-29,2025,8,18,-1935.0,426130.0,-99046.5,18
2025-07-30,2025,8,18,9009.0,435139.0,-90037.5,18
2025-07-31,2025,8,18,-15390.0,419749.0,-105427.5,18
2025-08-01,2025,8,18,-15426.0,404323.0,-120853.5,18
2025-08-03,2025,8,18,2088.0,406411.0,-118765.5,18
2025-08-04,2025,8,18,14652.0,421063.0,-104113.5,18
2025-08-05,2025,8,18,-10125.0,410938.0,-114238.5,18
2025-08-06,2025,8,18,14355.0,425293.0,-99883.5,18
2025-08-07,2025,8,18,3186.0,428479.0,-96697.5,18
2025-08-08,2025,8,18,8181.0,436660.0,-88516.5,18
2025-08-10,2025,8,18,-2142.0,434518.0,-90658.5,18
2025-08-11,2025,8,18,-2556.0,431962.0,-93214.5,18
2025-08-12,2025,8,18,11655.0,443617.0,-81559.5,18
2025-08-13,2025,8,18,-405.0,443212.0,-81964.5,18
2025-08-14,2025,8,18,-2178.0,441034.0,-84142.5,18
2025-08-15,2025,8,18,-3321.0,437713.0,-87463.5,18
2025-08-17,2025,8,18,1962.0,439675.0,-85501.5,18
2025-08-18,2025,8,18,-1665.0,438010.0,-87166.5,18
2025-08-19,2025,8,18,-13779.0,424231.0,-100945.5,18
2025-08-20,2025,8,18,-3690.0,420541.0,-104635.5,18
2025-08-21,2025,8,18,-2574.0,417967.0,-107209.5,18
2025-08-22,2025,8,18,12051.0,430018.0,-95158.5,18
2025-08-24,2025,8,18,-297.0,429721.0,-95455.5,18
2025-08-25,2025,8,18,-2808.0,426913.0,-98263.5,18
2025-08-26,2025,8,18,4230.0,431143.0,-94033.5,18
2025-08-27,2025,8,18,-3807.0,427336.0,-97840.5,18
2025-08-28,2025,8,18,8640.0,435976.0,-89200.5,18
2025-08-29,2025,8,18,-10575.0,425401.0,-99775.5,18
2025-08-31,2025,8,18,3006.0,428407.0,-96769.5,18
2025-09-01,2025,8,18,-3330.0,425077.0,-100099.5,18
2025-09-02,2025,8,18,-3996.0,421081.0,-104095.5,18
2025-09-03,2025,8,18,3726.0,424807.0,-100369.5,18
2025-09-04,2025,8,18,9657.0,434464.0,-90712.5,18
2025-09-05,2025,8,18,-1197.0,433267.0,-91909.5,18
2025-09-07,2025,8,18,3771.0,437038.0,-88138.5,18
2025-09-08,2025,8,18,1062.0,438100.0,-87076.5,18
2025-09-09,2025,8,18,2826.0,440926.0,-84250.5,18
2025-09-10,2025,8,18,540.0,441466.0,-83710.5,18
2025-09-11,2025,8,18,4266.0,445732.0,-79444.5,18
2025-09-12,2025,8,18,3429.0,449161.0,-76015.5,18
2025-09-14,2025,8,18,-126.0,449035.0,-76141.5,18
2025-09-15,2025,8,18,6984.0,456019.0,-69157.5,18
2025-09-16,2025,8,18,8568.0,464587.0,-60589.5,18
2025-09-17,2025,8,18,1476.0,466063.0,-59113.5,18
2025-09-18,2025,8,18,5616.0,471679.0,-53497.5,18
2025-09-19,2025,8,18,4365.0,476044.0,-49132.5,18
2025-09-21,2025,8,18,-360.0,475684.0,-49492.5,18
2025-09-22,2025,8,18,5265.0,480949.0,-44227.5,18
2025-09-23,2025,8,18,-5643.0,475306.0,-49870.5,18
2025-09-24,2025,8,18,-3060.0,472246.0,-52930.5,18
2025-09-25,2025,8,18,-5004.0,467242.0,-57934.5,18
2025-09-26,2025,8,18,3987.0,471229.0,-53947.5,18
2025-09-28,2025,8,18,1611.0,472840.0,-52336.5,18
2025-09-29,2025,8,18,1863.0,474703.0,-50473.5,18
2025-09-30,2025,8,18,225.0,474928.0,-50248.5,18
2025-10-01,2025,8,18,6921.0,481849.0,-43327.5,18
2025-10-02,2025,8,18,3663.0,485512.0,-39664.5,18
2025-10-03,2025,8,18,-5139.0,480373.0,-44803.5,18
2025-10-05,2025,8,18,3069.0,483442.0,-41734.5,18
2025-10-06,2025,8,18,2709.0,486151.0,-39025.5,18
2025-10-07,2025,8,18,-3906.0,482245.0,-42931.5,18
2025-10-08,2025,8,18,12438.0,494683.0,-30493.5,18
2025-10-09,2025,8,18,-1584.0,493099.0,-32077.5,18
2025-10-10,2025,8,18,-41283.0,451816.0,-73360.5,18
2025-10-12,2025,8,18,21519.0,473335.0,-51841.5,18
2025-10-13,2025,8,18,4536.0,477871.0,-47305.5,18
2025-10-14,2025,8,18,-5004.0,472867.0,-52309.5,18
2025-10-15,2025,8,18,6129.0,478996.0,-46180.5,18
2025-10-16,2025,8,18,-6597.0,472399.0,-52777.5,18
2025-10-17,2025,8,18,9828.0,482227.0,-42949.5,18
2025-10-19,2025,8,18,-747.0,481480.0,-43696.5,18
2025-10-20,2025,8,18,11214.0,492694.0,-32482.5,18
2025-10-21,2025,8,18,-2835.0,489859.0,-35317.5,18
2025-10-22,2025,8,18,-8946.0,480913.0,-44263.5,18
2025-10-23,2025,8,18,10836.0,491749.0,-33427.5,18
2025-10-24,2025,8,18,7659.0,499408.0,-25768.5,18
2025-10-26,2025,8,18,7452.0,506860.0,-18316.5,18
2025-10-27,2025,8,18,9990.0,516850.0,-8326.5,18
2025-10-28,2025,8,18,6813.0,523663.0,-1513.5,18
2025-10-29,2025,8,18,1863.0,525526.0,0.0,18
2025-10-30,2025,8,18,-2349.0,523177.0,-2349.0,18
2025-10-31,2025,8,18,-6723.0,516454.0,-9072.0,18
2025-11-02,2025,8,18,3492.0,519946.0,-5580.0,18
2025-11-03,2025,8,18,-423.0,519523.0,-6003.0,18
2025-11-04,2025,8,18,-20349.0,499174.0,-26352.0,18
2025-11-05,2025,8,18,9693.0,508867.0,-16659.0,18
2025-11-06,2025,8,18,-16425.0,492442.0,-33084.0,18
2025-11-07,2025,8,18,-3222.0,489220.0,-36306.0,18
2025-11-09,2025,8,18,3915.0,493135.0,-32391.0,18
2025-11-10,2025,8,18,14643.0,507778.0,-17748.0,18
2025-11-11,2025,8,18,-3330.0,504448.0,-21078.0,18
2025-11-12,2025,8,18,-3951.0,500497.0,-25029.0,18
2025-11-13,2025,8,18,-15570.0,484927.0,-40599.0,18
2025-11-14,2025,8,18,1422.0,486349.0,-39177.0,18
2025-11-16,2025,8,18,810.0,487159.0,-38367.0,18
2025-11-17,2025,8,18,-9000.0,478159.0,-47367.0,18
2025-11-18,2025,8,18,-11844.0,466315.0,-59211.0,18
2025-11-19,2025,8,18,18657.0,484972.0,-40554.0,18
2025-11-20,2025,8,18,-35001.0,449971.0,-75555.0,18
2025-11-21,2025,8,18,7641.0,457612.0,-67914.0,18
2025-11-23,2025,8,18,4410.0,462022.0,-63504.0,18
2025-11-24,2025,8,18,17568.0,479590.0,-45936.0,18
2025-11-25,2025,8,18,4554.0,484144.0,-41382.0,18
2025-11-26,2025,8,18,8541.0,492685.0,-32841.0,18
2025-11-27,2025,8,18,162.0,492847.0,-32679.0,18
2025-11-28,2025,8,18,5643.0,498490.0,-27036.0,18
2025-11-30,2025,8,18,-657.0,497833.0,-27693.0,18
2025-12-01,2025,8,18,-2430.0,495403.0,-30123.0,18
2025-12-02,2025,8,18,8073.0,503476.0,-22050.0,18
2025-12-03,2025,8,18,873.0,504349.0,-21177.0,18
2025-12-04,2025,8,18,-945.0,503404.0,-22122.0,18
2025-12-05,2025,8,18,4095.0,507499.0,-18027.0,18
2025-12-07,2025,8,18,378.0,507877.0,-17649.0,18
2025-12-08,2025,8,18,-684.0,507193.0,-18333.0,18
2025-12-09,2025,8,18,-1962.0,505231.0,-20295.0,18
2025-12-10,2025,8,18,2061.0,507292.0,-18234.0,18
2025-12-11,2025,8,18,-2079.0,505213.0,-20313.0,18
2025-12-12,2025,8,18,-16866.0,488347.0,-37179.0,18
2025-12-14,2025,8,18,-324.0,488023.0,-37503.0,18
2025-12-15,2025,8,18,-4878.0,483145.0,-42381.0,18
2025-12-16,2025,8,18,9252.0,492397.0,-33129.0,18
2025-12-17,2025,8,18,-13788.0,478609.0,-46917.0,18
2025-12-18,2025,8,18,11673.0,490282.0,-35244.0,18
2025-12-19,2025,8,18,12294.0,502576.0,-22950.0,18
2025-12-21,2025,8,18,2556.0,505132.0,-20394.0,18
2025-12-22,2025,8,18,1584.0,506716.0,-18810.0,18
2025-12-23,2025,8,18,3483.0,510199.0,-15327.0,18
2025-12-24,2025,8,18,1863.0,512062.0,-13464.0,18
2025-12-25,2025,8,18,918.0,512980.0,-12546.0,18
2025-12-26,2025,8,18,-1089.0,511891.0,-13635.0,18
2025-12-28,2025,8,18,468.0,512359.0,-13167.0,18
2025-12-29,2025,8,18,-5868.0,506491.0,-19035.0,18
2025-12-30,2025,8,18,-1809.0,504682.0,-20844.0,18
2025-12-31,2025,8,18,-8001.0,496681.0,-28845.0,18
2026-01-01,2026,10,20,2500.0,499181.0,-26345.0,20
2026-01-02,2026,10,20,-4130.0,495051.0,-30475.0,20
2026-01-04,2026,10,20,2560.0,497611.0,-27915.0,20
2026-01-05,2026,10,20,4330.0,501941.0,-23585.0,20
2026-01-06,2026,10,20,10360.0,512301.0,-13225.0,20
2026-01-07,2026,10,20,-60.0,512241.0,-13285.0,20
2026-01-08,2026,10,20,-5910.0,506331.0,-19195.0,20
2026-01-09,2026,10,20,10230.0,516561.0,-8965.0,20
2026-01-11,2026,10,20,-1500.0,515061.0,-10465.0,20
2026-01-12,2026,10,20,70.0,515131.0,-10395.0,20
2026-01-13,2026,10,20,-190.0,514941.0,-10585.0,20
2026-01-14,2026,10,20,-11420.0,503521.0,-22005.0,20
2026-01-15,2026,10,20,5440.0,508961.0,-16565.0,20
2026-01-16,2026,10,20,-2390.0,506571.0,-18955.0,20
2026-01-18,2026,10,20,-8590.0,497981.0,-27545.0,20
2026-01-19,2026,10,20,-3540.0,494441.0,-31085.0,20
2026-01-20,2026,10,20,-10490.0,483951.0,-41575.0,20
2026-01-21,2026,10,20,17440.0,501391.0,-24135.0,20
2026-01-22,2026,10,20,2600.0,503991.0,-21535.0,20
2026-01-23,2026,10,20,2470.0,506461.0,-19065.0,20
2026-01-25,2026,10,20,-4780.0,501681.0,-23845.0,20
2026-01-26,2026,10,20,13210.0,514891.0,-10635.0,20
2026-01-27,2026,10,20,9940.0,524831.0,-695.0,20
2026-01-28,2026,10,20,1270.0,526101.0,0.0,20
2026-01-29,2026,10,20,-7920.0,518181.0,-7920.0,20
2026-01-30,2026,10,20,-13330.0,504851.0,-21250.0,20
2026-02-01,2026,10,20,-4210.0,500641.0,-25460.0,20
2026-02-02,2026,10,20,16580.0,517221.0,-8880.0,20
2026-02-03,2026,10,20,-20810.0,496411.0,-29690.0,20
2026-02-04,2026,10,20,-14400.0,482011.0,-44090.0,20
2026-02-05,2026,10,20,-29310.0,452701.0,-73400.0,20
2026-02-06,2026,10,20,30910.0,483611.0,-42490.0,20
2026-02-08,2026,10,20,6720.0,490331.0,-35770.0,20
2026-02-09,2026,10,20,2770.0,493101.0,-33000.0,20
2026-02-10,2026,10,20,-2870.0,490231.0,-35870.0,20
2026-02-11,2026,10,20,-1530.0,488701.0,-37400.0,20
2026-02-12,2026,10,20,-16470.0,472231.0,-53870.0,20
2026-02-13,2026,10,20,-2020.0,470211.0,-55890.0,20
2026-02-15,2026,10,20,2540.0,472751.0,-53350.0,20
2026-02-16,2026,10,20,-750.0,472001.0,-54100.0,20
2026-02-17,2026,10,20,-4270.0,467731.0,-58370.0,20
2026-02-18,2026,10,20,10140.0,477871.0,-48230.0,20
2026-02-19,2026,10,20,-3440.0,474431.0,-51670.0,20
2026-02-20,2026,10,20,8010.0,482441.0,-43660.0,20
2026-02-22,2026,10,20,-4220.0,478221.0,-47880.0,20
2026-02-23,2026,10,20,-7390.0,470831.0,-55270.0,20
2026-02-24,2026,10,20,10240.0,481071.0,-45030.0,20
2026-02-25,2026,10,20,10890.0,491961.0,-34140.0,20
2026-02-26,2026,10,20,-12810.0,479151.0,-46950.0,20
2026-02-27,2026,10,20,-1750.0,477401.0,-48700.0,20
2026-03-01,2026,10,20,-8540.0,468861.0,-57240.0,20
2026-03-02,2026,10,20,9310.0,478171.0,-47930.0,20
2026-03-03,2026,10,20,-10770.0,467401.0,-58700.0,20
2026-03-04,2026,10,20,18770.0,486171.0,-39930.0,20
2026-03-05,2026,10,20,-4450.0,481721.0,-44380.0,20
2026-03-06,2026,10,20,-15990.0,465731.0,-60370.0,20
2026-03-08,2026,10,20,-17850.0,447881.0,-78220.0,20
