date,year,bump_level,max_contracts,daily_equity_delta_usd,equity_usd,drawdown_usd,open_units
2019-05-05,2019,0,10,0.0,21874.5,0.0,0
2019-05-06,2019,0,10,0.0,21874.5,0.0,0
2019-05-07,2019,0,10,0.0,21874.5,0.0,0
2019-05-08,2019,0,10,0.0,21874.5,0.0,0
2019-05-09,2019,0,10,0.0,21874.5,0.0,0
2019-05-10,2019,0,10,0.0,21874.5,0.0,0
2019-05-12,2019,0,10,0.0,21874.5,0.0,0
2019-05-13,2019,0,10,0.0,21874.5,0.0,0
2019-05-14,2019,0,10,0.0,21874.5,0.0,0
2019-05-15,2019,0,10,0.0,21874.5,0.0,0
2019-05-16,2019,0,10,0.0,21874.5,0.0,0
2019-05-17,2019,0,10,0.0,21874.5,0.0,0
2019-05-19,2019,0,10,0.0,21874.5,0.0,0
2019-05-20,2019,0,10,0.0,21874.5,0.0,0
2019-05-21,2019,0,10,0.0,21874.5,0.0,0
2019-05-22,2019,0,10,0.0,21874.5,0.0,0
2019-05-23,2019,0,10,0.0,21874.5,0.0,0
2019-05-24,2019,0,10,0.0,21874.5,0.0,0
2019-05-26,2019,0,10,0.0,21874.5,0.0,0
2019-05-27,2019,0,10,0.0,21874.5,0.0,0
2019-05-28,2019,0,10,0.0,21874.5,0.0,0
2019-05-29,2019,0,10,0.0,21874.5,0.0,0
2019-05-30,2019,0,10,0.0,21874.5,0.0,0
2019-05-31,2019,0,10,0.0,21874.5,0.0,0
2019-06-02,2019,0,10,0.0,21874.5,0.0,0
2019-06-03,2019,0,10,0.0,21874.5,0.0,0
2019-06-04,2019,0,10,0.0,21874.5,0.0,0
2019-06-05,2019,0,10,246.0,22120.5,0.0,3
2019-06-06,2019,0,10,319.5,22440.0,0.0,3
2019-06-07,2019,0,10,382.5,22822.5,0.0,3
2019-06-09,2019,0,10,55.5,22878.0,0.0,3
2019-06-10,2019,0,10,91.5,22969.5,0.0,3
2019-06-11,2019,0,10,-118.5,22851.0,-118.5,3
2019-06-12,2019,0,10,-123.0,22728.0,-241.5,3
2019-06-13,2019,0,10,276.0,23004.0,0.0,3
2019-06-14,2019,0,10,-34.0,22970.0,-34.0,4
2019-06-16,2019,0,10,126.0,23096.0,0.0,4
2019-06-17,2019,0,10,-126.0,22970.0,-126.0,4
2019-06-18,2019,0,10,772.0,23742.0,0.0,4
2019-06-19,2019,0,10,196.0,23938.0,0.0,4
2019-06-20,2019,0,10,196.0,24134.0,0.0,4
2019-06-21,2019,0,10,-72.0,24062.0,-72.0,4
2019-06-23,2019,0,10,180.0,24242.0,0.0,4
2019-06-24,2019,0,10,-122.0,24120.0,-122.0,4
2019-06-25,2019,0,10,-292.0,23828.0,-414.0,4
2019-06-26,2019,0,10,94.0,23922.0,-320.0,4
2019-06-27,2019,0,10,-54.0,23868.0,-374.0,4
2019-06-28,2019,0,10,184.5,24052.5,-189.5,5
2019-06-30,2019,0,10,387.5,24440.0,0.0,5
2019-07-01,2019,0,10,-200.0,24240.0,-200.0,5
2019-07-02,2019,0,10,95.0,24335.0,-105.0,5
2019-07-03,2019,0,10,477.5,24812.5,0.0,5
2019-07-04,2019,0,10,87.5,24900.0,0.0,5
2019-07-05,2019,0,10,-222.5,24677.5,-222.5,5
2019-07-07,2019,0,10,-180.0,24497.5,-402.5,5
2019-07-08,2019,0,10,-350.0,24147.5,-752.5,5
2019-07-09,2019,0,10,205.0,24352.5,-547.5,5
2019-07-10,2019,0,10,362.5,24715.0,-185.0,5
2019-07-11,2019,0,10,615.0,25330.0,0.0,5
2019-07-12,2019,0,10,381.0,25711.0,0.0,6
2019-07-14,2019,0,10,75.0,25786.0,0.0,6
2019-07-15,2019,0,10,51.0,25837.0,0.0,6
2019-07-16,2019,0,10,-54.0,25783.0,-54.0,6
2019-07-17,2019,0,10,-555.0,25228.0,-609.0,6
2019-07-18,2019,0,10,474.0,25702.0,-135.0,6
2019-07-19,2019,0,10,-693.0,25009.0,-828.0,6
2019-07-21,2019,0,10,165.0,25174.0,-663.0,6
2019-07-22,2019,0,10,228.0,25402.0,-435.0,6
2019-07-23,2019,0,10,381.0,25783.0,-54.0,6
2019-07-24,2019,0,10,-168.0,25615.0,-222.0,6
2019-07-25,2019,0,10,-402.0,25213.0,-624.0,6
2019-07-26,2019,0,10,-32.5,25180.5,-656.5,7
2019-07-28,2019,0,10,-63.0,25117.5,-719.5,7
2019-07-29,2019,0,10,374.5,25492.0,-345.0,7
2019-07-30,2019,0,10,24.5,25516.5,-320.5,7
2019-07-31,2019,0,10,-1253.0,24263.5,-1573.5,7
2019-08-01,2019,0,10,-7.0,24256.5,-1580.5,0
2019-08-02,2019,0,10,0.0,24256.5,-1580.5,0
2019-08-04,2019,0,10,0.0,24256.5,-1580.5,0
2019-08-05,2019,0,10,0.0,24256.5,-1580.5,0
2019-08-06,2019,0,10,0.0,24256.5,-1580.5,0
2019-08-07,2019,0,10,0.0,24256.5,-1580.5,0
2019-08-08,2019,0,10,0.0,24256.5,-1580.5,0
2019-08-09,2019,0,10,0.0,24256.5,-1580.5,0
2019-08-11,2019,0,10,0.0,24256.5,-1580.5,0
2019-08-12,2019,0,10,0.0,24256.5,-1580.5,0
2019-08-13,2019,0,10,0.0,24256.5,-1580.5,0
2019-08-14,2019,0,10,0.0,24256.5,-1580.5,0
2019-08-15,2019,0,10,0.0,24256.5,-1580.5,0
2019-08-16,2019,0,10,0.0,24256.5,-1580.5,0
2019-08-18,2019,0,10,0.0,24256.5,-1580.5,0
2019-08-19,2019,0,10,0.0,24256.5,-1580.5,0
2019-08-20,2019,0,10,0.0,24256.5,-1580.5,0
2019-08-21,2019,0,10,0.0,24256.5,-1580.5,0
2019-08-22,2019,0,10,0.0,24256.5,-1580.5,0
2019-08-23,2019,0,10,0.0,24256.5,-1580.5,0
2019-08-25,2019,0,10,0.0,24256.5,-1580.5,0
2019-08-26,2019,0,10,0.0,24256.5,-1580.5,0
2019-08-27,2019,0,10,0.0,24256.5,-1580.5,0
2019-08-28,2019,0,10,0.0,24256.5,-1580.5,0
2019-08-29,2019,0,10,0.0,24256.5,-1580.5,0
2019-08-30,2019,0,10,0.0,24256.5,-1580.5,0
2019-09-01,2019,0,10,0.0,24256.5,-1580.5,0
2019-09-02,2019,0,10,0.0,24256.5,-1580.5,0
2019-09-03,2019,0,10,0.0,24256.5,-1580.5,0
2019-09-04,2019,0,10,693.0,24949.5,-887.5,3
2019-09-05,2019,0,10,189.0,25138.5,-698.5,3
2019-09-06,2019,0,10,102.0,25240.5,-596.5,3
2019-09-08,2019,0,10,13.5,25254.0,-583.0,3
2019-09-09,2019,0,10,-33.0,25221.0,-616.0,3
2019-09-10,2019,0,10,111.0,25332.0,-505.0,3
2019-09-11,2019,0,10,574.5,25906.5,0.0,3
2019-09-12,2019,0,10,-78.0,25828.5,-78.0,3
2019-09-13,2019,0,10,-21.0,25807.5,-99.0,4
2019-09-15,2019,0,10,-270.0,25537.5,-369.0,4
2019-09-16,2019,0,10,-48.0,25489.5,-417.0,4
2019-09-17,2019,0,10,18.0,25507.5,-399.0,4
2019-09-18,2019,0,10,-6.0,25501.5,-405.0,4
2019-09-19,2019,0,10,54.0,25555.5,-351.0,4
2019-09-20,2019,0,10,-416.0,25139.5,-767.0,4
2019-09-22,2019,0,10,202.0,25341.5,-565.0,4
2019-09-23,2019,0,10,76.0,25417.5,-489.0,4
2019-09-24,2019,0,10,-300.0,25117.5,-789.0,4
2019-09-25,2019,0,10,118.0,25235.5,-671.0,4
2019-09-26,2019,0,10,-184.0,25051.5,-855.0,4
2019-09-27,2019,0,10,22.0,25073.5,-833.0,5
2019-09-29,2019,0,10,155.0,25228.5,-678.0,5
2019-09-30,2019,0,10,232.5,25461.0,-445.5,5
2019-10-01,2019,0,10,-1027.5,24433.5,-1473.0,5
2019-10-02,2019,0,10,0.0,24433.5,-1473.0,0
2019-10-03,2019,0,10,0.0,24433.5,-1473.0,0
2019-10-04,2019,0,10,0.0,24433.5,-1473.0,0
2019-10-06,2019,0,10,0.0,24433.5,-1473.0,0
2019-10-07,2019,0,10,0.0,24433.5,-1473.0,0
2019-10-08,2019,0,10,0.0,24433.5,-1473.0,0
2019-10-09,2019,0,10,0.0,24433.5,-1473.0,0
2019-10-10,2019,0,10,0.0,24433.5,-1473.0,0
2019-10-11,2019,0,10,0.0,24433.5,-1473.0,0
2019-10-13,2019,0,10,0.0,24433.5,-1473.0,0
2019-10-14,2019,0,10,0.0,24433.5,-1473.0,0
2019-10-15,2019,0,10,190.5,24624.0,-1282.5,3
2019-10-16,2019,0,10,-3.0,24621.0,-1285.5,3
2019-10-17,2019,0,10,66.0,24687.0,-1219.5,3
2019-10-18,2019,0,10,-303.0,24384.0,-1522.5,3
2019-10-20,2019,0,10,-55.5,24328.5,-1578.0,0
2019-10-21,2019,0,10,43.5,24372.0,-1534.5,3
2019-10-22,2019,0,10,-217.5,24154.5,-1752.0,3
2019-10-23,2019,0,10,6.0,24160.5,-1746.0,0
2019-10-24,2019,0,10,-57.0,24103.5,-1803.0,3
2019-10-25,2019,0,10,3.0,24106.5,-1800.0,0
2019-10-27,2019,0,10,39.0,24145.5,-1761.0,3
2019-10-28,2019,0,10,138.0,24283.5,-1623.0,3
2019-10-29,2019,0,10,-42.0,24241.5,-1665.0,3
2019-10-30,2019,0,10,201.0,24442.5,-1464.0,3
2019-10-31,2019,0,10,-175.5,24267.0,-1639.5,3
2019-11-01,2019,0,10,343.5,24610.5,-1296.0,3
2019-11-03,2019,0,10,84.0,24694.5,-1212.0,3
2019-11-04,2019,0,10,168.0,24862.5,-1044.0,3
2019-11-05,2019,0,10,-36.0,24826.5,-1080.0,3
2019-11-06,2019,0,10,3.0,24829.5,-1077.0,3
2019-11-07,2019,0,10,304.5,25134.0,-772.5,3
2019-11-08,2019,0,10,58.5,25192.5,-714.0,4
2019-11-10,2019,0,10,-182.0,25010.5,-896.0,4
2019-11-11,2019,0,10,164.0,25174.5,-732.0,4
2019-11-12,2019,0,10,-96.0,25078.5,-828.0,4
2019-11-13,2019,0,10,308.0,25386.5,-520.0,4
2019-11-14,2019,0,10,198.0,25584.5,-322.0,4
2019-11-15,2019,0,10,240.0,25824.5,-82.0,4
2019-11-17,2019,0,10,-26.0,25798.5,-108.0,4
2019-11-18,2019,0,10,170.0,25968.5,0.0,4
2019-11-19,2019,0,10,-350.0,25618.5,-350.0,4
2019-11-20,2019,0,10,-248.0,25370.5,-598.0,4
2019-11-21,2019,0,10,100.0,25470.5,-498.0,4
2019-11-22,2019,0,10,172.0,25642.5,-326.0,5
2019-11-24,2019,0,10,172.5,25815.0,-153.5,5
2019-11-25,2019,0,10,332.5,26147.5,0.0,5
2019-11-26,2019,0,10,177.5,26325.0,0.0,5
2019-11-27,2019,0,10,-157.5,26167.5,-157.5,5
2019-11-28,2019,0,10,-12.5,26155.0,-170.0,5
2019-11-29,2019,0,10,5.0,26160.0,-165.0,5
2019-12-01,2019,0,10,225.0,26385.0,0.0,5
2019-12-02,2019,0,10,-812.5,25572.5,-812.5,5
2019-12-03,2019,0,10,-2.5,25570.0,-815.0,0
2019-12-04,2019,0,10,0.0,25570.0,-815.0,0
2019-12-05,2019,0,10,0.0,25570.0,-815.0,0
2019-12-06,2019,0,10,0.0,25570.0,-815.0,0
2019-12-08,2019,0,10,0.0,25570.0,-815.0,0
2019-12-09,2019,0,10,0.0,25570.0,-815.0,0
2019-12-10,2019,0,10,0.0,25570.0,-815.0,0
2019-12-11,2019,0,10,0.0,25570.0,-815.0,0
2019-12-12,2019,0,10,456.0,26026.0,-359.0,3
2019-12-13,2019,0,10,-114.0,25912.0,-473.0,3
2019-12-15,2019,0,10,10.5,25922.5,-462.5,3
2019-12-16,2019,0,10,108.0,26030.5,-354.5,3
2019-12-17,2019,0,10,42.0,26072.5,-312.5,3
2019-12-18,2019,0,10,-28.5,26044.0,-341.0,3
2019-12-19,2019,0,10,204.0,26248.0,-137.0,3
2019-12-20,2019,0,10,103.0,26351.0,-34.0,4
2019-12-22,2019,0,10,50.0,26401.0,0.0,4
2019-12-23,2019,0,10,128.0,26529.0,0.0,4
2019-12-24,2019,0,10,-104.0,26425.0,-104.0,4
2019-12-25,2019,0,10,66.0,26491.0,-38.0,4
2019-12-26,2019,0,10,262.0,26753.0,0.0,4
2019-12-27,2019,0,10,-138.0,26615.0,-138.0,4
2019-12-29,2019,0,10,100.0,26715.0,-38.0,4
2019-12-30,2019,0,10,-362.0,26353.0,-400.0,4
2019-12-31,2019,0,10,162.0,26515.0,-238.0,4
2020-01-01,2020,0,10,86.0,26601.0,-152.0,4
2020-01-02,2020,0,10,142.0,26743.0,-10.0,4
2020-01-03,2020,0,10,-117.5,26625.5,-127.5,5
2020-01-05,2020,0,10,-197.5,26428.0,-325.0,5
2020-01-06,2020,0,10,472.5,26900.5,0.0,5
2020-01-07,2020,0,10,-915.0,25985.5,-915.0,5
2020-01-08,2020,0,10,1120.0,27105.5,0.0,5
2020-01-09,2020,0,10,507.5,27613.0,0.0,5
2020-01-10,2020,0,10,-577.5,27035.5,-577.5,5
2020-01-12,2020,0,10,202.5,27238.0,-375.0,5
2020-01-13,2020,0,10,55.0,27293.0,-320.0,5
2020-01-14,2020,0,10,-30.0,27263.0,-350.0,5
2020-01-15,2020,0,10,510.0,27773.0,0.0,5
2020-01-16,2020,0,10,525.0,28298.0,0.0,5
2020-01-17,2020,0,10,-13.0,28285.0,-13.0,6
2020-01-19,2020,0,10,81.0,28366.0,0.0,6
2020-01-20,2020,0,10,-357.0,28009.0,-357.0,6
2020-01-21,2020,0,10,306.0,28315.0,-51.0,6
2020-01-22,2020,0,10,-555.0,27760.0,-606.0,6
2020-01-23,2020,0,10,210.0,27970.0,-396.0,6
2020-01-24,2020,0,10,-783.0,27187.0,-1179.0,6
2020-01-26,2020,0,10,-696.0,26491.0,-1875.0,6
2020-01-27,2020,0,10,9.0,26500.0,-1866.0,0
2020-01-28,2020,0,10,0.0,26500.0,-1866.0,0
2020-01-29,2020,0,10,0.0,26500.0,-1866.0,0
2020-01-30,2020,0,10,0.0,26500.0,-1866.0,0
2020-01-31,2020,0,10,0.0,26500.0,-1866.0,0
2020-02-02,2020,0,10,0.0,26500.0,-1866.0,0
2020-02-03,2020,0,10,0.0,26500.0,-1866.0,0
2020-02-04,2020,0,10,0.0,26500.0,-1866.0,0
2020-02-05,2020,0,10,1012.5,27512.5,-853.5,3
2020-02-06,2020,0,10,-234.0,27278.5,-1087.5,3
2020-02-07,2020,0,10,-370.5,26908.0,-1458.0,3
2020-02-09,2020,0,10,3.0,26911.0,-1455.0,3
2020-02-10,2020,0,10,438.0,27349.0,-1017.0,3
2020-02-11,2020,0,10,-52.5,27296.5,-1069.5,3
2020-02-12,2020,0,10,181.5,27478.0,-888.0,3
2020-02-13,2020,0,10,105.0,27583.0,-783.0,3
2020-02-14,2020,0,10,-114.5,27468.5,-897.5,4
2020-02-16,2020,0,10,80.0,27548.5,-817.5,4
2020-02-17,2020,0,10,-246.0,27302.5,-1063.5,4
2020-02-18,2020,0,10,-24.0,27278.5,-1087.5,4
2020-02-19,2020,0,10,-10.0,27268.5,-1097.5,4
2020-02-20,2020,0,10,-418.0,26850.5,-1515.5,4
2020-02-21,2020,0,10,-208.0,26642.5,-1723.5,4
2020-02-23,2020,0,10,-786.0,25856.5,-2509.5,4
2020-02-24,2020,0,10,2.0,25858.5,-2507.5,0
2020-02-25,2020,0,10,0.0,25858.5,-2507.5,0
2020-02-26,2020,0,10,0.0,25858.5,-2507.5,0
2020-02-27,2020,0,10,0.0,25858.5,-2507.5,0
2020-03-01,2020,0,10,0.0,25858.5,-2507.5,0
2020-03-02,2020,0,10,0.0,25858.5,-2507.5,0
2020-03-03,2020,0,10,0.0,25858.5,-2507.5,0
2020-03-04,2020,0,10,0.0,25858.5,-2507.5,0
2020-03-05,2020,0,10,0.0,25858.5,-2507.5,0
2020-03-06,2020,0,10,0.0,25858.5,-2507.5,0
2020-03-08,2020,0,10,0.0,25858.5,-2507.5,0
2020-03-09,2020,0,10,0.0,25858.5,-2507.5,0
2020-03-10,2020,0,10,0.0,25858.5,-2507.5,0
2020-03-11,2020,0,10,0.0,25858.5,-2507.5,0
2020-03-12,2020,0,10,0.0,25858.5,-2507.5,0
2020-03-13,2020,0,10,0.0,25858.5,-2507.5,0
2020-03-15,2020,0,10,0.0,25858.5,-2507.5,0
2020-03-16,2020,0,10,0.0,25858.5,-2507.5,0
2020-03-17,2020,0,10,0.0,25858.5,-2507.5,0
2020-03-18,2020,0,10,0.0,25858.5,-2507.5,0
2020-03-19,2020,0,10,0.0,25858.5,-2507.5,0
2020-03-20,2020,0,10,0.0,25858.5,-2507.5,0
2020-03-22,2020,0,10,0.0,25858.5,-2507.5,0
2020-03-23,2020,0,10,0.0,25858.5,-2507.5,0
2020-03-24,2020,0,10,0.0,25858.5,-2507.5,0
2020-03-25,2020,0,10,0.0,25858.5,-2507.5,0
2020-03-26,2020,0,10,0.0,25858.5,-2507.5,0
2020-03-27,2020,0,10,0.0,25858.5,-2507.5,0
2020-03-29,2020,0,10,0.0,25858.5,-2507.5,0
2020-03-30,2020,0,10,0.0,25858.5,-2507.5,0
2020-03-31,2020,0,10,0.0,25858.5,-2507.5,0
2020-04-01,2020,0,10,0.0,25858.5,-2507.5,0
2020-04-02,2020,0,10,0.0,25858.5,-2507.5,0
2020-04-03,2020,0,10,0.0,25858.5,-2507.5,0
2020-04-05,2020,0,10,0.0,25858.5,-2507.5,0
2020-04-06,2020,0,10,1036.5,26895.0,-1471.0,3
2020-04-07,2020,0,10,249.0,27144.0,-1222.0,3
2020-04-08,2020,0,10,1152.0,28296.0,-70.0,3
2020-04-09,2020,0,10,615.0,28911.0,0.0,3
2020-04-12,2020,0,10,-579.0,28332.0,-579.0,3
2020-04-13,2020,0,10,489.0,28821.0,-90.0,3
2020-04-14,2020,0,10,204.0,29025.0,0.0,3
2020-04-15,2020,0,10,-736.5,28288.5,-736.5,3
2020-04-16,2020,0,10,1461.0,29749.5,0.0,3
2020-04-17,2020,0,10,-138.0,29611.5,-138.0,3
2020-04-19,2020,0,10,-4.5,29607.0,-142.5,3
2020-04-20,2020,0,10,-1308.0,28299.0,-1450.5,3
2020-04-21,2020,0,10,-462.0,27837.0,-1912.5,3
2020-04-22,2020,0,10,444.0,28281.0,-1468.5,3
2020-04-23,2020,0,10,-21.0,28260.0,-1489.5,3
2020-04-24,2020,0,10,569.5,28829.5,-920.0,4
2020-04-26,2020,0,10,302.0,29131.5,-618.0,4
2020-04-27,2020,0,10,266.0,29397.5,-352.0,4
2020-04-28,2020,0,10,658.0,30055.5,0.0,4
2020-04-29,2020,0,10,904.0,30959.5,0.0,4
2020-04-30,2020,0,10,-1554.0,29405.5,-1554.0,4
2020-05-01,2020,0,10,-678.0,28727.5,-2232.0,4
2020-05-03,2020,0,10,-218.0,28509.5,-2450.0,4
2020-05-04,2020,0,10,526.0,29035.5,-1924.0,4
2020-05-05,2020,0,10,66.0,29101.5,-1858.0,4
2020-05-06,2020,0,10,-280.0,28821.5,-2138.0,4
2020-05-07,2020,0,10,986.0,29807.5,-1152.0,4
2020-05-08,2020,0,10,370.5,30178.0,-781.5,5
2020-05-10,2020,0,10,355.0,30533.0,-426.5,5
2020-05-11,2020,0,10,-1220.0,29313.0,-1646.5,5
2020-05-12,2020,0,10,-852.5,28460.5,-2499.0,5
2020-05-13,2020,0,10,-1092.5,27368.0,-3591.5,5
2020-05-14,2020,0,10,915.0,28283.0,-2676.5,5
2020-05-15,2020,0,10,82.5,28365.5,-2594.0,5
2020-05-17,2020,0,10,540.0,28905.5,-2054.0,5
2020-05-18,2020,0,10,1665.0,30570.5,-389.0,5
2020-05-19,2020,0,10,-360.0,30210.5,-749.0,5
2020-05-20,2020,0,10,155.0,30365.5,-594.0,5
2020-05-21,2020,0,10,-375.0,29990.5,-969.0,5
2020-05-22,2020,0,10,619.5,30610.0,-349.5,6
2020-05-24,2020,0,10,141.0,30751.0,-208.5,6
2020-05-25,2020,0,10,999.0,31750.0,0.0,6
2020-05-26,2020,0,10,987.0,32737.0,0.0,6
2020-05-27,2020,0,10,1341.0,34078.0,0.0,6
2020-05-28,2020,0,10,-843.0,33235.0,-843.0,6
2020-05-29,2020,0,10,474.0,33709.0,-369.0,6
2020-05-31,2020,0,10,-432.0,33277.0,-801.0,6
2020-06-01,2020,0,10,9.0,33286.0,-792.0,6
2020-06-02,2020,0,10,1338.0,34624.0,0.0,6
2020-06-03,2020,0,10,1191.0,35815.0,0.0,6
2020-06-04,2020,0,10,606.0,36421.0,0.0,6
2020-06-05,2020,0,10,1980.5,38401.5,0.0,7
2020-06-07,2020,0,10,266.0,38667.5,0.0,7
2020-06-08,2020,0,10,1354.5,40022.0,0.0,7
2020-06-09,2020,0,10,-339.5,39682.5,-339.5,7
2020-06-10,2020,0,10,-2772.0,36910.5,-3111.5,7
2020-06-11,2020,0,10,-3.5,36907.0,-3115.0,0
2020-06-12,2020,0,10,0.0,36907.0,-3115.0,0
2020-06-14,2020,0,10,0.0,36907.0,-3115.0,0
2020-06-15,2020,0,10,0.0,36907.0,-3115.0,0
2020-06-16,2020,0,10,0.0,36907.0,-3115.0,0
2020-06-17,2020,0,10,0.0,36907.0,-3115.0,0
2020-06-18,2020,0,10,0.0,36907.0,-3115.0,0
2020-06-19,2020,0,10,0.0,36907.0,-3115.0,0
2020-06-21,2020,0,10,0.0,36907.0,-3115.0,0
2020-06-22,2020,0,10,0.0,36907.0,-3115.0,0
2020-06-23,2020,0,10,0.0,36907.0,-3115.0,0
2020-06-24,2020,0,10,0.0,36907.0,-3115.0,0
2020-06-25,2020,0,10,0.0,36907.0,-3115.0,0
2020-06-26,2020,0,10,0.0,36907.0,-3115.0,0
2020-06-28,2020,0,10,0.0,36907.0,-3115.0,0
2020-06-29,2020,0,10,0.0,36907.0,-3115.0,0
2020-06-30,2020,0,10,0.0,36907.0,-3115.0,0
2020-07-01,2020,0,10,0.0,36907.0,-3115.0,0
2020-07-02,2020,0,10,0.0,36907.0,-3115.0,0
2020-07-03,2020,0,10,0.0,36907.0,-3115.0,0
2020-07-05,2020,0,10,0.0,36907.0,-3115.0,0
2020-07-06,2020,0,10,0.0,36907.0,-3115.0,0
2020-07-07,2020,0,10,0.0,36907.0,-3115.0,0
2020-07-08,2020,0,10,0.0,36907.0,-3115.0,0
2020-07-09,2020,0,10,0.0,36907.0,-3115.0,0
2020-07-10,2020,0,10,0.0,36907.0,-3115.0,0
2020-07-12,2020,0,10,0.0,36907.0,-3115.0,0
2020-07-13,2020,0,10,0.0,36907.0,-3115.0,0
2020-07-14,2020,0,10,0.0,36907.0,-3115.0,0
2020-07-15,2020,0,10,0.0,36907.0,-3115.0,0
2020-07-16,2020,0,10,0.0,36907.0,-3115.0,0
2020-07-17,2020,0,10,0.0,36907.0,-3115.0,0
2020-07-19,2020,0,10,0.0,36907.0,-3115.0,0
2020-07-20,2020,0,10,0.0,36907.0,-3115.0,0
2020-07-21,2020,0,10,0.0,36907.0,-3115.0,0
2020-07-22,2020,0,10,0.0,36907.0,-3115.0,0
2020-07-23,2020,0,10,0.0,36907.0,-3115.0,0
2020-07-24,2020,0,10,0.0,36907.0,-3115.0,0
2020-07-26,2020,0,10,0.0,36907.0,-3115.0,0
2020-07-27,2020,0,10,0.0,36907.0,-3115.0,0
2020-07-28,2020,0,10,0.0,36907.0,-3115.0,0
2020-07-29,2020,0,10,0.0,36907.0,-3115.0,0
2020-07-30,2020,0,10,0.0,36907.0,-3115.0,0
2020-07-31,2020,0,10,0.0,36907.0,-3115.0,0
2020-08-02,2020,0,10,0.0,36907.0,-3115.0,0
2020-08-03,2020,0,10,0.0,36907.0,-3115.0,0
2020-08-04,2020,0,10,0.0,36907.0,-3115.0,0
2020-08-05,2020,0,10,492.0,37399.0,-2623.0,3
2020-08-06,2020,0,10,91.5,37490.5,-2531.5,3
2020-08-07,2020,0,10,307.5,37798.0,-2224.0,3
2020-08-09,2020,0,10,78.0,37876.0,-2146.0,3
2020-08-10,2020,0,10,558.0,38434.0,-1588.0,3
2020-08-11,2020,0,10,-165.0,38269.0,-1753.0,3
2020-08-12,2020,0,10,300.0,38569.0,-1453.0,3
2020-08-13,2020,0,10,-25.5,38543.5,-1478.5,3
2020-08-14,2020,0,10,-53.0,38490.5,-1531.5,4
2020-08-16,2020,0,10,202.0,38692.5,-1329.5,4
2020-08-17,2020,0,10,-276.0,38416.5,-1605.5,4
2020-08-18,2020,0,10,-22.0,38394.5,-1627.5,4
2020-08-19,2020,0,10,-548.0,37846.5,-2175.5,4
2020-08-20,2020,0,10,522.0,38368.5,-1653.5,4
2020-08-21,2020,0,10,238.0,38606.5,-1415.5,4
2020-08-23,2020,0,10,138.0,38744.5,-1277.5,4
2020-08-24,2020,0,10,932.0,39676.5,-345.5,4
2020-08-25,2020,0,10,-470.0,39206.5,-815.5,4
2020-08-26,2020,0,10,202.0,39408.5,-613.5,4
2020-08-27,2020,0,10,844.0,40252.5,0.0,4
2020-08-28,2020,0,10,-149.0,40103.5,-149.0,5
2020-08-30,2020,0,10,362.5,40466.0,0.0,5
2020-08-31,2020,0,10,-830.0,39636.0,-830.0,5
2020-09-01,2020,0,10,640.0,40276.0,-190.0,5
2020-09-02,2020,0,10,995.0,41271.0,0.0,5
2020-09-03,2020,0,10,-2077.5,39193.5,-2077.5,5
2020-09-04,2020,0,10,-495.0,38698.5,-2572.5,5
2020-09-06,2020,0,10,177.5,38876.0,-2395.0,5
2020-09-07,2020,0,10,347.5,39223.5,-2047.5,5
2020-09-08,2020,0,10,2.5,39226.0,-2045.0,0
2020-09-09,2020,0,10,0.0,39226.0,-2045.0,0
2020-09-10,2020,0,10,0.0,39226.0,-2045.0,0
2020-09-11,2020,0,10,0.0,39226.0,-2045.0,0
2020-09-13,2020,0,10,0.0,39226.0,-2045.0,0
2020-09-14,2020,0,10,0.0,39226.0,-2045.0,0
2020-09-15,2020,0,10,0.0,39226.0,-2045.0,0
2020-09-16,2020,0,10,0.0,39226.0,-2045.0,0
2020-09-17,2020,0,10,0.0,39226.0,-2045.0,0
2020-09-18,2020,0,10,0.0,39226.0,-2045.0,0
2020-09-20,2020,0,10,0.0,39226.0,-2045.0,0
2020-09-21,2020,0,10,0.0,39226.0,-2045.0,0
2020-09-22,2020,0,10,0.0,39226.0,-2045.0,0
2020-09-23,2020,0,10,0.0,39226.0,-2045.0,0
2020-09-24,2020,0,10,0.0,39226.0,-2045.0,0
2020-09-25,2020,0,10,0.0,39226.0,-2045.0,0
2020-09-27,2020,0,10,0.0,39226.0,-2045.0,0
2020-09-28,2020,0,10,0.0,39226.0,-2045.0,0
2020-09-29,2020,0,10,0.0,39226.0,-2045.0,0
2020-09-30,2020,0,10,0.0,39226.0,-2045.0,0
2020-10-01,2020,0,10,0.0,39226.0,-2045.0,0
2020-10-02,2020,0,10,0.0,39226.0,-2045.0,0
2020-10-04,2020,0,10,0.0,39226.0,-2045.0,0
2020-10-05,2020,0,10,0.0,39226.0,-2045.0,0
2020-10-06,2020,0,10,0.0,39226.0,-2045.0,0
2020-10-07,2020,0,10,0.0,39226.0,-2045.0,0
2020-10-08,2020,0,10,276.0,39502.0,-1769.0,3
2020-10-09,2020,0,10,157.5,39659.5,-1611.5,3
2020-10-11,2020,0,10,-55.5,39604.0,-1667.0,3
2020-10-12,2020,0,10,270.0,39874.0,-1397.0,3
2020-10-13,2020,0,10,-58.5,39815.5,-1455.5,3
2020-10-14,2020,0,10,-529.5,39286.0,-1985.0,3
2020-10-15,2020,0,10,118.5,39404.5,-1866.5,3
2020-10-16,2020,0,10,6.0,39410.5,-1860.5,4
2020-10-18,2020,0,10,288.0,39698.5,-1572.5,4
2020-10-19,2020,0,10,-740.0,38958.5,-2312.5,4
2020-10-20,2020,0,10,0.0,38958.5,-2312.5,0
2020-10-21,2020,0,10,-639.0,38319.5,-2951.5,3
2020-10-22,2020,0,10,-1.5,38318.0,-2953.0,0
2020-10-23,2020,0,10,-130.5,38187.5,-3083.5,3
2020-10-25,2020,0,10,-52.5,38135.0,-3136.0,0
2020-10-26,2020,0,10,0.0,38135.0,-3136.0,0
2020-10-27,2020,0,10,0.0,38135.0,-3136.0,0
2020-10-28,2020,0,10,0.0,38135.0,-3136.0,0
2020-10-29,2020,0,10,0.0,38135.0,-3136.0,0
2020-10-30,2020,0,10,0.0,38135.0,-3136.0,0
2020-11-01,2020,0,10,0.0,38135.0,-3136.0,0
2020-11-02,2020,0,10,0.0,38135.0,-3136.0,0
2020-11-03,2020,0,10,0.0,38135.0,-3136.0,0
2020-11-04,2020,0,10,757.5,38892.5,-2378.5,3
2020-11-05,2020,0,10,292.5,39185.0,-2086.0,3
2020-11-06,2020,0,10,222.0,39407.0,-1864.0,3
2020-11-08,2020,0,10,462.0,39869.0,-1402.0,3
2020-11-09,2020,0,10,354.0,40223.0,-1048.0,3
2020-11-10,2020,0,10,846.0,41069.0,-202.0,3
2020-11-11,2020,0,10,-477.0,40592.0,-679.0,3
2020-11-12,2020,0,10,-144.0,40448.0,-823.0,3
2020-11-13,2020,0,10,646.0,41094.0,-177.0,4
2020-11-15,2020,0,10,472.0,41566.0,0.0,4
2020-11-16,2020,0,10,266.0,41832.0,0.0,4
2020-11-17,2020,0,10,-226.0,41606.0,-226.0,4
2020-11-18,2020,0,10,-604.0,41002.0,-830.0,4
2020-11-19,2020,0,10,-216.0,40786.0,-1046.0,4
2020-11-20,2020,0,10,-170.0,40616.0,-1216.0,4
2020-11-22,2020,0,10,246.0,40862.0,-970.0,4
2020-11-23,2020,0,10,1048.0,41910.0,0.0,4
2020-11-24,2020,0,10,448.0,42358.0,0.0,4
2020-11-25,2020,0,10,-402.0,41956.0,-402.0,4
2020-11-26,2020,0,10,-98.0,41858.0,-500.0,4
2020-11-27,2020,0,10,188.0,42046.0,-312.0,5
2020-11-29,2020,0,10,-522.5,41523.5,-834.5,5
2020-11-30,2020,0,10,457.5,41981.0,-377.0,5
2020-12-01,2020,0,10,-432.5,41548.5,-809.5,5
2020-12-02,2020,0,10,345.0,41893.5,-464.5,5
2020-12-03,2020,0,10,397.5,42291.0,-67.0,5
2020-12-04,2020,0,10,400.0,42691.0,0.0,5
2020-12-06,2020,0,10,-22.5,42668.5,-22.5,5
2020-12-07,2020,0,10,-370.0,42298.5,-392.5,5
2020-12-08,2020,0,10,695.0,42993.5,0.0,5
2020-12-09,2020,0,10,-447.5,42546.0,-447.5,5
2020-12-10,2020,0,10,-210.0,42336.0,-657.5,5
2020-12-11,2020,0,10,-121.0,42215.0,-778.5,6
2020-12-13,2020,0,10,507.0,42722.0,-271.5,6
2020-12-14,2020,0,10,-1005.0,41717.0,-1276.5,6
2020-12-15,2020,0,10,906.0,42623.0,-370.5,6
2020-12-16,2020,0,10,177.0,42800.0,-193.5,6
2020-12-17,2020,0,10,-105.0,42695.0,-298.5,6
2020-12-18,2020,0,10,495.0,43190.0,0.0,6
2020-12-20,2020,0,10,-456.0,42734.0,-456.0,6
2020-12-21,2020,0,10,-399.0,42335.0,-855.0,6
2020-12-22,2020,0,10,-342.0,41993.0,-1197.0,6
2020-12-23,2020,0,10,648.0,42641.0,-549.0,6
2020-12-24,2020,0,10,6.0,42647.0,-543.0,6
2020-12-27,2020,0,10,423.0,43070.0,-120.0,6
2020-12-28,2020,0,10,645.0,43715.0,0.0,6
2020-12-29,2020,0,10,-426.0,43289.0,-426.0,6
2020-12-30,2020,0,10,-6.0,43283.0,-432.0,6
2020-12-31,2020,0,10,543.0,43826.0,0.0,6
2021-01-03,2021,5,15,45.0,43871.0,0.0,15
2021-01-04,2021,5,15,-3187.5,40683.5,-3187.5,15
2021-01-05,2021,5,15,1132.5,41816.0,-2055.0,15
2021-01-06,2021,5,15,4642.5,46458.5,0.0,15
2021-01-07,2021,5,15,1815.0,48273.5,0.0,15
2021-01-08,2021,5,15,-465.0,47808.5,-465.0,15
2021-01-10,2021,5,15,-1672.5,46136.0,-2137.5,15
2021-01-11,2021,5,15,690.0,46826.0,-1447.5,15
2021-01-12,2021,5,15,1117.5,47943.5,-330.0,15
2021-01-13,2021,5,15,345.0,48288.5,0.0,15
2021-01-14,2021,5,15,-2220.0,46068.5,-2220.0,15
2021-01-15,2021,5,15,-1237.5,44831.0,-3457.5,15
2021-01-17,2021,5,15,420.0,45251.0,-3037.5,15
2021-01-18,2021,5,15,1537.5,46788.5,-1500.0,15
2021-01-19,2021,5,15,-577.5,46211.0,-2077.5,15
2021-01-20,2021,5,15,2527.5,48738.5,0.0,15
2021-01-21,2021,5,15,-1177.5,47561.0,-1177.5,15
2021-01-22,2021,5,15,-652.5,46908.5,-1830.0,15
2021-01-24,2021,5,15,667.5,47576.0,-1162.5,15
2021-01-25,2021,5,15,-2205.0,45371.0,-3367.5,15
2021-01-26,2021,5,15,495.0,45866.0,-2872.5,15
2021-01-27,2021,5,15,-4590.0,41276.0,-7462.5,15
2021-01-28,2021,5,15,585.0,41861.0,-6877.5,15
2021-01-29,2021,5,15,-15.0,41846.0,-6892.5,0
2021-01-31,2021,5,15,0.0,41846.0,-6892.5,0
2021-02-01,2021,5,15,0.0,41846.0,-6892.5,0
2021-02-02,2021,5,15,0.0,41846.0,-6892.5,0
2021-02-03,2021,5,15,0.0,41846.0,-6892.5,0
2021-02-04,2021,5,15,0.0,41846.0,-6892.5,0
2021-02-05,2021,5,15,284.0,42130.0,-6608.5,8
2021-02-07,2021,5,15,456.0,42586.0,-6152.5,8
2021-02-08,2021,5,15,288.0,42874.0,-5864.5,8
2021-02-09,2021,5,15,416.0,43290.0,-5448.5,8
2021-02-10,2021,5,15,28.0,43318.0,-5420.5,8
2021-02-11,2021,5,15,-228.0,43090.0,-5648.5,8
2021-02-12,2021,5,15,400.0,43490.0,-5248.5,8
2021-02-14,2021,5,15,496.0,43986.0,-4752.5,8
2021-02-15,2021,5,15,448.0,44434.0,-4304.5,8
2021-02-16,2021,5,15,-784.0,43650.0,-5088.5,8
2021-02-17,2021,5,15,292.0,43942.0,-4796.5,8
2021-02-18,2021,5,15,-720.0,43222.0,-5516.5,8
2021-02-19,2021,5,15,189.0,43411.0,-5327.5,14
2021-02-21,2021,5,15,-147.0,43264.0,-5474.5,14
2021-02-22,2021,5,15,1316.0,44580.0,-4158.5,14
2021-02-23,2021,5,15,-1162.0,43418.0,-5320.5,14
2021-02-24,2021,5,15,4074.0,47492.0,-1246.5,14
2021-02-25,2021,5,15,-5292.0,42200.0,-6538.5,14
2021-02-26,2021,5,15,-2478.0,39722.0,-9016.5,14
2021-02-28,2021,5,15,518.0,40240.0,-8498.5,0
2021-03-01,2021,5,15,1180.0,41420.0,-7318.5,8
2021-03-02,2021,5,15,228.0,41648.0,-7090.5,8
2021-03-03,2021,5,15,-1384.0,40264.0,-8474.5,8
2021-03-04,2021,5,15,-1288.0,38976.0,-9762.5,8
2021-03-05,2021,5,15,0.0,38976.0,-9762.5,0
2021-03-07,2021,5,15,-352.0,38624.0,-10114.5,8
2021-03-08,2021,5,15,2032.0,40656.0,-8082.5,8
2021-03-09,2021,5,15,-724.0,39932.0,-8806.5,8
2021-03-10,2021,5,15,2444.0,42376.0,-6362.5,8
2021-03-11,2021,5,15,704.0,43080.0,-5658.5,8
2021-03-12,2021,5,15,404.0,43484.0,-5254.5,8
2021-03-14,2021,5,15,204.0,43688.0,-5050.5,8
2021-03-15,2021,5,15,292.0,43980.0,-4758.5,8
2021-03-16,2021,5,15,-464.0,43516.0,-5222.5,8
2021-03-17,2021,5,15,1132.0,44648.0,-4090.5,8
2021-03-18,2021,5,15,-684.0,43964.0,-4774.5,8
2021-03-19,2021,5,15,-1503.0,42461.0,-6277.5,14
2021-03-21,2021,5,15,-581.0,41880.0,-6858.5,14
2021-03-22,2021,5,15,1106.0,42986.0,-5752.5,14
2021-03-23,2021,5,15,-1953.0,41033.0,-7705.5,14
2021-03-24,2021,5,15,749.0,41782.0,-6956.5,14
2021-03-25,2021,5,15,1239.0,43021.0,-5717.5,14
2021-03-26,2021,5,15,2590.0,45611.0,-3127.5,14
2021-03-28,2021,5,15,-707.0,44904.0,-3834.5,14
2021-03-29,2021,5,15,1645.0,46549.0,-2189.5,14
2021-03-30,2021,5,15,-1015.0,45534.0,-3204.5,14
2021-03-31,2021,5,15,-609.0,44925.0,-3813.5,14
2021-04-01,2021,5,15,1197.0,46122.0,-2616.5,14
2021-04-02,2021,5,15,1316.0,47438.0,-1300.5,15
2021-04-04,2021,5,15,300.0,47738.0,-1000.5,15
2021-04-05,2021,5,15,547.5,48285.5,-453.0,15
2021-04-06,2021,5,15,135.0,48420.5,-318.0,15
2021-04-07,2021,5,15,255.0,48675.5,-63.0,15
2021-04-08,2021,5,15,135.0,48810.5,0.0,15
2021-04-09,2021,5,15,1792.5,50603.0,0.0,15
2021-04-11,2021,5,15,-390.0,50213.0,-390.0,15
2021-04-12,2021,5,15,487.5,50700.5,0.0,15
2021-04-13,2021,5,15,-900.0,49800.5,-900.0,15
2021-04-14,2021,5,15,1132.5,50933.0,0.0,15
2021-04-15,2021,5,15,1567.5,52500.5,0.0,15
2021-04-16,2021,5,15,1207.5,53708.0,0.0,15
2021-04-18,2021,5,15,-517.5,53190.5,-517.5,15
2021-04-19,2021,5,15,450.0,53640.5,-67.5,15
2021-04-20,2021,5,15,-2820.0,50820.5,-2887.5,15
2021-04-21,2021,5,15,2325.0,53145.5,-562.5,15
2021-04-22,2021,5,15,-1710.0,51435.5,-2272.5,15
2021-04-23,2021,5,15,1200.0,52635.5,-1072.5,15
2021-04-25,2021,5,15,517.5,53153.0,-555.0,15
2021-04-26,2021,5,15,-577.5,52575.5,-1132.5,15
2021-04-27,2021,5,15,-480.0,52095.5,-1612.5,15
2021-04-28,2021,5,15,-232.5,51863.0,-1845.0,15
2021-04-29,2021,5,15,660.0,52523.0,-1185.0,15
2021-04-30,2021,5,15,-742.5,51780.5,-1927.5,15
2021-05-02,2021,5,15,727.5,52508.0,-1200.0,15
2021-05-03,2021,5,15,480.0,52988.0,-720.0,15
2021-05-04,2021,5,15,1110.0,54098.0,0.0,15
2021-05-05,2021,5,15,60.0,54158.0,0.0,15
2021-05-06,2021,5,15,2557.5,56715.5,0.0,15
2021-05-07,2021,5,15,1807.5,58523.0,0.0,15
2021-05-09,2021,5,15,570.0,59093.0,0.0,15
2021-05-10,2021,5,15,-1447.5,57645.5,-1447.5,15
2021-05-11,2021,5,15,-4800.0,52845.5,-6247.5,15
2021-05-12,2021,5,15,-7.5,52838.0,-6255.0,0
2021-05-13,2021,5,15,0.0,52838.0,-6255.0,0
2021-05-14,2021,5,15,0.0,52838.0,-6255.0,0
2021-05-16,2021,5,15,0.0,52838.0,-6255.0,0
2021-05-17,2021,5,15,0.0,52838.0,-6255.0,0
2021-05-18,2021,5,15,0.0,52838.0,-6255.0,0
2021-05-19,2021,5,15,0.0,52838.0,-6255.0,0
2021-05-20,2021,5,15,0.0,52838.0,-6255.0,0
2021-05-21,2021,5,15,0.0,52838.0,-6255.0,0
2021-05-23,2021,5,15,0.0,52838.0,-6255.0,0
2021-05-24,2021,5,15,0.0,52838.0,-6255.0,0
2021-05-25,2021,5,15,0.0,52838.0,-6255.0,0
2021-05-26,2021,5,15,0.0,52838.0,-6255.0,0
2021-05-27,2021,5,15,0.0,52838.0,-6255.0,0
2021-05-28,2021,5,15,0.0,52838.0,-6255.0,0
2021-05-30,2021,5,15,0.0,52838.0,-6255.0,0
2021-05-31,2021,5,15,0.0,52838.0,-6255.0,0
2021-06-01,2021,5,15,0.0,52838.0,-6255.0,0
2021-06-02,2021,5,15,0.0,52838.0,-6255.0,0
2021-06-03,2021,5,15,0.0,52838.0,-6255.0,0
2021-06-04,2021,5,15,0.0,52838.0,-6255.0,0
2021-06-06,2021,5,15,0.0,52838.0,-6255.0,0
2021-06-07,2021,5,15,0.0,52838.0,-6255.0,0
2021-06-08,2021,5,15,0.0,52838.0,-6255.0,0
2021-06-09,2021,5,15,0.0,52838.0,-6255.0,0
2021-06-10,2021,5,15,0.0,52838.0,-6255.0,0
2021-06-11,2021,5,15,0.0,52838.0,-6255.0,0
2021-06-13,2021,5,15,0.0,52838.0,-6255.0,0
2021-06-14,2021,5,15,0.0,52838.0,-6255.0,0
2021-06-15,2021,5,15,0.0,52838.0,-6255.0,0
2021-06-16,2021,5,15,0.0,52838.0,-6255.0,0
2021-06-17,2021,5,15,0.0,52838.0,-6255.0,0
2021-06-18,2021,5,15,0.0,52838.0,-6255.0,0
2021-06-20,2021,5,15,0.0,52838.0,-6255.0,0
2021-06-21,2021,5,15,0.0,52838.0,-6255.0,0
2021-06-22,2021,5,15,0.0,52838.0,-6255.0,0
2021-06-23,2021,5,15,0.0,52838.0,-6255.0,0
2021-06-24,2021,5,15,1472.0,54310.0,-4783.0,8
2021-06-25,2021,5,15,580.0,54890.0,-4203.0,8
2021-06-27,2021,5,15,-104.0,54786.0,-4307.0,8
2021-06-28,2021,5,15,-880.0,53906.0,-5187.0,8
2021-06-29,2021,5,15,356.0,54262.0,-4831.0,8
2021-06-30,2021,5,15,968.0,55230.0,-3863.0,8
2021-07-01,2021,5,15,352.0,55582.0,-3511.0,8
2021-07-02,2021,5,15,251.0,55833.0,-3260.0,14
2021-07-04,2021,5,15,-168.0,55665.0,-3428.0,14
2021-07-05,2021,5,15,742.0,56407.0,-2686.0,14
2021-07-06,2021,5,15,-2009.0,54398.0,-4695.0,14
2021-07-07,2021,5,15,287.0,54685.0,-4408.0,14
2021-07-08,2021,5,15,-1876.0,52809.0,-6284.0,14
2021-07-09,2021,5,15,3808.0,56617.0,-2476.0,14
2021-07-11,2021,5,15,-441.0,56176.0,-2917.0,14
2021-07-12,2021,5,15,1246.0,57422.0,-1671.0,14
2021-07-13,2021,5,15,-896.0,56526.0,-2567.0,14
2021-07-14,2021,5,15,126.0,56652.0,-2441.0,14
2021-07-15,2021,5,15,756.0,57408.0,-1685.0,14
2021-07-16,2021,5,15,-2181.0,55227.0,-3866.0,15
2021-07-18,2021,5,15,-1080.0,54147.0,-4946.0,15
2021-07-19,2021,5,15,-3847.5,50299.5,-8793.5,15
2021-07-20,2021,5,15,3772.5,54072.0,-5021.0,15
2021-07-21,2021,5,15,2385.0,56457.0,-2636.0,15
2021-07-22,2021,5,15,315.0,56772.0,-2321.0,15
2021-07-23,2021,5,15,1177.5,57949.5,-1143.5,15
2021-07-25,2021,5,15,-900.0,57049.5,-2043.5,15
2021-07-26,2021,5,15,1372.5,58422.0,-671.0,15
2021-07-27,2021,5,15,-780.0,57642.0,-1451.0,15
2021-07-28,2021,5,15,-397.5,57244.5,-1848.5,15
2021-07-29,2021,5,15,352.5,57597.0,-1496.0,15
2021-07-30,2021,5,15,0.0,57597.0,-1496.0,15
2021-08-01,2021,5,15,840.0,58437.0,-656.0,15
2021-08-02,2021,5,15,-1395.0,57042.0,-2051.0,15
2021-08-03,2021,5,15,1260.0,58302.0,-791.0,15
2021-08-04,2021,5,15,-1627.5,56674.5,-2418.5,15
2021-08-05,2021,5,15,1252.5,57927.0,-1166.0,15
2021-08-06,2021,5,15,1342.5,59269.5,0.0,15
2021-08-08,2021,5,15,-352.5,58917.0,-352.5,15
2021-08-09,2021,5,15,-817.5,58099.5,-1170.0,15
2021-08-10,2021,5,15,1500.0,59599.5,0.0,15
2021-08-11,2021,5,15,1890.0,61489.5,0.0,15
2021-08-12,2021,5,15,105.0,61594.5,0.0,15
2021-08-13,2021,5,15,7.5,61602.0,0.0,15
2021-08-15,2021,5,15,-862.5,60739.5,-862.5,15
2021-08-16,2021,5,15,1095.0,61834.5,0.0,15
2021-08-17,2021,5,15,-1282.5,60552.0,-1282.5,15
2021-08-18,2021,5,15,-2932.5,57619.5,-4215.0,15
2021-08-19,2021,5,15,-690.0,56929.5,-4905.0,15
2021-08-20,2021,5,15,2085.0,59014.5,-2820.0,15
2021-08-22,2021,5,15,997.5,60012.0,-1822.5,15
2021-08-23,2021,5,15,1162.5,61174.5,-660.0,15
2021-08-24,2021,5,15,-585.0,60589.5,-1245.0,15
2021-08-25,2021,5,15,420.0,61009.5,-825.0,15
2021-08-26,2021,5,15,-892.5,60117.0,-1717.5,15
2021-08-27,2021,5,15,1537.5,61654.5,-180.0,15
2021-08-29,2021,5,15,127.5,61782.0,-52.5,15
2021-08-30,2021,5,15,-232.5,61549.5,-285.0,15
2021-08-31,2021,5,15,240.0,61789.5,-45.0,15
2021-09-01,2021,5,15,-1380.0,60409.5,-1425.0,15
2021-09-02,2021,5,15,1747.5,62157.0,0.0,15
2021-09-03,2021,5,15,-1042.5,61114.5,-1042.5,15
2021-09-05,2021,5,15,67.5,61182.0,-975.0,15
2021-09-06,2021,5,15,397.5,61579.5,-577.5,15
2021-09-07,2021,5,15,-2407.5,59172.0,-2985.0,15
2021-09-08,2021,5,15,-1252.5,57919.5,-4237.5,15
2021-09-09,2021,5,15,330.0,58249.5,-3907.5,15
2021-09-10,2021,5,15,-885.0,57364.5,-4792.5,0
2021-09-12,2021,5,15,0.0,57364.5,-4792.5,0
2021-09-13,2021,5,15,0.0,57364.5,-4792.5,0
2021-09-14,2021,5,15,0.0,57364.5,-4792.5,0
2021-09-15,2021,5,15,0.0,57364.5,-4792.5,0
2021-09-16,2021,5,15,0.0,57364.5,-4792.5,0
2021-09-17,2021,5,15,0.0,57364.5,-4792.5,0
2021-09-19,2021,5,15,0.0,57364.5,-4792.5,0
2021-09-20,2021,5,15,0.0,57364.5,-4792.5,0
2021-09-21,2021,5,15,0.0,57364.5,-4792.5,0
2021-09-22,2021,5,15,0.0,57364.5,-4792.5,0
2021-09-23,2021,5,15,0.0,57364.5,-4792.5,0
2021-09-24,2021,5,15,0.0,57364.5,-4792.5,0
2021-09-26,2021,5,15,0.0,57364.5,-4792.5,0
2021-09-27,2021,5,15,0.0,57364.5,-4792.5,0
2021-09-28,2021,5,15,0.0,57364.5,-4792.5,0
2021-09-29,2021,5,15,0.0,57364.5,-4792.5,0
2021-09-30,2021,5,15,0.0,57364.5,-4792.5,0
2021-10-01,2021,5,15,0.0,57364.5,-4792.5,0
2021-10-03,2021,5,15,0.0,57364.5,-4792.5,0
2021-10-04,2021,5,15,0.0,57364.5,-4792.5,0
2021-10-05,2021,5,15,0.0,57364.5,-4792.5,0
2021-10-06,2021,5,15,0.0,57364.5,-4792.5,0
2021-10-07,2021,5,15,0.0,57364.5,-4792.5,0
2021-10-08,2021,5,15,0.0,57364.5,-4792.5,0
2021-10-10,2021,5,15,0.0,57364.5,-4792.5,0
2021-10-11,2021,5,15,0.0,57364.5,-4792.5,0
2021-10-12,2021,5,15,0.0,57364.5,-4792.5,0
2021-10-13,2021,5,15,0.0,57364.5,-4792.5,0
2021-10-14,2021,5,15,2112.0,59476.5,-2680.5,8
2021-10-15,2021,5,15,1196.0,60672.5,-1484.5,8
2021-10-17,2021,5,15,-16.0,60656.5,-1500.5,8
2021-10-18,2021,5,15,-268.0,60388.5,-1768.5,8
2021-10-19,2021,5,15,868.0,61256.5,-900.5,8
2021-10-20,2021,5,15,392.0,61648.5,-508.5,8
2021-10-21,2021,5,15,332.0,61980.5,-176.5,8
2021-10-22,2021,5,15,-280.0,61700.5,-456.5,14
2021-10-24,2021,5,15,483.0,62183.5,0.0,14
2021-10-25,2021,5,15,735.0,62918.5,0.0,14
2021-10-26,2021,5,15,-196.0,62722.5,-196.0,14
2021-10-27,2021,5,15,-1386.0,61336.5,-1582.0,14
2021-10-28,2021,5,15,1015.0,62351.5,-567.0,14
2021-10-29,2021,5,15,1078.0,63429.5,0.0,14
2021-10-31,2021,5,15,294.0,63723.5,0.0,14
2021-11-01,2021,5,15,-441.0,63282.5,-441.0,14
2021-11-02,2021,5,15,1211.0,64493.5,0.0,14
2021-11-03,2021,5,15,812.0,65305.5,0.0,14
2021-11-04,2021,5,15,-161.0,65144.5,-161.0,14
2021-11-05,2021,5,15,1251.5,66396.0,0.0,15
2021-11-07,2021,5,15,90.0,66486.0,0.0,15
2021-11-08,2021,5,15,285.0,66771.0,0.0,15
2021-11-09,2021,5,15,-997.5,65773.5,-997.5,15
2021-11-10,2021,5,15,-975.0,64798.5,-1972.5,15
2021-11-11,2021,5,15,-562.5,64236.0,-2535.0,15
2021-11-12,2021,5,15,1102.5,65338.5,-1432.5,15
2021-11-14,2021,5,15,-135.0,65203.5,-1567.5,15
2021-11-15,2021,5,15,0.0,65203.5,-1567.5,15
2021-11-16,2021,5,15,427.5,65631.0,-1140.0,15
2021-11-17,2021,5,15,-1477.5,64153.5,-2617.5,15
2021-11-18,2021,5,15,465.0,64618.5,-2152.5,15
2021-11-19,2021,5,15,-2587.5,62031.0,-4740.0,15
2021-11-21,2021,5,15,562.5,62593.5,-4177.5,15
2021-11-22,2021,5,15,-412.5,62181.0,-4590.0,15
2021-11-23,2021,5,15,622.5,62803.5,-3967.5,15
2021-11-24,2021,5,15,1350.0,64153.5,-2617.5,15
2021-11-25,2021,5,15,7.5,64161.0,-2610.0,0
2021-11-26,2021,5,15,0.0,64161.0,-2610.0,0
2021-11-28,2021,5,15,0.0,64161.0,-2610.0,0
2021-11-29,2021,5,15,0.0,64161.0,-2610.0,0
2021-11-30,2021,5,15,0.0,64161.0,-2610.0,0
2021-12-01,2021,5,15,0.0,64161.0,-2610.0,0
2021-12-02,2021,5,15,0.0,64161.0,-2610.0,0
2021-12-03,2021,5,15,0.0,64161.0,-2610.0,0
2021-12-05,2021,5,15,0.0,64161.0,-2610.0,0
2021-12-06,2021,5,15,0.0,64161.0,-2610.0,0
2021-12-07,2021,5,15,1800.0,65961.0,-810.0,8
2021-12-08,2021,5,15,-492.0,65469.0,-1302.0,8
2021-12-09,2021,5,15,240.0,65709.0,-1062.0,8
2021-12-10,2021,5,15,568.0,66277.0,-494.0,8
2021-12-12,2021,5,15,460.0,66737.0,-34.0,8
2021-12-13,2021,5,15,-1664.0,65073.0,-1698.0,8
2021-12-14,2021,5,15,-320.0,64753.0,-2018.0,8
2021-12-15,2021,5,15,1460.0,66213.0,-558.0,8
2021-12-16,2021,5,15,-400.0,65813.0,-958.0,8
2021-12-17,2021,5,15,-1732.0,64081.0,-2690.0,8
2021-12-19,2021,5,15,-332.0,63749.0,-3022.0,0
2021-12-20,2021,5,15,0.0,63749.0,-3022.0,0
2021-12-21,2021,5,15,0.0,63749.0,-3022.0,0
2021-12-22,2021,5,15,1076.0,64825.0,-1946.0,8
2021-12-23,2021,5,15,796.0,65621.0,-1150.0,8
2021-12-26,2021,5,15,-60.0,65561.0,-1210.0,8
2021-12-27,2021,5,15,1252.0,66813.0,0.0,8
2021-12-28,2021,5,15,604.0,67417.0,0.0,8
2021-12-29,2021,5,15,280.0,67697.0,0.0,8
2021-12-30,2021,5,15,-576.0,67121.0,-576.0,8
2021-12-31,2021,5,15,136.0,67257.0,-440.0,8
2022-01-02,2022,13,23,720.0,67977.0,0.0,16
2022-01-03,2022,13,23,1264.0,69241.0,0.0,16
2022-01-04,2022,13,23,768.0,70009.0,0.0,16
2022-01-05,2022,13,23,-3384.0,66625.0,-3384.0,16
2022-01-06,2022,13,23,168.0,66793.0,-3216.0,16
2022-01-07,2022,13,23,-740.0,66053.0,-3956.0,23
2022-01-09,2022,13,23,-149.5,65903.5,-4105.5,23
2022-01-10,2022,13,23,-1817.0,64086.5,-5922.5,23
2022-01-11,2022,13,23,2495.5,66582.0,-3427.0,23
2022-01-12,2022,13,23,-506.0,66076.0,-3933.0,23
2022-01-13,2022,13,23,-1242.0,64834.0,-5175.0,23
2022-01-14,2022,13,23,-2104.5,62729.5,-7279.5,23
2022-01-16,2022,13,23,-1069.5,61660.0,-8349.0,23
2022-01-17,2022,13,23,-264.5,61395.5,-8613.5,23
2022-01-18,2022,13,23,46.0,61441.5,-8567.5,0
2022-01-19,2022,13,23,0.0,61441.5,-8567.5,0
2022-01-20,2022,13,23,0.0,61441.5,-8567.5,0
2022-01-21,2022,13,23,0.0,61441.5,-8567.5,0
2022-01-23,2022,13,23,0.0,61441.5,-8567.5,0
2022-01-24,2022,13,23,0.0,61441.5,-8567.5,0
2022-01-25,2022,13,23,0.0,61441.5,-8567.5,0
2022-01-26,2022,13,23,0.0,61441.5,-8567.5,0
2022-01-27,2022,13,23,0.0,61441.5,-8567.5,0
2022-01-28,2022,13,23,0.0,61441.5,-8567.5,0
2022-01-30,2022,13,23,0.0,61441.5,-8567.5,0
2022-01-31,2022,13,23,0.0,61441.5,-8567.5,0
2022-02-01,2022,13,23,0.0,61441.5,-8567.5,0
2022-02-02,2022,13,23,1680.0,63121.5,-6887.5,16
2022-02-03,2022,13,23,-2504.0,60617.5,-9391.5,16
2022-02-04,2022,13,23,-8.0,60609.5,-9399.5,0
2022-02-06,2022,13,23,0.0,60609.5,-9399.5,0
2022-02-07,2022,13,23,0.0,60609.5,-9399.5,0
2022-02-08,2022,13,23,0.0,60609.5,-9399.5,0
2022-02-09,2022,13,23,1304.0,61913.5,-8095.5,16
2022-02-10,2022,13,23,-5784.0,56129.5,-13879.5,16
2022-02-11,2022,13,23,8.0,56137.5,-13871.5,0
2022-02-13,2022,13,23,0.0,56137.5,-13871.5,0
2022-02-14,2022,13,23,0.0,56137.5,-13871.5,0
2022-02-15,2022,13,23,0.0,56137.5,-13871.5,0
2022-02-16,2022,13,23,0.0,56137.5,-13871.5,0
2022-02-17,2022,13,23,0.0,56137.5,-13871.5,0
2022-02-18,2022,13,23,0.0,56137.5,-13871.5,0
2022-02-20,2022,13,23,0.0,56137.5,-13871.5,0
2022-02-21,2022,13,23,0.0,56137.5,-13871.5,0
2022-02-22,2022,13,23,0.0,56137.5,-13871.5,0
2022-02-23,2022,13,23,0.0,56137.5,-13871.5,0
2022-02-24,2022,13,23,0.0,56137.5,-13871.5,0
2022-02-25,2022,13,23,0.0,56137.5,-13871.5,0
2022-02-27,2022,13,23,0.0,56137.5,-13871.5,0
2022-02-28,2022,13,23,0.0,56137.5,-13871.5,0
2022-03-01,2022,13,23,0.0,56137.5,-13871.5,0
2022-03-02,2022,13,23,0.0,56137.5,-13871.5,0
2022-03-03,2022,13,23,0.0,56137.5,-13871.5,0
2022-03-04,2022,13,23,0.0,56137.5,-13871.5,0
2022-03-06,2022,13,23,0.0,56137.5,-13871.5,0
2022-03-07,2022,13,23,0.0,56137.5,-13871.5,0
2022-03-08,2022,13,23,0.0,56137.5,-13871.5,0
2022-03-09,2022,13,23,0.0,56137.5,-13871.5,0
2022-03-10,2022,13,23,0.0,56137.5,-13871.5,0
2022-03-11,2022,13,23,0.0,56137.5,-13871.5,0
2022-03-13,2022,13,23,0.0,56137.5,-13871.5,0
2022-03-14,2022,13,23,0.0,56137.5,-13871.5,0
2022-03-15,2022,13,23,0.0,56137.5,-13871.5,0
2022-03-16,2022,13,23,0.0,56137.5,-13871.5,0
2022-03-17,2022,13,23,0.0,56137.5,-13871.5,0
2022-03-18,2022,13,23,0.0,56137.5,-13871.5,0
2022-03-20,2022,13,23,0.0,56137.5,-13871.5,0
2022-03-21,2022,13,23,0.0,56137.5,-13871.5,0
2022-03-22,2022,13,23,0.0,56137.5,-13871.5,0
2022-03-23,2022,13,23,0.0,56137.5,-13871.5,0
2022-03-24,2022,13,23,0.0,56137.5,-13871.5,0
2022-03-25,2022,13,23,0.0,56137.5,-13871.5,0
2022-03-27,2022,13,23,0.0,56137.5,-13871.5,0
2022-03-28,2022,13,23,1760.0,57897.5,-12111.5,16
2022-03-29,2022,13,23,2096.0,59993.5,-10015.5,16
2022-03-30,2022,13,23,72.0,60065.5,-9943.5,16
2022-03-31,2022,13,23,-3328.0,56737.5,-13271.5,16
2022-04-01,2022,13,23,-192.0,56545.5,-13463.5,16
2022-04-03,2022,13,23,64.0,56609.5,-13399.5,16
2022-04-04,2022,13,23,536.0,57145.5,-12863.5,16
2022-04-05,2022,13,23,-2200.0,54945.5,-15063.5,16
2022-04-06,2022,13,23,16.0,54961.5,-15047.5,0
2022-04-07,2022,13,23,0.0,54961.5,-15047.5,0
2022-04-08,2022,13,23,0.0,54961.5,-15047.5,0
2022-04-10,2022,13,23,0.0,54961.5,-15047.5,0
2022-04-11,2022,13,23,0.0,54961.5,-15047.5,0
2022-04-12,2022,13,23,0.0,54961.5,-15047.5,0
2022-04-13,2022,13,23,0.0,54961.5,-15047.5,0
2022-04-14,2022,13,23,0.0,54961.5,-15047.5,0
2022-04-17,2022,13,23,0.0,54961.5,-15047.5,0
2022-04-18,2022,13,23,0.0,54961.5,-15047.5,0
2022-04-19,2022,13,23,0.0,54961.5,-15047.5,0
2022-04-20,2022,13,23,2848.0,57809.5,-12199.5,16
2022-04-21,2022,13,23,-4608.0,53201.5,-16807.5,16
2022-04-22,2022,13,23,8.0,53209.5,-16799.5,0
2022-04-24,2022,13,23,0.0,53209.5,-16799.5,0
2022-04-25,2022,13,23,0.0,53209.5,-16799.5,0
2022-04-26,2022,13,23,0.0,53209.5,-16799.5,0
2022-04-27,2022,13,23,0.0,53209.5,-16799.5,0
2022-04-28,2022,13,23,0.0,53209.5,-16799.5,0
2022-04-29,2022,13,23,0.0,53209.5,-16799.5,0
2022-05-01,2022,13,23,0.0,53209.5,-16799.5,0
2022-05-02,2022,13,23,0.0,53209.5,-16799.5,0
2022-05-03,2022,13,23,0.0,53209.5,-16799.5,0
2022-05-04,2022,13,23,0.0,53209.5,-16799.5,0
2022-05-05,2022,13,23,0.0,53209.5,-16799.5,0
2022-05-06,2022,13,23,0.0,53209.5,-16799.5,0
2022-05-08,2022,13,23,0.0,53209.5,-16799.5,0
2022-05-09,2022,13,23,0.0,53209.5,-16799.5,0
2022-05-10,2022,13,23,0.0,53209.5,-16799.5,0
2022-05-11,2022,13,23,0.0,53209.5,-16799.5,0
2022-05-12,2022,13,23,0.0,53209.5,-16799.5,0
2022-05-13,2022,13,23,0.0,53209.5,-16799.5,0
2022-05-15,2022,13,23,0.0,53209.5,-16799.5,0
2022-05-16,2022,13,23,0.0,53209.5,-16799.5,0
2022-05-17,2022,13,23,0.0,53209.5,-16799.5,0
2022-05-18,2022,13,23,0.0,53209.5,-16799.5,0
2022-05-19,2022,13,23,0.0,53209.5,-16799.5,0
2022-05-20,2022,13,23,0.0,53209.5,-16799.5,0
2022-05-22,2022,13,23,0.0,53209.5,-16799.5,0
2022-05-23,2022,13,23,0.0,53209.5,-16799.5,0
2022-05-24,2022,13,23,0.0,53209.5,-16799.5,0
2022-05-25,2022,13,23,0.0,53209.5,-16799.5,0
2022-05-26,2022,13,23,0.0,53209.5,-16799.5,0
2022-05-27,2022,13,23,5640.0,58849.5,-11159.5,16
2022-05-29,2022,13,23,-168.0,58681.5,-11327.5,16
2022-05-30,2022,13,23,-288.0,58393.5,-11615.5,16
2022-05-31,2022,13,23,-328.0,58065.5,-11943.5,16
2022-06-01,2022,13,23,-2872.0,55193.5,-14815.5,16
2022-06-02,2022,13,23,3624.0,58817.5,-11191.5,16
2022-06-03,2022,13,23,-2632.0,56185.5,-13823.5,16
2022-06-05,2022,13,23,864.0,57049.5,-12959.5,16
2022-06-06,2022,13,23,-1968.0,55081.5,-14927.5,16
2022-06-07,2022,13,23,2400.0,57481.5,-12527.5,16
2022-06-08,2022,13,23,-1448.0,56033.5,-13975.5,16
2022-06-09,2022,13,23,-4600.0,51433.5,-18575.5,16
2022-06-10,2022,13,23,-240.0,51193.5,-18815.5,0
2022-06-12,2022,13,23,0.0,51193.5,-18815.5,0
2022-06-13,2022,13,23,0.0,51193.5,-18815.5,0
2022-06-14,2022,13,23,0.0,51193.5,-18815.5,0
2022-06-15,2022,13,23,0.0,51193.5,-18815.5,0
2022-06-16,2022,13,23,0.0,51193.5,-18815.5,0
2022-06-17,2022,13,23,0.0,51193.5,-18815.5,0
2022-06-19,2022,13,23,0.0,51193.5,-18815.5,0
2022-06-20,2022,13,23,0.0,51193.5,-18815.5,0
2022-06-21,2022,13,23,0.0,51193.5,-18815.5,0
2022-06-22,2022,13,23,0.0,51193.5,-18815.5,0
2022-06-23,2022,13,23,0.0,51193.5,-18815.5,0
2022-06-24,2022,13,23,0.0,51193.5,-18815.5,0
2022-06-26,2022,13,23,0.0,51193.5,-18815.5,0
2022-06-27,2022,13,23,0.0,51193.5,-18815.5,0
2022-06-28,2022,13,23,0.0,51193.5,-18815.5,0
2022-06-29,2022,13,23,0.0,51193.5,-18815.5,0
2022-06-30,2022,13,23,0.0,51193.5,-18815.5,0
2022-07-01,2022,13,23,0.0,51193.5,-18815.5,0
2022-07-03,2022,13,23,0.0,51193.5,-18815.5,0
2022-07-04,2022,13,23,0.0,51193.5,-18815.5,0
2022-07-05,2022,13,23,0.0,51193.5,-18815.5,0
2022-07-06,2022,13,23,0.0,51193.5,-18815.5,0
2022-07-07,2022,13,23,0.0,51193.5,-18815.5,0
2022-07-08,2022,13,23,0.0,51193.5,-18815.5,0
2022-07-10,2022,13,23,0.0,51193.5,-18815.5,0
2022-07-11,2022,13,23,0.0,51193.5,-18815.5,0
2022-07-12,2022,13,23,0.0,51193.5,-18815.5,0
2022-07-13,2022,13,23,0.0,51193.5,-18815.5,0
2022-07-14,2022,13,23,0.0,51193.5,-18815.5,0
2022-07-15,2022,13,23,0.0,51193.5,-18815.5,0
2022-07-17,2022,13,23,0.0,51193.5,-18815.5,0
2022-07-18,2022,13,23,0.0,51193.5,-18815.5,0
2022-07-19,2022,13,23,7064.0,58257.5,-11751.5,16
2022-07-20,2022,13,23,-1120.0,57137.5,-12871.5,16
2022-07-21,2022,13,23,1240.0,58377.5,-11631.5,16
2022-07-22,2022,13,23,-872.0,57505.5,-12503.5,16
2022-07-24,2022,13,23,-88.0,57417.5,-12591.5,16
2022-07-25,2022,13,23,40.0,57457.5,-12551.5,16
2022-07-26,2022,13,23,-144.0,57313.5,-12695.5,16
2022-07-27,2022,13,23,2272.0,59585.5,-10423.5,16
2022-07-28,2022,13,23,3040.0,62625.5,-7383.5,16
2022-07-29,2022,13,23,2309.5,64935.0,-5074.0,23
2022-07-31,2022,13,23,-1575.5,63359.5,-6649.5,23
2022-08-01,2022,13,23,-57.5,63302.0,-6707.0,23
2022-08-02,2022,13,23,-2656.5,60645.5,-9363.5,23
2022-08-03,2022,13,23,3634.0,64279.5,-5729.5,23
2022-08-04,2022,13,23,184.0,64463.5,-5545.5,23
2022-08-05,2022,13,23,-609.5,63854.0,-6155.0,23
2022-08-07,2022,13,23,57.5,63911.5,-6097.5,23
2022-08-08,2022,13,23,1771.0,65682.5,-4326.5,23
2022-08-09,2022,13,23,-1690.5,63992.0,-6017.0,23
2022-08-10,2022,13,23,7279.5,71271.5,0.0,23
2022-08-11,2022,13,23,-218.5,71053.0,-218.5,23
2022-08-12,2022,13,23,4324.0,75377.0,0.0,23
2022-08-14,2022,13,23,-782.0,74595.0,-782.0,23
2022-08-15,2022,13,23,2564.5,77159.5,0.0,23
2022-08-16,2022,13,23,2909.5,80069.0,0.0,23
2022-08-17,2022,13,23,-2104.5,77964.5,-2104.5,23
2022-08-18,2022,13,23,-57.5,77907.0,-2162.0,23
2022-08-19,2022,13,23,-2748.5,75158.5,-4910.5,23
2022-08-21,2022,13,23,-1380.0,73778.5,-6290.5,23
2022-08-22,2022,13,23,-5451.0,68327.5,-11741.5,23
2022-08-23,2022,13,23,11.5,68339.0,-11730.0,0
2022-08-24,2022,13,23,0.0,68339.0,-11730.0,0
2022-08-25,2022,13,23,0.0,68339.0,-11730.0,0
2022-08-26,2022,13,23,0.0,68339.0,-11730.0,0
2022-08-28,2022,13,23,0.0,68339.0,-11730.0,0
2022-08-29,2022,13,23,0.0,68339.0,-11730.0,0
2022-08-30,2022,13,23,0.0,68339.0,-11730.0,0
2022-08-31,2022,13,23,0.0,68339.0,-11730.0,0
2022-09-01,2022,13,23,0.0,68339.0,-11730.0,0
2022-09-02,2022,13,23,0.0,68339.0,-11730.0,0
2022-09-04,2022,13,23,0.0,68339.0,-11730.0,0
2022-09-05,2022,13,23,0.0,68339.0,-11730.0,0
2022-09-06,2022,13,23,0.0,68339.0,-11730.0,0
2022-09-07,2022,13,23,0.0,68339.0,-11730.0,0
2022-09-08,2022,13,23,0.0,68339.0,-11730.0,0
2022-09-09,2022,13,23,0.0,68339.0,-11730.0,0
2022-09-11,2022,13,23,0.0,68339.0,-11730.0,0
2022-09-12,2022,13,23,0.0,68339.0,-11730.0,0
2022-09-13,2022,13,23,0.0,68339.0,-11730.0,0
2022-09-14,2022,13,23,0.0,68339.0,-11730.0,0
2022-09-15,2022,13,23,0.0,68339.0,-11730.0,0
2022-09-16,2022,13,23,0.0,68339.0,-11730.0,0
2022-09-18,2022,13,23,0.0,68339.0,-11730.0,0
2022-09-19,2022,13,23,0.0,68339.0,-11730.0,0
2022-09-20,2022,13,23,0.0,68339.0,-11730.0,0
2022-09-21,2022,13,23,0.0,68339.0,-11730.0,0
2022-09-22,2022,13,23,0.0,68339.0,-11730.0,0
2022-09-23,2022,13,23,0.0,68339.0,-11730.0,0
2022-09-25,2022,13,23,0.0,68339.0,-11730.0,0
2022-09-26,2022,13,23,0.0,68339.0,-11730.0,0
2022-09-27,2022,13,23,0.0,68339.0,-11730.0,0
2022-09-28,2022,13,23,0.0,68339.0,-11730.0,0
2022-09-29,2022,13,23,0.0,68339.0,-11730.0,0
2022-09-30,2022,13,23,0.0,68339.0,-11730.0,0
2022-10-02,2022,13,23,0.0,68339.0,-11730.0,0
2022-10-03,2022,13,23,0.0,68339.0,-11730.0,0
2022-10-04,2022,13,23,0.0,68339.0,-11730.0,0
2022-10-05,2022,13,23,0.0,68339.0,-11730.0,0
2022-10-06,2022,13,23,0.0,68339.0,-11730.0,0
2022-10-07,2022,13,23,0.0,68339.0,-11730.0,0
2022-10-09,2022,13,23,0.0,68339.0,-11730.0,0
2022-10-10,2022,13,23,0.0,68339.0,-11730.0,0
2022-10-11,2022,13,23,0.0,68339.0,-11730.0,0
2022-10-12,2022,13,23,0.0,68339.0,-11730.0,0
2022-10-13,2022,13,23,0.0,68339.0,-11730.0,0
2022-10-14,2022,13,23,0.0,68339.0,-11730.0,0
2022-10-16,2022,13,23,0.0,68339.0,-11730.0,0
2022-10-17,2022,13,23,6104.0,74443.0,-5626.0,16
2022-10-18,2022,13,23,1136.0,75579.0,-4490.0,16
2022-10-19,2022,13,23,-2904.0,72675.0,-7394.0,16
2022-10-20,2022,13,23,-416.0,72259.0,-7810.0,16
2022-10-21,2022,13,23,6944.0,79203.0,-866.0,16
2022-10-23,2022,13,23,-488.0,78715.0,-1354.0,16
2022-10-24,2022,13,23,3344.0,82059.0,0.0,16
2022-10-25,2022,13,23,2104.0,84163.0,0.0,16
2022-10-26,2022,13,23,1984.0,86147.0,0.0,16
2022-10-27,2022,13,23,400.0,86547.0,0.0,16
2022-10-28,2022,13,23,7490.5,94037.5,0.0,23
2022-10-30,2022,13,23,-1242.0,92795.5,-1242.0,23
2022-10-31,2022,13,23,23.0,92818.5,-1219.0,23
2022-11-01,2022,13,23,-1805.5,91013.0,-3024.5,23
2022-11-02,2022,13,23,-5623.5,85389.5,-8648.0,23
2022-11-03,2022,13,23,-2771.5,82618.0,-11419.5,23
2022-11-04,2022,13,23,4370.0,86988.0,-7049.5,23
2022-11-06,2022,13,23,115.0,87103.0,-6934.5,23
2022-11-07,2022,13,23,5278.5,92381.5,-1656.0,23
2022-11-08,2022,13,23,3668.5,96050.0,0.0,23
2022-11-09,2022,13,23,-6727.5,89322.5,-6727.5,23
2022-11-10,2022,13,23,13961.0,103283.5,0.0,23
2022-11-11,2022,13,23,-414.0,102869.5,-414.0,23
2022-11-13,2022,13,23,-805.0,102064.5,-1219.0,23
2022-11-14,2022,13,23,-218.5,101846.0,-1437.5,23
2022-11-15,2022,13,23,-1437.5,100408.5,-2875.0,23
2022-11-16,2022,13,23,552.0,100960.5,-2323.0,23
2022-11-17,2022,13,23,-747.5,100213.0,-3070.5,23
2022-11-18,2022,13,23,2714.0,102927.0,-356.5,23
2022-11-20,2022,13,23,-747.5,102179.5,-1104.0,23
2022-11-21,2022,13,23,621.0,102800.5,-483.0,23
2022-11-22,2022,13,23,4255.0,107055.5,0.0,23
2022-11-23,2022,13,23,1552.5,108608.0,0.0,23
2022-11-24,2022,13,23,-149.5,108458.5,-149.5,23
2022-11-25,2022,13,23,1518.0,109976.5,0.0,23
2022-11-27,2022,13,23,-2070.0,107906.5,-2070.0,23
2022-11-28,2022,13,23,-3001.5,104905.0,-5071.5,23
2022-11-29,2022,13,23,-471.5,104433.5,-5543.0,23
2022-11-30,2022,13,23,8165.0,112598.5,0.0,23
2022-12-01,2022,13,23,-2576.0,110022.5,-2576.0,23
2022-12-02,2022,13,23,115.0,110137.5,-2461.0,23
2022-12-04,2022,13,23,483.0,110620.5,-1978.0,23
2022-12-05,2022,13,23,-4703.5,105917.0,-6681.5,23
2022-12-06,2022,13,23,-3887.0,102030.0,-10568.5,23
2022-12-07,2022,13,23,-943.0,101087.0,-11511.5,23
2022-12-08,2022,13,23,2817.5,103904.5,-8694.0,23
2022-12-09,2022,13,23,-4197.5,99707.0,-12891.5,23
2022-12-11,2022,13,23,2829.0,102536.0,-10062.5,23
2022-12-12,2022,13,23,6233.0,108769.0,-3829.5,23
2022-12-13,2022,13,23,2449.5,111218.5,-1380.0,23
2022-12-14,2022,13,23,-2599.0,108619.5,-3979.0,23
2022-12-15,2022,13,23,-9901.5,98718.0,-13880.5,23
2022-12-16,2022,13,23,23.0,98741.0,-13857.5,0
2022-12-18,2022,13,23,0.0,98741.0,-13857.5,0
2022-12-19,2022,13,23,0.0,98741.0,-13857.5,0
2022-12-20,2022,13,23,0.0,98741.0,-13857.5,0
2022-12-21,2022,13,23,0.0,98741.0,-13857.5,0
2022-12-22,2022,13,23,0.0,98741.0,-13857.5,0
2022-12-23,2022,13,23,0.0,98741.0,-13857.5,0
2022-12-26,2022,13,23,0.0,98741.0,-13857.5,0
2022-12-27,2022,13,23,0.0,98741.0,-13857.5,0
2022-12-28,2022,13,23,0.0,98741.0,-13857.5,0
2022-12-29,2022,13,23,0.0,98741.0,-13857.5,0
2022-12-30,2022,13,23,0.0,98741.0,-13857.5,0
2023-01-02,2023,24,34,0.0,98741.0,-13857.5,0
2023-01-03,2023,24,34,0.0,98741.0,-13857.5,0
2023-01-04,2023,24,34,0.0,98741.0,-13857.5,0
2023-01-05,2023,24,34,0.0,98741.0,-13857.5,0
2023-01-06,2023,24,34,0.0,98741.0,-13857.5,0
2023-01-08,2023,24,34,0.0,98741.0,-13857.5,0
2023-01-09,2023,24,34,0.0,98741.0,-13857.5,0
2023-01-10,2023,24,34,0.0,98741.0,-13857.5,0
2023-01-11,2023,24,34,0.0,98741.0,-13857.5,0
2023-01-12,2023,24,34,0.0,98741.0,-13857.5,0
2023-01-13,2023,24,34,0.0,98741.0,-13857.5,0
2023-01-15,2023,24,34,0.0,98741.0,-13857.5,0
2023-01-16,2023,24,34,0.0,98741.0,-13857.5,0
2023-01-17,2023,24,34,0.0,98741.0,-13857.5,0
2023-01-18,2023,24,34,0.0,98741.0,-13857.5,0
2023-01-19,2023,24,34,0.0,98741.0,-13857.5,0
2023-01-20,2023,24,34,0.0,98741.0,-13857.5,0
2023-01-22,2023,24,34,0.0,98741.0,-13857.5,0
2023-01-23,2023,24,34,0.0,98741.0,-13857.5,0
2023-01-24,2023,24,34,0.0,98741.0,-13857.5,0
2023-01-25,2023,24,34,0.0,98741.0,-13857.5,0
2023-01-26,2023,24,34,0.0,98741.0,-13857.5,0
2023-01-27,2023,24,34,0.0,98741.0,-13857.5,0
2023-01-29,2023,24,34,0.0,98741.0,-13857.5,0
2023-01-30,2023,24,34,0.0,98741.0,-13857.5,0
2023-01-31,2023,24,34,0.0,98741.0,-13857.5,0
2023-02-01,2023,24,34,0.0,98741.0,-13857.5,0
2023-02-02,2023,24,34,0.0,98741.0,-13857.5,0
2023-02-03,2023,24,34,0.0,98741.0,-13857.5,0
2023-02-05,2023,24,34,0.0,98741.0,-13857.5,0
2023-02-06,2023,24,34,0.0,98741.0,-13857.5,0
2023-02-07,2023,24,34,0.0,98741.0,-13857.5,0
2023-02-08,2023,24,34,0.0,98741.0,-13857.5,0
2023-02-09,2023,24,34,0.0,98741.0,-13857.5,0
2023-02-10,2023,24,34,0.0,98741.0,-13857.5,0
2023-02-12,2023,24,34,0.0,98741.0,-13857.5,0
2023-02-13,2023,24,34,0.0,98741.0,-13857.5,0
2023-02-14,2023,24,34,0.0,98741.0,-13857.5,0
2023-02-15,2023,24,34,0.0,98741.0,-13857.5,0
2023-02-16,2023,24,34,0.0,98741.0,-13857.5,0
2023-02-17,2023,24,34,0.0,98741.0,-13857.5,0
2023-02-19,2023,24,34,0.0,98741.0,-13857.5,0
2023-02-20,2023,24,34,0.0,98741.0,-13857.5,0
2023-02-21,2023,24,34,0.0,98741.0,-13857.5,0
2023-02-22,2023,24,34,0.0,98741.0,-13857.5,0
2023-02-23,2023,24,34,0.0,98741.0,-13857.5,0
2023-02-24,2023,24,34,0.0,98741.0,-13857.5,0
2023-02-26,2023,24,34,0.0,98741.0,-13857.5,0
2023-02-27,2023,24,34,0.0,98741.0,-13857.5,0
2023-02-28,2023,24,34,0.0,98741.0,-13857.5,0
2023-03-01,2023,24,34,0.0,98741.0,-13857.5,0
2023-03-02,2023,24,34,0.0,98741.0,-13857.5,0
2023-03-03,2023,24,34,0.0,98741.0,-13857.5,0
2023-03-05,2023,24,34,0.0,98741.0,-13857.5,0
2023-03-06,2023,24,34,0.0,98741.0,-13857.5,0
2023-03-07,2023,24,34,0.0,98741.0,-13857.5,0
2023-03-08,2023,24,34,0.0,98741.0,-13857.5,0
2023-03-09,2023,24,34,0.0,98741.0,-13857.5,0
2023-03-10,2023,24,34,0.0,98741.0,-13857.5,0
2023-03-12,2023,24,34,0.0,98741.0,-13857.5,0
2023-03-13,2023,24,34,0.0,98741.0,-13857.5,0
2023-03-14,2023,24,34,0.0,98741.0,-13857.5,0
2023-03-15,2023,24,34,0.0,98741.0,-13857.5,0
2023-03-16,2023,24,34,0.0,98741.0,-13857.5,0
2023-03-17,2023,24,34,0.0,98741.0,-13857.5,0
2023-03-19,2023,24,34,0.0,98741.0,-13857.5,0
2023-03-20,2023,24,34,0.0,98741.0,-13857.5,0
2023-03-21,2023,24,34,0.0,98741.0,-13857.5,0
2023-03-22,2023,24,34,0.0,98741.0,-13857.5,0
2023-03-23,2023,24,34,0.0,98741.0,-13857.5,0
2023-03-24,2023,24,34,0.0,98741.0,-13857.5,0
2023-03-26,2023,24,34,0.0,98741.0,-13857.5,0
2023-03-27,2023,24,34,0.0,98741.0,-13857.5,0
2023-03-28,2023,24,34,0.0,98741.0,-13857.5,0
2023-03-29,2023,24,34,0.0,98741.0,-13857.5,0
2023-03-30,2023,24,34,0.0,98741.0,-13857.5,0
2023-03-31,2023,24,34,5764.5,104505.5,-8093.0,27
2023-04-02,2023,24,34,-999.0,103506.5,-9092.0,27
2023-04-03,2023,24,34,4441.5,107948.0,-4650.5,27
2023-04-04,2023,24,34,-2484.0,105464.0,-7134.5,27
2023-04-05,2023,24,34,0.0,105464.0,-7134.5,27
2023-04-06,2023,24,34,229.5,105693.5,-6905.0,27
2023-04-07,2023,24,34,1363.5,107057.0,-5541.5,27
2023-04-09,2023,24,34,-540.0,106517.0,-6081.5,27
2023-04-10,2023,24,34,1566.0,108083.0,-4515.5,27
2023-04-11,2023,24,34,1026.0,109109.0,-3489.5,27
2023-04-12,2023,24,34,-904.5,108204.5,-4394.0,27
2023-04-13,2023,24,34,4590.0,112794.5,0.0,27
2023-04-14,2023,24,34,-486.0,112308.5,-486.0,34
2023-04-16,2023,24,34,34.0,112342.5,-452.0,34
2023-04-17,2023,24,34,442.0,112784.5,-10.0,34
2023-04-18,2023,24,34,-867.0,111917.5,-877.0,34
2023-04-19,2023,24,34,-867.0,111050.5,-1744.0,34
2023-04-20,2023,24,34,-1972.0,109078.5,-3716.0,34
2023-04-21,2023,24,34,425.0,109503.5,-3291.0,34
2023-04-23,2023,24,34,-1479.0,108024.5,-4770.0,34
2023-04-24,2023,24,34,1853.0,109877.5,-2917.0,34
2023-04-25,2023,24,34,-4488.0,105389.5,-7405.0,34
2023-04-26,2023,24,34,-4029.0,101360.5,-11434.0,34
2023-04-27,2023,24,34,7395.0,108755.5,-4039.0,34
2023-04-28,2023,24,34,5576.0,114331.5,0.0,34
2023-04-30,2023,24,34,-68.0,114263.5,-68.0,34
2023-05-01,2023,24,34,-1071.0,113192.5,-1139.0,34
2023-05-02,2023,24,34,-5491.0,107701.5,-6630.0,34
2023-05-03,2023,24,34,-5066.0,102635.5,-11696.0,34
2023-05-04,2023,24,34,0.0,102635.5,-11696.0,0
2023-05-05,2023,24,34,0.0,102635.5,-11696.0,0
2023-05-07,2023,24,34,0.0,102635.5,-11696.0,0
2023-05-08,2023,24,34,0.0,102635.5,-11696.0,0
2023-05-09,2023,24,34,0.0,102635.5,-11696.0,0
2023-05-10,2023,24,34,0.0,102635.5,-11696.0,0
2023-05-11,2023,24,34,0.0,102635.5,-11696.0,0
2023-05-12,2023,24,34,0.0,102635.5,-11696.0,0
2023-05-14,2023,24,34,0.0,102635.5,-11696.0,0
2023-05-15,2023,24,34,0.0,102635.5,-11696.0,0
2023-05-16,2023,24,34,0.0,102635.5,-11696.0,0
2023-05-17,2023,24,34,0.0,102635.5,-11696.0,0
2023-05-18,2023,24,34,0.0,102635.5,-11696.0,0
2023-05-19,2023,24,34,0.0,102635.5,-11696.0,0
2023-05-21,2023,24,34,0.0,102635.5,-11696.0,0
2023-05-22,2023,24,34,0.0,102635.5,-11696.0,0
2023-05-23,2023,24,34,0.0,102635.5,-11696.0,0
2023-05-24,2023,24,34,0.0,102635.5,-11696.0,0
2023-05-25,2023,24,34,0.0,102635.5,-11696.0,0
2023-05-26,2023,24,34,0.0,102635.5,-11696.0,0
2023-05-28,2023,24,34,0.0,102635.5,-11696.0,0
2023-05-29,2023,24,34,0.0,102635.5,-11696.0,0
2023-05-30,2023,24,34,0.0,102635.5,-11696.0,0
2023-05-31,2023,24,34,0.0,102635.5,-11696.0,0
2023-06-01,2023,24,34,0.0,102635.5,-11696.0,0
2023-06-02,2023,24,34,8883.0,111518.5,-2813.0,27
2023-06-04,2023,24,34,202.5,111721.0,-2610.5,27
2023-06-05,2023,24,34,-2929.5,108791.5,-5540.0,27
2023-06-06,2023,24,34,229.5,109021.0,-5310.5,27
2023-06-07,2023,24,34,405.0,109426.0,-4905.5,27
2023-06-08,2023,24,34,2146.5,111572.5,-2759.0,27
2023-06-09,2023,24,34,904.5,112477.0,-1854.5,27
2023-06-11,2023,24,34,270.0,112747.0,-1584.5,27
2023-06-12,2023,24,34,6750.0,119497.0,0.0,27
2023-06-13,2023,24,34,526.5,120023.5,0.0,27
2023-06-14,2023,24,34,-2457.0,117566.5,-2457.0,27
2023-06-15,2023,24,34,5818.5,123385.0,0.0,27
2023-06-16,2023,24,34,-1576.0,121809.0,-1576.0,34
2023-06-18,2023,24,34,-884.0,120925.0,-2460.0,34
2023-06-19,2023,24,34,-1105.0,119820.0,-3565.0,34
2023-06-20,2023,24,34,-2193.0,117627.0,-5758.0,34
2023-06-21,2023,24,34,-2074.0,115553.0,-7832.0,34
2023-06-22,2023,24,34,-2669.0,112884.0,-10501.0,34
2023-06-23,2023,24,34,-1768.0,111116.0,-12269.0,34
2023-06-25,2023,24,34,1394.0,112510.0,-10875.0,34
2023-06-26,2023,24,34,-357.0,112153.0,-11232.0,34
2023-06-27,2023,24,34,2482.0,114635.0,-8750.0,34
2023-06-28,2023,24,34,-799.0,113836.0,-9549.0,34
2023-06-29,2023,24,34,3587.0,117423.0,-5962.0,34
2023-06-30,2023,24,34,4624.0,122047.0,-1338.0,34
2023-07-02,2023,24,34,493.0,122540.0,-845.0,34
2023-07-03,2023,24,34,34.0,122574.0,-811.0,34
2023-07-04,2023,24,34,-731.0,121843.0,-1542.0,34
2023-07-05,2023,24,34,-3366.0,118477.0,-4908.0,34
2023-07-06,2023,24,34,-4573.0,113904.0,-9481.0,34
2023-07-07,2023,24,34,-2771.0,111133.0,-12252.0,34
2023-07-09,2023,24,34,-1343.0,109790.0,-13595.0,34
2023-07-10,2023,24,34,4539.0,114329.0,-9056.0,34
2023-07-11,2023,24,34,4896.0,119225.0,-4160.0,34
2023-07-12,2023,24,34,2890.0,122115.0,-1270.0,34
2023-07-13,2023,24,34,-1309.0,120806.0,-2579.0,34
2023-07-14,2023,24,34,2040.0,122846.0,-539.0,34
2023-07-16,2023,24,34,-51.0,122795.0,-590.0,34
2023-07-17,2023,24,34,1649.0,124444.0,0.0,34
2023-07-18,2023,24,34,6885.0,131329.0,0.0,34
2023-07-19,2023,24,34,1615.0,132944.0,0.0,34
2023-07-20,2023,24,34,3332.0,136276.0,0.0,34
2023-07-21,2023,24,34,-1122.0,135154.0,-1122.0,34
2023-07-23,2023,24,34,-51.0,135103.0,-1173.0,34
2023-07-24,2023,24,34,3196.0,138299.0,0.0,34
2023-07-25,2023,24,34,85.0,138384.0,0.0,34
2023-07-26,2023,24,34,2057.0,140441.0,0.0,34
2023-07-27,2023,24,34,-4233.0,136208.0,-4233.0,34
2023-07-28,2023,24,34,2261.0,138469.0,-1972.0,34
2023-07-30,2023,24,34,-850.0,137619.0,-2822.0,34
2023-07-31,2023,24,34,2839.0,140458.0,0.0,34
2023-08-01,2023,24,34,-901.0,139557.0,-901.0,34
2023-08-02,2023,24,34,-2958.0,136599.0,-3859.0,34
2023-08-03,2023,24,34,-1632.0,134967.0,-5491.0,34
2023-08-04,2023,24,34,-3842.0,131125.0,-9333.0,34
2023-08-06,2023,24,34,1853.0,132978.0,-7480.0,34
2023-08-07,2023,24,34,4063.0,137041.0,-3417.0,34
2023-08-08,2023,24,34,-1887.0,135154.0,-5304.0,34
2023-08-09,2023,24,34,-765.0,134389.0,-6069.0,34
2023-08-10,2023,24,34,-1428.0,132961.0,-7497.0,34
2023-08-11,2023,24,34,1955.0,134916.0,-5542.0,34
2023-08-13,2023,24,34,-1513.0,133403.0,-7055.0,34
2023-08-14,2023,24,34,1887.0,135290.0,-5168.0,34
2023-08-15,2023,24,34,-6341.0,128949.0,-11509.0,34
2023-08-16,2023,24,34,17.0,128966.0,-11492.0,0
2023-08-17,2023,24,34,0.0,128966.0,-11492.0,0
2023-08-18,2023,24,34,0.0,128966.0,-11492.0,0
2023-08-20,2023,24,34,0.0,128966.0,-11492.0,0
2023-08-21,2023,24,34,0.0,128966.0,-11492.0,0
2023-08-22,2023,24,34,0.0,128966.0,-11492.0,0
2023-08-23,2023,24,34,0.0,128966.0,-11492.0,0
2023-08-24,2023,24,34,0.0,128966.0,-11492.0,0
2023-08-25,2023,24,34,0.0,128966.0,-11492.0,0
2023-08-27,2023,24,34,0.0,128966.0,-11492.0,0
2023-08-28,2023,24,34,0.0,128966.0,-11492.0,0
2023-08-29,2023,24,34,0.0,128966.0,-11492.0,0
2023-08-30,2023,24,34,0.0,128966.0,-11492.0,0
2023-08-31,2023,24,34,0.0,128966.0,-11492.0,0
2023-09-01,2023,24,34,0.0,128966.0,-11492.0,0
2023-09-03,2023,24,34,0.0,128966.0,-11492.0,0
2023-09-04,2023,24,34,0.0,128966.0,-11492.0,0
2023-09-05,2023,24,34,0.0,128966.0,-11492.0,0
2023-09-06,2023,24,34,0.0,128966.0,-11492.0,0
2023-09-07,2023,24,34,0.0,128966.0,-11492.0,0
2023-09-08,2023,24,34,0.0,128966.0,-11492.0,0
2023-09-10,2023,24,34,0.0,128966.0,-11492.0,0
2023-09-11,2023,24,34,0.0,128966.0,-11492.0,0
2023-09-12,2023,24,34,0.0,128966.0,-11492.0,0
2023-09-13,2023,24,34,0.0,128966.0,-11492.0,0
2023-09-14,2023,24,34,4657.5,133623.5,-6834.5,27
2023-09-15,2023,24,34,-5292.0,128331.5,-12126.5,27
2023-09-17,2023,24,34,-27.0,128304.5,-12153.5,0
2023-09-18,2023,24,34,0.0,128304.5,-12153.5,0
2023-09-19,2023,24,34,0.0,128304.5,-12153.5,0
2023-09-20,2023,24,34,0.0,128304.5,-12153.5,0
2023-09-21,2023,24,34,0.0,128304.5,-12153.5,0
2023-09-22,2023,24,34,0.0,128304.5,-12153.5,0
2023-09-24,2023,24,34,0.0,128304.5,-12153.5,0
2023-09-25,2023,24,34,0.0,128304.5,-12153.5,0
2023-09-26,2023,24,34,0.0,128304.5,-12153.5,0
2023-09-27,2023,24,34,0.0,128304.5,-12153.5,0
2023-09-28,2023,24,34,0.0,128304.5,-12153.5,0
2023-09-29,2023,24,34,0.0,128304.5,-12153.5,0
2023-10-01,2023,24,34,0.0,128304.5,-12153.5,0
2023-10-02,2023,24,34,0.0,128304.5,-12153.5,0
2023-10-03,2023,24,34,0.0,128304.5,-12153.5,0
2023-10-04,2023,24,34,0.0,128304.5,-12153.5,0
2023-10-05,2023,24,34,0.0,128304.5,-12153.5,0
2023-10-06,2023,24,34,0.0,128304.5,-12153.5,0
2023-10-08,2023,24,34,0.0,128304.5,-12153.5,0
2023-10-09,2023,24,34,0.0,128304.5,-12153.5,0
2023-10-10,2023,24,34,0.0,128304.5,-12153.5,0
2023-10-11,2023,24,34,0.0,128304.5,-12153.5,0
2023-10-12,2023,24,34,0.0,128304.5,-12153.5,0
2023-10-13,2023,24,34,0.0,128304.5,-12153.5,0
2023-10-15,2023,24,34,0.0,128304.5,-12153.5,0
2023-10-16,2023,24,34,0.0,128304.5,-12153.5,0
2023-10-17,2023,24,34,0.0,128304.5,-12153.5,0
2023-10-18,2023,24,34,0.0,128304.5,-12153.5,0
2023-10-19,2023,24,34,0.0,128304.5,-12153.5,0
2023-10-20,2023,24,34,0.0,128304.5,-12153.5,0
2023-10-22,2023,24,34,0.0,128304.5,-12153.5,0
2023-10-23,2023,24,34,0.0,128304.5,-12153.5,0
2023-10-24,2023,24,34,0.0,128304.5,-12153.5,0
2023-10-25,2023,24,34,0.0,128304.5,-12153.5,0
2023-10-26,2023,24,34,0.0,128304.5,-12153.5,0
2023-10-27,2023,24,34,0.0,128304.5,-12153.5,0
2023-10-29,2023,24,34,0.0,128304.5,-12153.5,0
2023-10-30,2023,24,34,0.0,128304.5,-12153.5,0
2023-10-31,2023,24,34,0.0,128304.5,-12153.5,0
2023-11-01,2023,24,34,0.0,128304.5,-12153.5,0
2023-11-02,2023,24,34,7776.0,136080.5,-4377.5,27
2023-11-03,2023,24,34,2889.0,138969.5,-1488.5,27
2023-11-05,2023,24,34,-67.5,138902.0,-1556.0,27
2023-11-06,2023,24,34,-1080.0,137822.0,-2636.0,27
2023-11-07,2023,24,34,1539.0,139361.0,-1097.0,27
2023-11-08,2023,24,34,-256.5,139104.5,-1353.5,27
2023-11-09,2023,24,34,-2416.5,136688.0,-3770.0,27
2023-11-10,2023,24,34,3964.0,140652.0,0.0,34
2023-11-12,2023,24,34,-1462.0,139190.0,-1462.0,34
2023-11-13,2023,24,34,2941.0,142131.0,0.0,34
2023-11-14,2023,24,34,9418.0,151549.0,0.0,34
2023-11-15,2023,24,34,1258.0,152807.0,0.0,34
2023-11-16,2023,24,34,748.0,153555.0,0.0,34
2023-11-17,2023,24,34,-1173.0,152382.0,-1173.0,34
2023-11-19,2023,24,34,204.0,152586.0,-969.0,34
2023-11-20,2023,24,34,3876.0,156462.0,0.0,34
2023-11-21,2023,24,34,-867.0,155595.0,-867.0,34
2023-11-22,2023,24,34,2074.0,157669.0,0.0,34
2023-11-23,2023,24,34,646.0,158315.0,0.0,34
2023-11-24,2023,24,34,1666.0,159981.0,0.0,34
2023-11-26,2023,24,34,-1445.0,158536.0,-1445.0,34
2023-11-27,2023,24,34,527.0,159063.0,-918.0,34
2023-11-28,2023,24,34,2023.0,161086.0,0.0,34
2023-11-29,2023,24,34,1989.0,163075.0,0.0,34
2023-11-30,2023,24,34,7055.0,170130.0,0.0,34
2023-12-01,2023,24,34,5015.0,175145.0,0.0,34
2023-12-03,2023,24,34,-357.0,174788.0,-357.0,34
2023-12-04,2023,24,34,-1683.0,173105.0,-2040.0,34
2023-12-05,2023,24,34,884.0,173989.0,-1156.0,34
2023-12-06,2023,24,34,-2941.0,171048.0,-4097.0,34
2023-12-07,2023,24,34,1666.0,172714.0,-2431.0,34
2023-12-08,2023,24,34,1734.0,174448.0,-697.0,34
2023-12-10,2023,24,34,6018.0,180466.0,0.0,34
2023-12-11,2023,24,34,3060.0,183526.0,0.0,34
2023-12-12,2023,24,34,3247.0,186773.0,0.0,34
2023-12-13,2023,24,34,9894.0,196667.0,0.0,34
2023-12-14,2023,24,34,1700.0,198367.0,0.0,34
2023-12-15,2023,24,34,-459.0,197908.0,-459.0,34
2023-12-17,2023,24,34,1241.0,199149.0,0.0,34
2023-12-18,2023,24,34,-1173.0,197976.0,-1173.0,34
2023-12-19,2023,24,34,4488.0,202464.0,0.0,34
2023-12-20,2023,24,34,-6817.0,195647.0,-6817.0,34
2023-12-21,2023,24,34,1666.0,197313.0,-5151.0,34
2023-12-22,2023,24,34,1224.0,198537.0,-3927.0,34
2023-12-25,2023,24,34,1343.0,199880.0,-2584.0,34
2023-12-26,2023,24,34,1819.0,201699.0,-765.0,34
2023-12-27,2023,24,34,2057.0,203756.0,0.0,34
2023-12-28,2023,24,34,595.0,204351.0,0.0,34
2023-12-29,2023,24,34,-1377.0,202974.0,-1377.0,34
2024-01-01,2024,40,50,1775.0,204749.0,0.0,50
2024-01-02,2024,40,50,-1600.0,203149.0,-1600.0,50
2024-01-03,2024,40,50,-6175.0,196974.0,-7775.0,50
2024-01-04,2024,40,50,325.0,197299.0,-7450.0,50
2024-01-05,2024,40,50,-700.0,196599.0,-8150.0,50
2024-01-07,2024,40,50,-3025.0,193574.0,-11175.0,50
2024-01-08,2024,40,50,7325.0,200899.0,-3850.0,50
2024-01-09,2024,40,50,-4150.0,196749.0,-8000.0,50
2024-01-10,2024,40,50,6875.0,203624.0,-1125.0,50
2024-01-11,2024,40,50,-2500.0,201124.0,-3625.0,50
2024-01-12,2024,40,50,-3375.0,197749.0,-7000.0,50
2024-01-14,2024,40,50,1600.0,199349.0,-5400.0,50
2024-01-15,2024,40,50,-3575.0,195774.0,-8975.0,50
2024-01-16,2024,40,50,-4550.0,191224.0,-13525.0,50
2024-01-17,2024,40,50,-1900.0,189324.0,-15425.0,50
2024-01-18,2024,40,50,5200.0,194524.0,-10225.0,50
2024-01-19,2024,40,50,10550.0,205074.0,0.0,50
2024-01-21,2024,40,50,1375.0,206449.0,0.0,50
2024-01-22,2024,40,50,1925.0,208374.0,0.0,50
2024-01-23,2024,40,50,-1925.0,206449.0,-1925.0,50
2024-01-24,2024,40,50,-1400.0,205049.0,-3325.0,50
2024-01-25,2024,40,50,625.0,205674.0,-2700.0,50
2024-01-26,2024,40,50,4300.0,209974.0,0.0,50
2024-01-28,2024,40,50,-1225.0,208749.0,-1225.0,50
2024-01-29,2024,40,50,5975.0,214724.0,0.0,50
2024-01-30,2024,40,50,4925.0,219649.0,0.0,50
2024-01-31,2024,40,50,-7400.0,212249.0,-7400.0,50
2024-02-01,2024,40,50,7350.0,219599.0,-50.0,50
2024-02-02,2024,40,50,2750.0,222349.0,0.0,50
2024-02-04,2024,40,50,-1550.0,220799.0,-1550.0,50
2024-02-05,2024,40,50,-5325.0,215474.0,-6875.0,50
2024-02-06,2024,40,50,3975.0,219449.0,-2900.0,50
2024-02-07,2024,40,50,3925.0,223374.0,0.0,50
2024-02-08,2024,40,50,200.0,223574.0,0.0,50
2024-02-09,2024,40,50,-1800.0,221774.0,-1800.0,50
2024-02-11,2024,40,50,525.0,222299.0,-1275.0,50
2024-02-12,2024,40,50,2250.0,224549.0,0.0,50
2024-02-13,2024,40,50,-12800.0,211749.0,-12800.0,50
2024-02-14,2024,40,50,4475.0,216224.0,-8325.0,50
2024-02-15,2024,40,50,7550.0,223774.0,-775.0,50
2024-02-16,2024,40,50,-3450.0,220324.0,-4225.0,50
2024-02-18,2024,40,50,1500.0,221824.0,-2725.0,50
2024-02-19,2024,40,50,-3350.0,218474.0,-6075.0,50
2024-02-20,2024,40,50,425.0,218899.0,-5650.0,50
2024-02-21,2024,40,50,3075.0,221974.0,-2575.0,50
2024-02-22,2024,40,50,11150.0,233124.0,0.0,50
2024-02-23,2024,40,50,-500.0,232624.0,-500.0,50
2024-02-25,2024,40,50,-275.0,232349.0,-775.0,50
2024-02-26,2024,40,50,-1025.0,231324.0,-1800.0,50
2024-02-27,2024,40,50,-2800.0,228524.0,-4600.0,50
2024-02-28,2024,40,50,300.0,228824.0,-4300.0,50
2024-02-29,2024,40,50,1625.0,230449.0,-2675.0,50
2024-03-01,2024,40,50,400.0,230849.0,-2275.0,50
2024-03-03,2024,40,50,100.0,230949.0,-2175.0,50
2024-03-04,2024,40,50,-3025.0,227924.0,-5200.0,50
2024-03-05,2024,40,50,-8950.0,218974.0,-14150.0,50
2024-03-06,2024,40,50,1375.0,220349.0,-12775.0,50
2024-03-07,2024,40,50,3725.0,224074.0,-9050.0,50
2024-03-08,2024,40,50,-750.0,223324.0,-9800.0,50
2024-03-10,2024,40,50,8850.0,232174.0,-950.0,50
2024-03-11,2024,40,50,3550.0,235724.0,0.0,50
2024-03-12,2024,40,50,4375.0,240099.0,0.0,50
2024-03-13,2024,40,50,2375.0,242474.0,0.0,50
2024-03-14,2024,40,50,-5100.0,237374.0,-5100.0,50
2024-03-15,2024,40,50,-5025.0,232349.0,-10125.0,50
2024-03-17,2024,40,50,650.0,232999.0,-9475.0,50
2024-03-18,2024,40,50,950.0,233949.0,-8525.0,50
2024-03-19,2024,40,50,8000.0,241949.0,-525.0,50
2024-03-20,2024,40,50,13250.0,255199.0,0.0,50
2024-03-21,2024,40,50,4175.0,259374.0,0.0,50
2024-03-22,2024,40,50,-9900.0,249474.0,-9900.0,50
2024-03-24,2024,40,50,-450.0,249024.0,-10350.0,50
2024-03-25,2024,40,50,-2175.0,246849.0,-12525.0,50
2024-03-26,2024,40,50,1725.0,248574.0,-10800.0,50
2024-03-27,2024,40,50,8050.0,256624.0,-2750.0,50
2024-03-28,2024,40,50,750.0,257374.0,-2000.0,50
2024-03-31,2024,40,50,4400.0,261774.0,0.0,50
2024-04-01,2024,40,50,-13800.0,247974.0,-13800.0,50
2024-04-02,2024,40,50,-7650.0,240324.0,-21450.0,50
2024-04-03,2024,40,50,1925.0,242249.0,-19525.0,50
2024-04-04,2024,40,50,50.0,242299.0,-19475.0,0
2024-04-05,2024,40,50,0.0,242299.0,-19475.0,0
2024-04-07,2024,40,50,0.0,242299.0,-19475.0,0
2024-04-08,2024,40,50,0.0,242299.0,-19475.0,0
2024-04-09,2024,40,50,0.0,242299.0,-19475.0,0
2024-04-10,2024,40,50,0.0,242299.0,-19475.0,0
2024-04-11,2024,40,50,0.0,242299.0,-19475.0,0
2024-04-12,2024,40,50,0.0,242299.0,-19475.0,0
2024-04-14,2024,40,50,0.0,242299.0,-19475.0,0
2024-04-15,2024,40,50,0.0,242299.0,-19475.0,0
2024-04-16,2024,40,50,0.0,242299.0,-19475.0,0
2024-04-17,2024,40,50,0.0,242299.0,-19475.0,0
2024-04-18,2024,40,50,0.0,242299.0,-19475.0,0
2024-04-19,2024,40,50,0.0,242299.0,-19475.0,0
2024-04-21,2024,40,50,0.0,242299.0,-19475.0,0
2024-04-22,2024,40,50,0.0,242299.0,-19475.0,0
2024-04-23,2024,40,50,0.0,242299.0,-19475.0,0
2024-04-24,2024,40,50,0.0,242299.0,-19475.0,0
2024-04-25,2024,40,50,0.0,242299.0,-19475.0,0
2024-04-26,2024,40,50,0.0,242299.0,-19475.0,0
2024-04-28,2024,40,50,0.0,242299.0,-19475.0,0
2024-04-29,2024,40,50,0.0,242299.0,-19475.0,0
2024-04-30,2024,40,50,0.0,242299.0,-19475.0,0
2024-05-01,2024,40,50,0.0,242299.0,-19475.0,0
2024-05-02,2024,40,50,0.0,242299.0,-19475.0,0
2024-05-03,2024,40,50,0.0,242299.0,-19475.0,0
2024-05-05,2024,40,50,0.0,242299.0,-19475.0,0
2024-05-06,2024,40,50,0.0,242299.0,-19475.0,0
2024-05-07,2024,40,50,0.0,242299.0,-19475.0,0
2024-05-08,2024,40,50,0.0,242299.0,-19475.0,0
2024-05-09,2024,40,50,8643.0,250942.0,-10832.0,43
2024-05-10,2024,40,50,1075.0,252017.0,-9757.0,43
2024-05-12,2024,40,50,494.5,252511.5,-9262.5,43
2024-05-13,2024,40,50,-1913.5,250598.0,-11176.0,43
2024-05-14,2024,40,50,3547.5,254145.5,-7628.5,43
2024-05-15,2024,40,50,8729.0,262874.5,0.0,43
2024-05-16,2024,40,50,-2924.0,259950.5,-2924.0,43
2024-05-17,2024,40,50,3258.5,263209.0,0.0,50
2024-05-19,2024,40,50,950.0,264159.0,0.0,50
2024-05-20,2024,40,50,-5650.0,258509.0,-5650.0,50
2024-05-21,2024,40,50,1700.0,260209.0,-3950.0,50
2024-05-22,2024,40,50,-4050.0,256159.0,-8000.0,50
2024-05-23,2024,40,50,0.0,256159.0,-8000.0,0
2024-05-24,2024,40,50,0.0,256159.0,-8000.0,0
2024-05-26,2024,40,50,0.0,256159.0,-8000.0,0
2024-05-27,2024,40,50,0.0,256159.0,-8000.0,0
2024-05-28,2024,40,50,0.0,256159.0,-8000.0,0
2024-05-29,2024,40,50,0.0,256159.0,-8000.0,0
2024-05-30,2024,40,50,0.0,256159.0,-8000.0,0
2024-05-31,2024,40,50,0.0,256159.0,-8000.0,0
2024-06-02,2024,40,50,0.0,256159.0,-8000.0,0
2024-06-03,2024,40,50,0.0,256159.0,-8000.0,0
2024-06-04,2024,40,50,0.0,256159.0,-8000.0,0
2024-06-05,2024,40,50,0.0,256159.0,-8000.0,0
2024-06-06,2024,40,50,0.0,256159.0,-8000.0,0
2024-06-07,2024,40,50,0.0,256159.0,-8000.0,0
2024-06-09,2024,40,50,0.0,256159.0,-8000.0,0
2024-06-10,2024,40,50,0.0,256159.0,-8000.0,0
2024-06-11,2024,40,50,0.0,256159.0,-8000.0,0
2024-06-12,2024,40,50,0.0,256159.0,-8000.0,0
2024-06-13,2024,40,50,0.0,256159.0,-8000.0,0
2024-06-14,2024,40,50,0.0,256159.0,-8000.0,0
2024-06-16,2024,40,50,0.0,256159.0,-8000.0,0
2024-06-17,2024,40,50,5869.5,262028.5,-2130.5,43
2024-06-18,2024,40,50,-150.5,261878.0,-2281.0,43
2024-06-19,2024,40,50,0.0,261878.0,-2281.0,43
2024-06-20,2024,40,50,6987.5,268865.5,0.0,43
2024-06-21,2024,40,50,107.5,268973.0,0.0,43
2024-06-23,2024,40,50,-1763.0,267210.0,-1763.0,43
2024-06-24,2024,40,50,8879.5,276089.5,0.0,43
2024-06-25,2024,40,50,-8621.5,267468.0,-8621.5,43
2024-06-26,2024,40,50,-2042.5,265425.5,-10664.0,43
2024-06-27,2024,40,50,2881.0,268306.5,-7783.0,43
2024-06-28,2024,40,50,-191.5,268115.0,-7974.5,50
2024-06-30,2024,40,50,-150.0,267965.0,-8124.5,50
2024-07-01,2024,40,50,-1825.0,266140.0,-9949.5,50
2024-07-02,2024,40,50,4825.0,270965.0,-5124.5,50
2024-07-03,2024,40,50,-225.0,270740.0,-5349.5,50
2024-07-04,2024,40,50,1200.0,271940.0,-4149.5,50
2024-07-05,2024,40,50,-525.0,271415.0,-4674.5,50
2024-07-07,2024,40,50,-550.0,270865.0,-5224.5,50
2024-07-08,2024,40,50,2275.0,273140.0,-2949.5,50
2024-07-09,2024,40,50,-3625.0,269515.0,-6574.5,50
2024-07-10,2024,40,50,11475.0,280990.0,0.0,50
2024-07-11,2024,40,50,1750.0,282740.0,0.0,50
2024-07-12,2024,40,50,5425.0,288165.0,0.0,50
2024-07-14,2024,40,50,1050.0,289215.0,0.0,50
2024-07-15,2024,40,50,5025.0,294240.0,0.0,50
2024-07-16,2024,40,50,17975.0,312215.0,0.0,50
2024-07-17,2024,40,50,7650.0,319865.0,0.0,50
2024-07-18,2024,40,50,-15350.0,304515.0,-15350.0,50
2024-07-19,2024,40,50,-10825.0,293690.0,-26175.0,50
2024-07-21,2024,40,50,800.0,294490.0,-25375.0,50
2024-07-22,2024,40,50,1750.0,296240.0,-23625.0,50
2024-07-23,2024,40,50,-3225.0,293015.0,-26850.0,50
2024-07-24,2024,40,50,75.0,293090.0,-26775.0,0
2024-07-25,2024,40,50,0.0,293090.0,-26775.0,0
2024-07-26,2024,40,50,0.0,293090.0,-26775.0,0
2024-07-28,2024,40,50,0.0,293090.0,-26775.0,0
2024-07-29,2024,40,50,0.0,293090.0,-26775.0,0
2024-07-30,2024,40,50,0.0,293090.0,-26775.0,0
2024-07-31,2024,40,50,0.0,293090.0,-26775.0,0
2024-08-01,2024,40,50,0.0,293090.0,-26775.0,0
2024-08-02,2024,40,50,0.0,293090.0,-26775.0,0
2024-08-04,2024,40,50,0.0,293090.0,-26775.0,0
2024-08-05,2024,40,50,0.0,293090.0,-26775.0,0
2024-08-06,2024,40,50,0.0,293090.0,-26775.0,0
2024-08-07,2024,40,50,0.0,293090.0,-26775.0,0
2024-08-08,2024,40,50,0.0,293090.0,-26775.0,0
2024-08-09,2024,40,50,0.0,293090.0,-26775.0,0
2024-08-11,2024,40,50,0.0,293090.0,-26775.0,0
2024-08-12,2024,40,50,0.0,293090.0,-26775.0,0
2024-08-13,2024,40,50,0.0,293090.0,-26775.0,0
2024-08-14,2024,40,50,0.0,293090.0,-26775.0,0
2024-08-15,2024,40,50,11997.0,305087.0,-14778.0,43
2024-08-16,2024,40,50,1247.0,306334.0,-13531.0,43
2024-08-18,2024,40,50,150.5,306484.5,-13380.5,43
2024-08-19,2024,40,50,4106.5,310591.0,-9274.0,43
2024-08-20,2024,40,50,43.0,310634.0,-9231.0,43
2024-08-21,2024,40,50,-731.0,309903.0,-9962.0,43
2024-08-22,2024,40,50,-1526.5,308376.5,-11488.5,43
2024-08-23,2024,40,50,8036.5,316413.0,-3452.0,50
2024-08-25,2024,40,50,-875.0,315538.0,-4327.0,50
2024-08-26,2024,40,50,1900.0,317438.0,-2427.0,50
2024-08-27,2024,40,50,1075.0,318513.0,-1352.0,50
2024-08-28,2024,40,50,-2075.0,316438.0,-3427.0,50
2024-08-29,2024,40,50,4375.0,320813.0,0.0,50
2024-08-30,2024,40,50,4775.0,325588.0,0.0,50
2024-09-01,2024,40,50,-475.0,325113.0,-475.0,50
2024-09-02,2024,40,50,-1025.0,324088.0,-1500.0,50
2024-09-03,2024,40,50,-17250.0,306838.0,-18750.0,50
2024-09-04,2024,40,50,3175.0,310013.0,-15575.0,50
2024-09-05,2024,40,50,-4100.0,305913.0,-19675.0,50
2024-09-06,2024,40,50,-75.0,305838.0,-19750.0,0
2024-09-08,2024,40,50,0.0,305838.0,-19750.0,0
2024-09-09,2024,40,50,0.0,305838.0,-19750.0,0
2024-09-10,2024,40,50,0.0,305838.0,-19750.0,0
2024-09-11,2024,40,50,0.0,305838.0,-19750.0,0
2024-09-12,2024,40,50,0.0,305838.0,-19750.0,0
2024-09-13,2024,40,50,0.0,305838.0,-19750.0,0
2024-09-15,2024,40,50,0.0,305838.0,-19750.0,0
2024-09-16,2024,40,50,3397.0,309235.0,-16353.0,43
2024-09-17,2024,40,50,1075.0,310310.0,-15278.0,43
2024-09-18,2024,40,50,2343.5,312653.5,-12934.5,43
2024-09-19,2024,40,50,5418.0,318071.5,-7516.5,43
2024-09-20,2024,40,50,21.5,318093.0,-7495.0,43
2024-09-22,2024,40,50,1526.5,319619.5,-5968.5,43
2024-09-23,2024,40,50,-1784.5,317835.0,-7753.0,43
2024-09-24,2024,40,50,1806.0,319641.0,-5947.0,43
2024-09-25,2024,40,50,-2881.0,316760.0,-8828.0,43
2024-09-26,2024,40,50,3483.0,320243.0,-5345.0,43
2024-09-27,2024,40,50,1646.0,321889.0,-3699.0,50
2024-09-29,2024,40,50,1325.0,323214.0,-2374.0,50
2024-09-30,2024,40,50,-1100.0,322114.0,-3474.0,50
2024-10-01,2024,40,50,-5325.0,316789.0,-8799.0,50
2024-10-02,2024,40,50,1075.0,317864.0,-7724.0,50
2024-10-03,2024,40,50,-3750.0,314114.0,-11474.0,50
2024-10-04,2024,40,50,8000.0,322114.0,-3474.0,50
2024-10-06,2024,40,50,100.0,322214.0,-3374.0,50
2024-10-07,2024,40,50,-10550.0,311664.0,-13924.0,50
2024-10-08,2024,40,50,3000.0,314664.0,-10924.0,50
2024-10-09,2024,40,50,12500.0,327164.0,0.0,50
2024-10-10,2024,40,50,-1900.0,325264.0,-1900.0,50
2024-10-11,2024,40,50,8650.0,333914.0,0.0,50
2024-10-13,2024,40,50,1000.0,334914.0,0.0,50
2024-10-14,2024,40,50,6900.0,341814.0,0.0,50
2024-10-15,2024,40,50,-10125.0,331689.0,-10125.0,50
2024-10-16,2024,40,50,6700.0,338389.0,-3425.0,50
2024-10-17,2024,40,50,4925.0,343314.0,0.0,50
2024-10-18,2024,40,50,1350.0,344664.0,0.0,50
2024-10-20,2024,40,50,300.0,344964.0,0.0,50
2024-10-21,2024,40,50,-10825.0,334139.0,-10825.0,50
2024-10-22,2024,40,50,-1950.0,332189.0,-12775.0,50
2024-10-23,2024,40,50,-9050.0,323139.0,-21825.0,50
2024-10-24,2024,40,50,-2225.0,320914.0,-24050.0,50
2024-10-25,2024,40,50,75.0,320989.0,-23975.0,0
2024-10-27,2024,40,50,0.0,320989.0,-23975.0,0
2024-10-28,2024,40,50,0.0,320989.0,-23975.0,0
2024-10-29,2024,40,50,0.0,320989.0,-23975.0,0
2024-10-30,2024,40,50,0.0,320989.0,-23975.0,0
2024-10-31,2024,40,50,0.0,320989.0,-23975.0,0
2024-11-01,2024,40,50,0.0,320989.0,-23975.0,0
2024-11-03,2024,40,50,0.0,320989.0,-23975.0,0
2024-11-04,2024,40,50,0.0,320989.0,-23975.0,0
2024-11-05,2024,40,50,0.0,320989.0,-23975.0,0
2024-11-06,2024,40,50,22919.0,343908.0,-1056.0,43
2024-11-07,2024,40,50,-2386.5,341521.5,-3442.5,43
2024-11-08,2024,40,50,5246.0,346767.5,0.0,43
2024-11-10,2024,40,50,774.0,347541.5,0.0,43
2024-11-11,2024,40,50,4644.0,352185.5,0.0,43
2024-11-12,2024,40,50,-8041.0,344144.5,-8041.0,43
2024-11-13,2024,40,50,1397.5,345542.0,-6643.5,43
2024-11-14,2024,40,50,-6127.5,339414.5,-12771.0,43
2024-11-15,2024,40,50,-4301.0,335113.5,-17072.0,50
2024-11-17,2024,40,50,-325.0,334788.5,-17397.0,50
2024-11-18,2024,40,50,750.0,335538.5,-16647.0,50
2024-11-19,2024,40,50,-2825.0,332713.5,-19472.0,50
2024-11-20,2024,40,50,225.0,332938.5,-19247.0,50
2024-11-21,2024,40,50,12300.0,345238.5,-6947.0,50
2024-11-22,2024,40,50,11425.0,356663.5,0.0,50
2024-11-24,2024,40,50,5000.0,361663.5,0.0,50
2024-11-25,2024,40,50,4700.0,366363.5,0.0,50
2024-11-26,2024,40,50,3550.0,369913.5,0.0,50
2024-11-27,2024,40,50,-2325.0,367588.5,-2325.0,50
2024-11-28,2024,40,50,2050.0,369638.5,-275.0,50
2024-11-29,2024,40,50,2250.0,371888.5,0.0,50
2024-12-01,2024,40,50,-2000.0,369888.5,-2000.0,50
2024-12-02,2024,40,50,-1950.0,367938.5,-3950.0,50
2024-12-03,2024,40,50,1125.0,369063.5,-2825.0,50
2024-12-04,2024,40,50,3625.0,372688.5,0.0,50
2024-12-05,2024,40,50,-6550.0,366138.5,-6550.0,50
2024-12-06,2024,40,50,-3350.0,362788.5,-9900.0,50
2024-12-08,2024,40,50,-525.0,362263.5,-10425.0,50
2024-12-09,2024,40,50,-5250.0,357013.5,-15675.0,50
2024-12-10,2024,40,50,-3450.0,353563.5,-19125.0,50
2024-12-11,2024,40,50,-4750.0,348813.5,-23875.0,50
2024-12-12,2024,40,50,-3725.0,345088.5,-27600.0,50
2024-12-13,2024,40,50,25.0,345113.5,-27575.0,0
2024-12-15,2024,40,50,0.0,345113.5,-27575.0,0
2024-12-16,2024,40,50,0.0,345113.5,-27575.0,0
2024-12-17,2024,40,50,0.0,345113.5,-27575.0,0
2024-12-18,2024,40,50,0.0,345113.5,-27575.0,0
2024-12-19,2024,40,50,0.0,345113.5,-27575.0,0
2024-12-20,2024,40,50,0.0,345113.5,-27575.0,0
2024-12-22,2024,40,50,0.0,345113.5,-27575.0,0
2024-12-23,2024,40,50,0.0,345113.5,-27575.0,0
2024-12-24,2024,40,50,0.0,345113.5,-27575.0,0
2024-12-25,2024,40,50,0.0,345113.5,-27575.0,0
2024-12-26,2024,40,50,0.0,345113.5,-27575.0,0
2024-12-27,2024,40,50,0.0,345113.5,-27575.0,0
2024-12-29,2024,40,50,0.0,345113.5,-27575.0,0
2024-12-30,2024,40,50,0.0,345113.5,-27575.0,0
2024-12-31,2024,40,50,0.0,345113.5,-27575.0,0
2025-01-01,2025,40,50,0.0,345113.5,-27575.0,0
2025-01-02,2025,40,50,0.0,345113.5,-27575.0,0
2025-01-03,2025,40,50,0.0,345113.5,-27575.0,0
2025-01-05,2025,40,50,0.0,345113.5,-27575.0,0
2025-01-06,2025,40,50,0.0,345113.5,-27575.0,0
2025-01-07,2025,40,50,0.0,345113.5,-27575.0,0
2025-01-08,2025,40,50,0.0,345113.5,-27575.0,0
2025-01-09,2025,40,50,0.0,345113.5,-27575.0,0
2025-01-10,2025,40,50,0.0,345113.5,-27575.0,0
2025-01-12,2025,40,50,0.0,345113.5,-27575.0,0
2025-01-13,2025,40,50,0.0,345113.5,-27575.0,0
2025-01-14,2025,40,50,0.0,345113.5,-27575.0,0
2025-01-15,2025,40,50,15501.5,360615.0,-12073.5,43
2025-01-16,2025,40,50,-1526.5,359088.5,-13600.0,43
2025-01-17,2025,40,50,5461.0,364549.5,-8139.0,43
2025-01-19,2025,40,50,580.5,365130.0,-7558.5,43
2025-01-20,2025,40,50,2343.5,367473.5,-5215.0,43
2025-01-21,2025,40,50,9610.5,377084.0,0.0,43
2025-01-22,2025,40,50,1655.5,378739.5,0.0,43
2025-01-23,2025,40,50,8213.0,386952.5,0.0,43
2025-01-24,2025,40,50,-2752.0,384200.5,-2752.0,50
2025-01-26,2025,40,50,-3975.0,380225.5,-6727.0,50
2025-01-27,2025,40,50,10000.0,390225.5,0.0,50
2025-01-28,2025,40,50,4850.0,395075.5,0.0,50
2025-01-29,2025,40,50,-1075.0,394000.5,-1075.0,50
2025-01-30,2025,40,50,2850.0,396850.5,0.0,50
2025-01-31,2025,40,50,-9925.0,386925.5,-9925.0,50
2025-02-02,2025,40,50,-17000.0,369925.5,-26925.0,50
2025-02-03,2025,40,50,14300.0,384225.5,-12625.0,50
2025-02-04,2025,40,50,75.0,384300.5,-12550.0,50
2025-02-05,2025,40,50,12350.0,396650.5,-200.0,50
2025-02-06,2025,40,50,-6450.0,390200.5,-6650.0,50
2025-02-07,2025,40,50,-10300.0,379900.5,-16950.0,50
2025-02-09,2025,40,50,1775.0,381675.5,-15175.0,50
2025-02-10,2025,40,50,550.0,382225.5,-14625.0,50
2025-02-11,2025,40,50,4300.0,386525.5,-10325.0,50
2025-02-12,2025,40,50,-3500.0,383025.5,-13825.0,50
2025-02-13,2025,40,50,8025.0,391050.5,-5800.0,50
2025-02-14,2025,40,50,-5625.0,385425.5,-11425.0,50
2025-02-16,2025,40,50,975.0,386400.5,-10450.0,50
2025-02-17,2025,40,50,125.0,386525.5,-10325.0,50
2025-02-18,2025,40,50,75.0,386600.5,-10250.0,50
2025-02-19,2025,40,50,-1775.0,384825.5,-12025.0,50
2025-02-20,2025,40,50,-8800.0,376025.5,-20825.0,50
2025-02-21,2025,40,50,50.0,376075.5,-20775.0,0
2025-02-23,2025,40,50,0.0,376075.5,-20775.0,0
2025-02-24,2025,40,50,0.0,376075.5,-20775.0,0
2025-02-25,2025,40,50,0.0,376075.5,-20775.0,0
2025-02-26,2025,40,50,0.0,376075.5,-20775.0,0
2025-02-27,2025,40,50,0.0,376075.5,-20775.0,0
2025-02-28,2025,40,50,0.0,376075.5,-20775.0,0
2025-03-02,2025,40,50,0.0,376075.5,-20775.0,0
2025-03-03,2025,40,50,0.0,376075.5,-20775.0,0
2025-03-04,2025,40,50,0.0,376075.5,-20775.0,0
2025-03-05,2025,40,50,0.0,376075.5,-20775.0,0
2025-03-06,2025,40,50,0.0,376075.5,-20775.0,0
2025-03-07,2025,40,50,0.0,376075.5,-20775.0,0
2025-03-09,2025,40,50,0.0,376075.5,-20775.0,0
2025-03-10,2025,40,50,0.0,376075.5,-20775.0,0
2025-03-11,2025,40,50,0.0,376075.5,-20775.0,0
2025-03-12,2025,40,50,0.0,376075.5,-20775.0,0
2025-03-13,2025,40,50,0.0,376075.5,-20775.0,0
2025-03-14,2025,40,50,0.0,376075.5,-20775.0,0
2025-03-16,2025,40,50,0.0,376075.5,-20775.0,0
2025-03-17,2025,40,50,0.0,376075.5,-20775.0,0
2025-03-18,2025,40,50,0.0,376075.5,-20775.0,0
2025-03-19,2025,40,50,0.0,376075.5,-20775.0,0
2025-03-20,2025,40,50,0.0,376075.5,-20775.0,0
2025-03-21,2025,40,50,0.0,376075.5,-20775.0,0
2025-03-23,2025,40,50,0.0,376075.5,-20775.0,0
2025-03-24,2025,40,50,0.0,376075.5,-20775.0,0
2025-03-25,2025,40,50,0.0,376075.5,-20775.0,0
2025-03-26,2025,40,50,0.0,376075.5,-20775.0,0
2025-03-27,2025,40,50,0.0,376075.5,-20775.0,0
2025-03-28,2025,40,50,0.0,376075.5,-20775.0,0
2025-03-30,2025,40,50,0.0,376075.5,-20775.0,0
2025-03-31,2025,40,50,0.0,376075.5,-20775.0,0
2025-04-01,2025,40,50,0.0,376075.5,-20775.0,0
2025-04-02,2025,40,50,0.0,376075.5,-20775.0,0
2025-04-03,2025,40,50,0.0,376075.5,-20775.0,0
2025-04-04,2025,40,50,0.0,376075.5,-20775.0,0
2025-04-06,2025,40,50,0.0,376075.5,-20775.0,0
2025-04-07,2025,40,50,0.0,376075.5,-20775.0,0
2025-04-08,2025,40,50,0.0,376075.5,-20775.0,0
2025-04-09,2025,40,50,76862.5,452938.0,0.0,43
2025-04-10,2025,40,50,-22575.0,430363.0,-22575.0,43
2025-04-11,2025,40,50,14964.0,445327.0,-7611.0,43
2025-04-13,2025,40,50,1376.0,446703.0,-6235.0,43
2025-04-14,2025,40,50,4687.0,451390.0,-1548.0,43
2025-04-15,2025,40,50,-6256.5,445133.5,-7804.5,43
2025-04-16,2025,40,50,-6966.0,438167.5,-14770.5,43
2025-04-17,2025,40,50,-15157.5,423010.0,-29928.0,43
2025-04-20,2025,40,50,-8729.0,414281.0,-38657.0,43
2025-04-21,2025,40,50,-11889.5,402391.5,-50546.5,43
2025-04-22,2025,40,50,29197.0,431588.5,-21349.5,43
2025-04-23,2025,40,50,-3096.0,428492.5,-24445.5,43
2025-04-24,2025,40,50,13803.0,442295.5,-10642.5,43
2025-04-25,2025,40,50,-175.5,442120.0,-10818.0,50
2025-04-27,2025,40,50,-4950.0,437170.0,-15768.0,50
2025-04-28,2025,40,50,8425.0,445595.0,-7343.0,50
2025-04-29,2025,40,50,3525.0,449120.0,-3818.0,50
2025-04-30,2025,40,50,11325.0,460445.0,0.0,50
2025-05-01,2025,40,50,4900.0,465345.0,0.0,50
2025-05-02,2025,40,50,5850.0,471195.0,0.0,50
2025-05-04,2025,40,50,-7025.0,464170.0,-7025.0,50
2025-05-05,2025,40,50,3450.0,467620.0,-3575.0,50
2025-05-06,2025,40,50,-3825.0,463795.0,-7400.0,50
2025-05-07,2025,40,50,7500.0,471295.0,0.0,50
2025-05-08,2025,40,50,875.0,472170.0,0.0,50
2025-05-09,2025,40,50,-2700.0,469470.0,-2700.0,50
2025-05-11,2025,40,50,10375.0,479845.0,0.0,50
2025-05-12,2025,40,50,14850.0,494695.0,0.0,50
2025-05-13,2025,40,50,-3600.0,491095.0,-3600.0,50
2025-05-14,2025,40,50,-7025.0,484070.0,-10625.0,50
2025-05-15,2025,40,50,10925.0,494995.0,0.0,50
2025-05-16,2025,40,50,3750.0,498745.0,0.0,50
2025-05-18,2025,40,50,-3425.0,495320.0,-3425.0,50
2025-05-19,2025,40,50,10625.0,505945.0,0.0,50
2025-05-20,2025,40,50,-4375.0,501570.0,-4375.0,50
2025-05-21,2025,40,50,-17750.0,483820.0,-22125.0,50
2025-05-22,2025,40,50,325.0,484145.0,-21800.0,50
2025-05-23,2025,40,50,-7225.0,476920.0,-29025.0,50
2025-05-25,2025,40,50,9275.0,486195.0,-19750.0,50
2025-05-26,2025,40,50,-1100.0,485095.0,-20850.0,50
2025-05-27,2025,40,50,9700.0,494795.0,-11150.0,50
2025-05-28,2025,40,50,7850.0,502645.0,-3300.0,50
2025-05-29,2025,40,50,-12050.0,490595.0,-15350.0,50
2025-05-30,2025,40,50,1425.0,492020.0,-13925.0,50
2025-06-01,2025,40,50,-3400.0,488620.0,-17325.0,50
2025-06-02,2025,40,50,2075.0,490695.0,-15250.0,50
2025-06-03,2025,40,50,8650.0,499345.0,-6600.0,50
2025-06-04,2025,40,50,-2250.0,497095.0,-8850.0,50
2025-06-05,2025,40,50,250.0,497345.0,-8600.0,50
2025-06-06,2025,40,50,8550.0,505895.0,-50.0,50
2025-06-08,2025,40,50,-2200.0,503695.0,-2250.0,50
2025-06-09,2025,40,50,4425.0,508120.0,0.0,50
2025-06-10,2025,40,50,-2675.0,505445.0,-2675.0,50
2025-06-11,2025,40,50,-1425.0,504020.0,-4100.0,50
2025-06-12,2025,40,50,-8600.0,495420.0,-12700.0,50
2025-06-13,2025,40,50,-5900.0,489520.0,-18600.0,50
2025-06-15,2025,40,50,9250.0,498770.0,-9350.0,50
2025-06-16,2025,40,50,4550.0,503320.0,-4800.0,50
2025-06-17,2025,40,50,-4275.0,499045.0,-9075.0,50
2025-06-18,2025,40,50,-2450.0,496595.0,-11525.0,50
2025-06-19,2025,40,50,-1575.0,495020.0,-13100.0,50
2025-06-20,2025,40,50,4375.0,499395.0,-8725.0,50
2025-06-22,2025,40,50,-4675.0,494720.0,-13400.0,50
2025-06-23,2025,40,50,18475.0,513195.0,0.0,50
2025-06-24,2025,40,50,7425.0,520620.0,0.0,50
2025-06-25,2025,40,50,-2000.0,518620.0,-2000.0,50
2025-06-26,2025,40,50,11400.0,530020.0,0.0,50
2025-06-27,2025,40,50,11250.0,541270.0,0.0,50
2025-06-29,2025,40,50,3100.0,544370.0,0.0,50
2025-06-30,2025,40,50,-450.0,543920.0,-450.0,50
2025-07-01,2025,40,50,12900.0,556820.0,0.0,50
2025-07-02,2025,40,50,-1625.0,555195.0,-1625.0,50
2025-07-03,2025,40,50,4600.0,559795.0,0.0,50
2025-07-04,2025,40,50,-3675.0,556120.0,-3675.0,50
2025-07-06,2025,40,50,3350.0,559470.0,-325.0,50
2025-07-07,2025,40,50,-8625.0,550845.0,-8950.0,50
2025-07-08,2025,40,50,-4125.0,546720.0,-13075.0,50
2025-07-09,2025,40,50,3675.0,550395.0,-9400.0,50
2025-07-10,2025,40,50,3975.0,554370.0,-5425.0,50
2025-07-11,2025,40,50,-5300.0,549070.0,-10725.0,50
2025-07-13,2025,40,50,-3850.0,545220.0,-14575.0,50
2025-07-14,2025,40,50,6325.0,551545.0,-8250.0,50
2025-07-15,2025,40,50,-12200.0,539345.0,-20450.0,50
2025-07-16,2025,40,50,5400.0,544745.0,-15050.0,50
2025-07-17,2025,40,50,10275.0,555020.0,-4775.0,50
2025-07-18,2025,40,50,-6550.0,548470.0,-11325.0,50
2025-07-20,2025,40,50,900.0,549370.0,-10425.0,50
2025-07-21,2025,40,50,475.0,549845.0,-9950.0,50
2025-07-22,2025,40,50,5800.0,555645.0,-4150.0,50
2025-07-23,2025,40,50,6500.0,562145.0,0.0,50
2025-07-24,2025,40,50,-1375.0,560770.0,-1375.0,50
2025-07-25,2025,40,50,1425.0,562195.0,0.0,50
2025-07-27,2025,40,50,4325.0,566520.0,0.0,50
2025-07-28,2025,40,50,-5175.0,561345.0,-5175.0,50
2025-07-29,2025,40,50,-5075.0,556270.0,-10250.0,50
2025-07-30,2025,40,50,-2350.0,553920.0,-12600.0,50
2025-07-31,2025,40,50,-12775.0,541145.0,-25375.0,50
2025-08-01,2025,40,50,-75.0,541070.0,-25450.0,0
2025-08-03,2025,40,50,0.0,541070.0,-25450.0,0
2025-08-04,2025,40,50,0.0,541070.0,-25450.0,0
2025-08-05,2025,40,50,0.0,541070.0,-25450.0,0
2025-08-06,2025,40,50,0.0,541070.0,-25450.0,0
2025-08-07,2025,40,50,0.0,541070.0,-25450.0,0
2025-08-08,2025,40,50,0.0,541070.0,-25450.0,0
2025-08-10,2025,40,50,0.0,541070.0,-25450.0,0
2025-08-11,2025,40,50,0.0,541070.0,-25450.0,0
2025-08-12,2025,40,50,0.0,541070.0,-25450.0,0
2025-08-13,2025,40,50,0.0,541070.0,-25450.0,0
2025-08-14,2025,40,50,5762.0,546832.0,-19688.0,43
2025-08-15,2025,40,50,-5848.0,540984.0,-25536.0,43
2025-08-17,2025,40,50,129.0,541113.0,-25407.0,0
2025-08-18,2025,40,50,-3182.0,537931.0,-28589.0,43
2025-08-19,2025,40,50,43.0,537974.0,-28546.0,0
2025-08-20,2025,40,50,0.0,537974.0,-28546.0,0
2025-08-21,2025,40,50,0.0,537974.0,-28546.0,0
2025-08-22,2025,40,50,0.0,537974.0,-28546.0,0
2025-08-24,2025,40,50,-1311.5,536662.5,-29857.5,43
2025-08-25,2025,40,50,-7976.5,528686.0,-37834.0,43
2025-08-26,2025,40,50,5117.0,533803.0,-32717.0,43
2025-08-27,2025,40,50,4171.0,537974.0,-28546.0,43
2025-08-28,2025,40,50,-1849.0,536125.0,-30395.0,43
2025-08-29,2025,40,50,-172.0,535953.0,-30567.0,43
2025-08-31,2025,40,50,-666.5,535286.5,-31233.5,43
2025-09-01,2025,40,50,-193.5,535093.0,-31427.0,43
2025-09-02,2025,40,50,-8191.5,526901.5,-39618.5,43
2025-09-03,2025,40,50,1161.0,528062.5,-38457.5,43
2025-09-04,2025,40,50,9331.0,537393.5,-29126.5,43
2025-09-05,2025,40,50,-5021.0,532372.5,-34147.5,50
2025-09-07,2025,40,50,1025.0,533397.5,-33122.5,50
2025-09-08,2025,40,50,2950.0,536347.5,-30172.5,50
2025-09-09,2025,40,50,2175.0,538522.5,-27997.5,50
2025-09-10,2025,40,50,-3475.0,535047.5,-31472.5,50
2025-09-11,2025,40,50,14450.0,549497.5,-17022.5,50
2025-09-12,2025,40,50,-7350.0,542147.5,-24372.5,50
2025-09-14,2025,40,50,8975.0,551122.5,-15397.5,50
2025-09-15,2025,40,50,1775.0,552897.5,-13622.5,50
2025-09-16,2025,40,50,-4925.0,547972.5,-18547.5,50
2025-09-17,2025,40,50,10325.0,558297.5,-8222.5,50
2025-09-18,2025,40,50,1525.0,559822.5,-6697.5,50
2025-09-19,2025,40,50,1175.0,560997.5,-5522.5,50
2025-09-21,2025,40,50,-200.0,560797.5,-5722.5,50
2025-09-22,2025,40,50,3050.0,563847.5,-2672.5,50
2025-09-23,2025,40,50,-1000.0,562847.5,-3672.5,50
2025-09-24,2025,40,50,-3775.0,559072.5,-7447.5,50
2025-09-25,2025,40,50,-6425.0,552647.5,-13872.5,50
2025-09-26,2025,40,50,7075.0,559722.5,-6797.5,50
2025-09-28,2025,40,50,2850.0,562572.5,-3947.5,50
2025-09-29,2025,40,50,-1725.0,560847.5,-5672.5,50
2025-09-30,2025,40,50,-2625.0,558222.5,-8297.5,50
2025-10-01,2025,40,50,5350.0,563572.5,-2947.5,50
2025-10-02,2025,40,50,4350.0,567922.5,0.0,50
2025-10-03,2025,40,50,3850.0,571772.5,0.0,50
2025-10-05,2025,40,50,2200.0,573972.5,0.0,50
2025-10-06,2025,40,50,-6575.0,567397.5,-6575.0,50
2025-10-07,2025,40,50,1025.0,568422.5,-5550.0,50
2025-10-08,2025,40,50,-2300.0,566122.5,-7850.0,50
2025-10-09,2025,40,50,-4275.0,561847.5,-12125.0,50
2025-10-10,2025,40,50,25.0,561872.5,-12100.0,0
2025-10-12,2025,40,50,0.0,561872.5,-12100.0,0
2025-10-13,2025,40,50,0.0,561872.5,-12100.0,0
2025-10-14,2025,40,50,0.0,561872.5,-12100.0,0
2025-10-15,2025,40,50,0.0,561872.5,-12100.0,0
2025-10-16,2025,40,50,0.0,561872.5,-12100.0,0
2025-10-17,2025,40,50,0.0,561872.5,-12100.0,0
2025-10-19,2025,40,50,0.0,561872.5,-12100.0,0
2025-10-20,2025,40,50,0.0,561872.5,-12100.0,0
2025-10-21,2025,40,50,0.0,561872.5,-12100.0,0
2025-10-22,2025,40,50,0.0,561872.5,-12100.0,0
2025-10-23,2025,40,50,0.0,561872.5,-12100.0,0
2025-10-24,2025,40,50,8879.5,570752.0,-3220.5,43
2025-10-26,2025,40,50,5848.0,576600.0,0.0,43
2025-10-27,2025,40,50,1204.0,577804.0,0.0,43
2025-10-28,2025,40,50,2795.0,580599.0,0.0,43
2025-10-29,2025,40,50,774.0,581373.0,0.0,43
2025-10-30,2025,40,50,-3827.0,577546.0,-3827.0,43
2025-10-31,2025,40,50,602.0,578148.0,-3225.0,43
2025-11-02,2025,40,50,924.5,579072.5,-2300.5,43
2025-11-03,2025,40,50,-10062.0,569010.5,-12362.5,43
2025-11-04,2025,40,50,-1397.5,567613.0,-13760.0,43
2025-11-05,2025,40,50,4042.0,571655.0,-9718.0,43
2025-11-06,2025,40,50,-7955.0,563700.0,-17673.0,43
2025-11-07,2025,40,50,2701.5,566401.5,-14971.5,50
2025-11-09,2025,40,50,0.0,566401.5,-14971.5,50
2025-11-10,2025,40,50,7800.0,574201.5,-7171.5,50
2025-11-11,2025,40,50,14875.0,589076.5,0.0,50
2025-11-12,2025,40,50,10275.0,599351.5,0.0,50
2025-11-13,2025,40,50,-23175.0,576176.5,-23175.0,50
2025-11-14,2025,40,50,-6900.0,569276.5,-30075.0,50
2025-11-16,2025,40,50,75.0,569351.5,-30000.0,50
2025-11-17,2025,40,50,0.0,569351.5,-30000.0,0
2025-11-18,2025,40,50,0.0,569351.5,-30000.0,0
2025-11-19,2025,40,50,0.0,569351.5,-30000.0,0
2025-11-20,2025,40,50,0.0,569351.5,-30000.0,0
2025-11-21,2025,40,50,0.0,569351.5,-30000.0,0
2025-11-23,2025,40,50,0.0,569351.5,-30000.0,0
2025-11-24,2025,40,50,0.0,569351.5,-30000.0,0
2025-11-25,2025,40,50,0.0,569351.5,-30000.0,0
2025-11-26,2025,40,50,0.0,569351.5,-30000.0,0
2025-11-27,2025,40,50,0.0,569351.5,-30000.0,0
2025-11-28,2025,40,50,0.0,569351.5,-30000.0,0
2025-11-30,2025,40,50,0.0,569351.5,-30000.0,0
2025-12-01,2025,40,50,0.0,569351.5,-30000.0,0
2025-12-02,2025,40,50,0.0,569351.5,-30000.0,0
2025-12-03,2025,40,50,7675.5,577027.0,-22324.5,43
2025-12-04,2025,40,50,-1634.0,575393.0,-23958.5,43
2025-12-05,2025,40,50,1483.5,576876.5,-22475.0,43
2025-12-07,2025,40,50,150.5,577027.0,-22324.5,43
2025-12-08,2025,40,50,-4665.5,572361.5,-26990.0,43
2025-12-09,2025,40,50,-3397.0,568964.5,-30387.0,43
2025-12-10,2025,40,50,0.0,568964.5,-30387.0,0
2025-12-11,2025,40,50,20081.0,589045.5,-10306.0,43
2025-12-12,2025,40,50,-7052.0,581993.5,-17358.0,43
2025-12-14,2025,40,50,10879.0,592872.5,-6479.0,43
2025-12-15,2025,40,50,-6428.5,586444.0,-12907.5,43
2025-12-16,2025,40,50,-6600.5,579843.5,-19508.0,43
2025-12-17,2025,40,50,-4386.0,575457.5,-23894.0,43
2025-12-18,2025,40,50,408.5,575866.0,-23485.5,43
2025-12-19,2025,40,50,5669.0,581535.0,-17816.5,50
2025-12-21,2025,40,50,250.0,581785.0,-17566.5,50
2025-12-22,2025,40,50,3575.0,585360.0,-13991.5,50
2025-12-23,2025,40,50,2000.0,587360.0,-11991.5,50
2025-12-24,2025,40,50,7425.0,594785.0,-4566.5,50
2025-12-25,2025,40,50,375.0,595160.0,-4191.5,50
2025-12-26,2025,40,50,-750.0,594410.0,-4941.5,50
2025-12-28,2025,40,50,-250.0,594160.0,-5191.5,50
2025-12-29,2025,40,50,-6000.0,588160.0,-11191.5,50
2025-12-30,2025,40,50,-3175.0,584985.0,-14366.5,50
2025-12-31,2025,40,50,-7125.0,577860.0,-21491.5,50
2026-01-01,2026,40,50,2675.0,580535.0,-18816.5,50
2026-01-02,2026,40,50,3700.0,584235.0,-15116.5,50
2026-01-04,2026,40,50,825.0,585060.0,-14291.5,50
2026-01-05,2026,40,50,15350.0,600410.0,0.0,50
2026-01-06,2026,40,50,13775.0,614185.0,0.0,50
2026-01-07,2026,40,50,-16025.0,598160.0,-16025.0,50
2026-01-08,2026,40,50,8600.0,606760.0,-7425.0,50
2026-01-09,2026,40,50,5825.0,612585.0,-1600.0,50
2026-01-11,2026,40,50,-6375.0,606210.0,-7975.0,50
2026-01-12,2026,40,50,8025.0,614235.0,0.0,50
2026-01-13,2026,40,50,-13075.0,601160.0,-13075.0,50
2026-01-14,2026,40,50,650.0,601810.0,-12425.0,50
2026-01-15,2026,40,50,11100.0,612910.0,-1325.0,50
2026-01-16,2026,40,50,-4775.0,608135.0,-6100.0,50
2026-01-18,2026,40,50,-9475.0,598660.0,-15575.0,50
2026-01-19,2026,40,50,-2400.0,596260.0,-17975.0,50
2026-01-20,2026,40,50,-7900.0,588360.0,-25875.0,50
2026-01-21,2026,40,50,14800.0,603160.0,-11075.0,50
2026-01-22,2026,40,50,6000.0,609160.0,-5075.0,50
2026-01-23,2026,40,50,-10425.0,598735.0,-15500.0,50
2026-01-25,2026,40,50,-1100.0,597635.0,-16600.0,50
2026-01-26,2026,40,50,9550.0,607185.0,-7050.0,50
2026-01-27,2026,40,50,-9300.0,597885.0,-16350.0,50
2026-01-28,2026,40,50,-525.0,597360.0,-16875.0,50
2026-01-29,2026,40,50,-3650.0,593710.0,-20525.0,50
2026-01-30,2026,40,50,75.0,593785.0,-20450.0,50
2026-02-01,2026,40,50,-8300.0,585485.0,-28750.0,50
2026-02-02,2026,40,50,22950.0,608435.0,-5800.0,50
2026-02-03,2026,40,50,-4125.0,604310.0,-9925.0,50
2026-02-04,2026,40,50,3250.0,607560.0,-6675.0,50
2026-02-05,2026,40,50,-16450.0,591110.0,-23125.0,50
2026-02-06,2026,40,50,33175.0,624285.0,0.0,50
2026-02-08,2026,40,50,2000.0,626285.0,0.0,50
2026-02-09,2026,40,50,-1125.0,625160.0,-1125.0,50
2026-02-10,2026,40,50,3900.0,629060.0,0.0,50
2026-02-11,2026,40,50,-1050.0,628010.0,-1050.0,50
2026-02-12,2026,40,50,-21325.0,606685.0,-22375.0,50
2026-02-13,2026,40,50,675.0,607360.0,-21700.0,50
2026-02-15,2026,40,50,2900.0,610260.0,-18800.0,50
2026-02-16,2026,40,50,-5350.0,604910.0,-24150.0,50
2026-02-17,2026,40,50,5550.0,610460.0,-18600.0,50
2026-02-18,2026,40,50,1250.0,611710.0,-17350.0,50
2026-02-19,2026,40,50,-4500.0,607210.0,-21850.0,50
2026-02-20,2026,40,50,4025.0,611235.0,-17825.0,50
2026-02-22,2026,40,50,-8075.0,603160.0,-25900.0,50
2026-02-23,2026,40,50,-10550.0,592610.0,-36450.0,50
2026-02-24,2026,40,50,7425.0,600035.0,-29025.0,50
2026-02-25,2026,40,50,5325.0,605360.0,-23700.0,50
2026-02-26,2026,40,50,-3800.0,601560.0,-27500.0,50
2026-02-27,2026,40,50,-9650.0,591910.0,-37150.0,50
2026-03-01,2026,40,50,-9775.0,582135.0,-46925.0,0
2026-03-02,2026,40,50,0.0,582135.0,-46925.0,0
2026-03-03,2026,40,50,0.0,582135.0,-46925.0,0
2026-03-04,2026,40,50,0.0,582135.0,-46925.0,0
2026-03-05,2026,40,50,0.0,582135.0,-46925.0,0
2026-03-06,2026,40,50,0.0,582135.0,-46925.0,0
2026-03-08,2026,40,50,0.0,582135.0,-46925.0,0
