date,realized_points,open_unrealized_points,total_equity_points,open_units,direction
2019-05-05,0.0,0.0,0.0,0,
2019-05-06,0.0,0.0,0.0,0,
2019-05-07,0.0,0.0,0.0,0,
2019-05-08,0.0,0.0,0.0,0,
2019-05-09,0.0,0.0,0.0,0,
2019-05-10,0.0,0.0,0.0,0,
2019-05-12,0.0,0.0,0.0,0,
2019-05-13,0.0,0.0,0.0,0,
2019-05-14,0.0,0.0,0.0,0,
2019-05-15,0.0,0.0,0.0,0,
2019-05-16,0.0,0.0,0.0,0,
2019-05-17,0.0,0.0,0.0,0,
2019-05-19,0.0,0.0,0.0,0,
2019-05-20,0.0,0.0,0.0,0,
2019-05-21,0.0,0.0,0.0,0,
2019-05-22,0.0,0.0,0.0,0,
2019-05-23,0.0,0.0,0.0,0,
2019-05-24,0.0,0.0,0.0,0,
2019-05-26,0.0,0.0,0.0,0,
2019-05-27,0.0,0.0,0.0,0,
2019-05-28,0.0,0.0,0.0,0,
2019-05-29,0.0,0.0,0.0,0,
2019-05-30,0.0,0.0,0.0,0,
2019-05-31,0.0,0.0,0.0,0,
2019-06-02,0.0,0.0,0.0,0,
2019-06-03,0.0,0.0,0.0,0,
2019-06-04,0.0,0.0,0.0,0,
2019-06-05,0.0,0.0,0.0,0,
2019-06-06,0.0,0.0,0.0,0,
2019-06-07,0.0,0.0,0.0,0,
2019-06-09,0.0,0.0,0.0,0,
2019-06-10,0.0,0.0,0.0,0,
2019-06-11,0.0,0.0,0.0,0,
2019-06-12,0.0,0.0,0.0,0,
2019-06-13,0.0,0.0,0.0,0,
2019-06-14,0.0,0.0,0.0,0,
2019-06-16,0.0,0.0,0.0,0,
2019-06-17,0.0,0.0,0.0,0,
2019-06-18,0.0,0.0,0.0,0,
2019-06-19,0.0,0.0,0.0,0,
2019-06-20,0.0,0.0,0.0,0,
2019-06-21,0.0,0.0,0.0,0,
2019-06-23,0.0,0.0,0.0,0,
2019-06-24,0.0,0.0,0.0,0,
2019-06-25,0.0,0.0,0.0,0,
2019-06-26,0.0,0.0,0.0,0,
2019-06-27,0.0,0.0,0.0,0,
2019-06-28,0.0,0.0,0.0,0,
2019-06-30,0.0,0.0,0.0,0,
2019-07-01,0.0,0.0,0.0,0,
2019-07-02,0.0,0.0,0.0,0,
2019-07-03,0.0,0.0,0.0,0,
2019-07-04,0.0,0.0,0.0,0,
2019-07-05,0.0,0.0,0.0,0,
2019-07-07,0.0,0.0,0.0,0,
2019-07-08,0.0,0.0,0.0,0,
2019-07-09,0.0,0.0,0.0,0,
2019-07-10,0.0,0.0,0.0,0,
2019-07-11,0.0,0.0,0.0,0,
2019-07-12,0.0,0.0,0.0,0,
2019-07-14,0.0,0.0,0.0,0,
2019-07-15,0.0,0.0,0.0,0,
2019-07-16,0.0,0.0,0.0,0,
2019-07-17,0.0,0.0,0.0,0,
2019-07-18,0.0,0.0,0.0,0,
2019-07-19,0.0,0.0,0.0,0,
2019-07-21,0.0,0.0,0.0,0,
2019-07-22,0.0,0.0,0.0,0,
2019-07-23,0.0,0.0,0.0,0,
2019-07-24,0.0,0.0,0.0,0,
2019-07-25,0.0,0.0,0.0,0,
2019-07-26,0.0,0.0,0.0,0,
2019-07-28,0.0,0.0,0.0,0,
2019-07-29,0.0,0.0,0.0,0,
2019-07-30,0.0,0.0,0.0,0,
2019-07-31,0.0,0.0,0.0,0,
2019-08-01,0.0,0.0,0.0,0,
2019-08-02,0.0,0.0,0.0,0,
2019-08-04,0.0,0.0,0.0,0,
2019-08-05,0.0,0.0,0.0,0,
2019-08-06,0.0,0.0,0.0,0,
2019-08-07,0.0,0.0,0.0,0,
2019-08-08,0.0,0.0,0.0,0,
2019-08-09,0.0,0.0,0.0,0,
2019-08-11,0.0,0.0,0.0,0,
2019-08-12,0.0,0.0,0.0,0,
2019-08-13,0.0,0.0,0.0,0,
2019-08-14,0.0,0.0,0.0,0,
2019-08-15,0.0,0.0,0.0,0,
2019-08-16,0.0,0.0,0.0,0,
2019-08-18,0.0,0.0,0.0,0,
2019-08-19,0.0,0.0,0.0,0,
2019-08-20,0.0,0.0,0.0,0,
2019-08-21,0.0,0.0,0.0,0,
2019-08-22,0.0,0.0,0.0,0,
2019-08-23,0.0,0.0,0.0,0,
2019-08-25,0.0,0.0,0.0,0,
2019-08-26,0.0,0.0,0.0,0,
2019-08-27,0.0,0.0,0.0,0,
2019-08-28,0.0,0.0,0.0,0,
2019-08-29,0.0,0.0,0.0,0,
2019-08-30,0.0,0.0,0.0,0,
2019-09-01,0.0,0.0,0.0,0,
2019-09-02,0.0,0.0,0.0,0,
2019-09-03,0.0,0.0,0.0,0,
2019-09-04,0.0,0.0,0.0,0,
2019-09-05,0.0,0.0,0.0,0,
2019-09-06,0.0,0.0,0.0,0,
2019-09-08,0.0,0.0,0.0,0,
2019-09-09,0.0,0.0,0.0,0,
2019-09-10,0.0,0.0,0.0,0,
2019-09-11,0.0,0.0,0.0,0,
2019-09-12,0.0,0.0,0.0,0,
2019-09-13,0.0,0.0,0.0,0,
2019-09-15,0.0,0.0,0.0,0,
2019-09-16,0.0,0.0,0.0,0,
2019-09-17,0.0,0.0,0.0,0,
2019-09-18,0.0,0.0,0.0,0,
2019-09-19,0.0,0.0,0.0,0,
2019-09-20,0.0,0.0,0.0,0,
2019-09-22,0.0,0.0,0.0,0,
2019-09-23,0.0,0.0,0.0,0,
2019-09-24,0.0,0.0,0.0,0,
2019-09-25,0.0,0.0,0.0,0,
2019-09-26,0.0,0.0,0.0,0,
2019-09-27,0.0,0.0,0.0,0,
2019-09-29,0.0,0.0,0.0,0,
2019-09-30,0.0,0.0,0.0,0,
2019-10-01,0.0,0.0,0.0,0,
2019-10-02,0.0,0.0,0.0,0,
2019-10-03,0.0,0.0,0.0,0,
2019-10-04,0.0,0.0,0.0,0,
2019-10-06,0.0,0.0,0.0,0,
2019-10-07,0.0,0.0,0.0,0,
2019-10-08,0.0,0.0,0.0,0,
2019-10-09,0.0,0.0,0.0,0,
2019-10-10,0.0,0.0,0.0,0,
2019-10-11,0.0,0.0,0.0,0,
2019-10-13,0.0,0.0,0.0,0,
2019-10-14,0.0,0.0,0.0,0,
2019-10-15,0.0,0.0,0.0,0,
2019-10-16,0.0,0.0,0.0,0,
2019-10-17,0.0,0.0,0.0,0,
2019-10-18,0.0,0.0,0.0,0,
2019-10-20,0.0,0.0,0.0,0,
2019-10-21,0.0,0.0,0.0,0,
2019-10-22,0.0,0.0,0.0,0,
2019-10-23,0.0,0.0,0.0,0,
2019-10-24,0.0,0.0,0.0,0,
2019-10-25,0.0,0.0,0.0,0,
2019-10-27,0.0,0.0,0.0,0,
2019-10-28,0.0,0.0,0.0,0,
2019-10-29,0.0,0.0,0.0,0,
2019-10-30,0.0,0.0,0.0,0,
2019-10-31,0.0,0.0,0.0,0,
2019-11-01,0.0,0.0,0.0,0,
2019-11-03,0.0,0.0,0.0,0,
2019-11-04,0.0,0.0,0.0,0,
2019-11-05,0.0,0.0,0.0,0,
2019-11-06,0.0,0.0,0.0,0,
2019-11-07,0.0,0.0,0.0,0,
2019-11-08,0.0,0.0,0.0,0,
2019-11-10,0.0,0.0,0.0,0,
2019-11-11,0.0,0.0,0.0,0,
2019-11-12,0.0,0.0,0.0,0,
2019-11-13,0.0,0.0,0.0,0,
2019-11-14,0.0,0.0,0.0,0,
2019-11-15,0.0,0.0,0.0,0,
2019-11-17,0.0,0.0,0.0,0,
2019-11-18,0.0,0.0,0.0,0,
2019-11-19,0.0,0.0,0.0,0,
2019-11-20,0.0,0.0,0.0,0,
2019-11-21,0.0,0.0,0.0,0,
2019-11-22,0.0,0.0,0.0,0,
2019-11-24,0.0,0.0,0.0,0,
2019-11-25,0.0,0.0,0.0,0,
2019-11-26,0.0,0.0,0.0,0,
2019-11-27,0.0,0.0,0.0,0,
2019-11-28,0.0,0.0,0.0,0,
2019-11-29,0.0,0.0,0.0,0,
2019-12-01,0.0,0.0,0.0,0,
2019-12-02,0.0,0.0,0.0,0,
2019-12-03,0.0,0.0,0.0,0,
2019-12-04,0.0,0.0,0.0,0,
2019-12-05,0.0,0.0,0.0,0,
2019-12-06,0.0,0.0,0.0,0,
2019-12-08,0.0,0.0,0.0,0,
2019-12-09,0.0,0.0,0.0,0,
2019-12-10,0.0,0.0,0.0,0,
2019-12-11,0.0,0.0,0.0,0,
2019-12-12,0.0,0.0,0.0,0,
2019-12-13,0.0,0.0,0.0,0,
2019-12-15,0.0,0.0,0.0,0,
2019-12-16,0.0,0.0,0.0,0,
2019-12-17,0.0,0.0,0.0,0,
2019-12-18,0.0,0.0,0.0,0,
2019-12-19,0.0,0.0,0.0,0,
2019-12-20,0.0,0.0,0.0,0,
2019-12-22,0.0,0.0,0.0,0,
2019-12-23,0.0,0.0,0.0,0,
2019-12-24,0.0,0.0,0.0,0,
2019-12-25,0.0,0.0,0.0,0,
2019-12-26,0.0,0.0,0.0,0,
2019-12-27,0.0,0.0,0.0,0,
2019-12-29,0.0,0.0,0.0,0,
2019-12-30,0.0,0.0,0.0,0,
2019-12-31,0.0,0.0,0.0,0,
2020-01-01,0.0,0.0,0.0,0,
2020-01-02,0.0,0.0,0.0,0,
2020-01-03,0.0,0.0,0.0,0,
2020-01-05,0.0,0.0,0.0,0,
2020-01-06,0.0,0.0,0.0,0,
2020-01-07,0.0,0.0,0.0,0,
2020-01-08,0.0,0.0,0.0,0,
2020-01-09,0.0,0.0,0.0,0,
2020-01-10,0.0,0.0,0.0,0,
2020-01-12,0.0,0.0,0.0,0,
2020-01-13,0.0,0.0,0.0,0,
2020-01-14,0.0,0.0,0.0,0,
2020-01-15,0.0,0.0,0.0,0,
2020-01-16,0.0,0.0,0.0,0,
2020-01-17,0.0,0.0,0.0,0,
2020-01-19,0.0,0.0,0.0,0,
2020-01-20,0.0,0.0,0.0,0,
2020-01-21,0.0,0.0,0.0,0,
2020-01-22,0.0,0.0,0.0,0,
2020-01-23,0.0,0.0,0.0,0,
2020-01-24,0.0,0.0,0.0,0,
2020-01-26,0.0,0.0,0.0,0,
2020-01-27,0.0,0.0,0.0,0,
2020-01-28,0.0,0.0,0.0,0,
2020-01-29,0.0,0.0,0.0,0,
2020-01-30,0.0,0.0,0.0,0,
2020-01-31,0.0,0.0,0.0,0,
2020-02-02,0.0,0.0,0.0,0,
2020-02-03,0.0,0.0,0.0,0,
2020-02-04,0.0,0.0,0.0,0,
2020-02-05,0.0,0.0,0.0,0,
2020-02-06,0.0,0.0,0.0,0,
2020-02-07,0.0,0.0,0.0,0,
2020-02-09,0.0,0.0,0.0,0,
2020-02-10,0.0,0.0,0.0,0,
2020-02-11,0.0,0.0,0.0,0,
2020-02-12,0.0,0.0,0.0,0,
2020-02-13,0.0,0.0,0.0,0,
2020-02-14,0.0,0.0,0.0,0,
2020-02-16,0.0,0.0,0.0,0,
2020-02-17,0.0,0.0,0.0,0,
2020-02-18,0.0,0.0,0.0,0,
2020-02-19,0.0,0.0,0.0,0,
2020-02-20,0.0,0.0,0.0,0,
2020-02-21,0.0,0.0,0.0,0,
2020-02-23,0.0,0.0,0.0,0,
2020-02-24,0.0,0.0,0.0,0,
2020-02-25,0.0,0.0,0.0,0,
2020-02-26,0.0,0.0,0.0,0,
2020-02-27,0.0,0.0,0.0,0,
2020-02-28,0.0,0.0,0.0,0,
2020-03-01,0.0,0.0,0.0,0,
2020-03-02,0.0,0.0,0.0,0,
2020-03-03,0.0,0.0,0.0,0,
2020-03-04,0.0,0.0,0.0,0,
2020-03-05,0.0,0.0,0.0,0,
2020-03-06,0.0,0.0,0.0,0,
2020-03-08,0.0,0.0,0.0,0,
2020-03-09,0.0,0.0,0.0,0,
2020-03-10,0.0,0.0,0.0,0,
2020-03-11,0.0,0.0,0.0,0,
2020-03-12,0.0,0.0,0.0,0,
2020-03-13,0.0,0.0,0.0,0,
2020-03-15,0.0,0.0,0.0,0,
2020-03-16,0.0,0.0,0.0,0,
2020-03-17,0.0,0.0,0.0,0,
2020-03-18,0.0,0.0,0.0,0,
2020-03-19,0.0,0.0,0.0,0,
2020-03-20,0.0,0.0,0.0,0,
2020-03-22,0.0,0.0,0.0,0,
2020-03-23,0.0,0.0,0.0,0,
2020-03-24,0.0,0.0,0.0,0,
2020-03-25,0.0,0.0,0.0,0,
2020-03-26,0.0,0.0,0.0,0,
2020-03-27,0.0,0.0,0.0,0,
2020-03-29,0.0,0.0,0.0,0,
2020-03-30,0.0,0.0,0.0,0,
2020-03-31,0.0,0.0,0.0,0,
2020-04-01,0.0,0.0,0.0,0,
2020-04-02,0.0,0.0,0.0,0,
2020-04-03,0.0,0.0,0.0,0,
2020-04-05,0.0,0.0,0.0,0,
2020-04-06,0.0,0.0,0.0,0,
2020-04-07,0.0,0.0,0.0,0,
2020-04-08,0.0,0.0,0.0,0,
2020-04-09,0.0,0.0,0.0,0,
2020-04-12,0.0,0.0,0.0,0,
2020-04-13,0.0,0.0,0.0,0,
2020-04-14,0.0,0.0,0.0,0,
2020-04-15,0.0,0.0,0.0,0,
2020-04-16,0.0,0.0,0.0,0,
2020-04-17,0.0,0.0,0.0,0,
2020-04-19,0.0,0.0,0.0,0,
2020-04-20,0.0,0.0,0.0,0,
2020-04-21,0.0,0.0,0.0,0,
2020-04-22,0.0,0.0,0.0,0,
2020-04-23,0.0,0.0,0.0,0,
2020-04-24,0.0,0.0,0.0,0,
2020-04-26,0.0,0.0,0.0,0,
2020-04-27,0.0,0.0,0.0,0,
2020-04-28,0.0,0.0,0.0,0,
2020-04-29,0.0,0.0,0.0,0,
2020-04-30,0.0,0.0,0.0,0,
2020-05-01,0.0,0.0,0.0,0,
2020-05-03,0.0,0.0,0.0,0,
2020-05-04,0.0,0.0,0.0,0,
2020-05-05,0.0,0.0,0.0,0,
2020-05-06,0.0,0.0,0.0,0,
2020-05-07,0.0,0.0,0.0,0,
2020-05-08,0.0,0.0,0.0,0,
2020-05-10,0.0,0.0,0.0,0,
2020-05-11,0.0,0.0,0.0,0,
2020-05-12,0.0,0.0,0.0,0,
2020-05-13,0.0,0.0,0.0,0,
2020-05-14,0.0,0.0,0.0,0,
2020-05-15,0.0,0.0,0.0,0,
2020-05-17,0.0,0.0,0.0,0,
2020-05-18,0.0,0.0,0.0,0,
2020-05-19,0.0,0.0,0.0,0,
2020-05-20,0.0,0.0,0.0,0,
2020-05-21,0.0,0.0,0.0,0,
2020-05-22,0.0,0.0,0.0,0,
2020-05-24,0.0,0.0,0.0,0,
2020-05-25,0.0,0.0,0.0,0,
2020-05-26,0.0,0.0,0.0,0,
2020-05-27,0.0,0.0,0.0,0,
2020-05-28,0.0,0.0,0.0,0,
2020-05-29,0.0,0.0,0.0,0,
2020-05-31,0.0,0.0,0.0,0,
2020-06-01,0.0,0.0,0.0,0,
2020-06-02,0.0,0.0,0.0,0,
2020-06-03,0.0,0.0,0.0,0,
2020-06-04,0.0,0.0,0.0,0,
2020-06-05,0.0,0.0,0.0,0,
2020-06-07,0.0,0.0,0.0,0,
2020-06-08,0.0,0.0,0.0,0,
2020-06-09,0.0,0.0,0.0,0,
2020-06-10,0.0,0.0,0.0,0,
2020-06-11,0.0,0.0,0.0,0,
2020-06-12,0.0,0.0,0.0,0,
2020-06-14,0.0,0.0,0.0,0,
2020-06-15,0.0,0.0,0.0,0,
2020-06-16,0.0,0.0,0.0,0,
2020-06-17,0.0,0.0,0.0,0,
2020-06-18,0.0,0.0,0.0,0,
2020-06-19,0.0,0.0,0.0,0,
2020-06-21,0.0,0.0,0.0,0,
2020-06-22,0.0,0.0,0.0,0,
2020-06-23,0.0,0.0,0.0,0,
2020-06-24,0.0,0.0,0.0,0,
2020-06-25,0.0,0.0,0.0,0,
2020-06-26,0.0,0.0,0.0,0,
2020-06-28,0.0,0.0,0.0,0,
2020-06-29,0.0,0.0,0.0,0,
2020-06-30,0.0,0.0,0.0,0,
2020-07-01,0.0,0.0,0.0,0,
2020-07-02,0.0,0.0,0.0,0,
2020-07-03,0.0,0.0,0.0,0,
2020-07-05,0.0,0.0,0.0,0,
2020-07-06,0.0,0.0,0.0,0,
2020-07-07,0.0,0.0,0.0,0,
2020-07-08,0.0,0.0,0.0,0,
2020-07-09,0.0,0.0,0.0,0,
2020-07-10,0.0,0.0,0.0,0,
2020-07-12,0.0,0.0,0.0,0,
2020-07-13,0.0,0.0,0.0,0,
2020-07-14,0.0,0.0,0.0,0,
2020-07-15,0.0,0.0,0.0,0,
2020-07-16,0.0,0.0,0.0,0,
2020-07-17,0.0,0.0,0.0,0,
2020-07-19,0.0,0.0,0.0,0,
2020-07-20,0.0,0.0,0.0,0,
2020-07-21,0.0,0.0,0.0,0,
2020-07-22,0.0,0.0,0.0,0,
2020-07-23,0.0,0.0,0.0,0,
2020-07-24,0.0,0.0,0.0,0,
2020-07-26,0.0,0.0,0.0,0,
2020-07-27,0.0,0.0,0.0,0,
2020-07-28,0.0,0.0,0.0,0,
2020-07-29,0.0,0.0,0.0,0,
2020-07-30,0.0,0.0,0.0,0,
2020-07-31,0.0,0.0,0.0,0,
2020-08-02,0.0,0.0,0.0,0,
2020-08-03,0.0,0.0,0.0,0,
2020-08-04,0.0,0.0,0.0,0,
2020-08-05,0.0,0.0,0.0,0,
2020-08-06,0.0,0.0,0.0,0,
2020-08-07,0.0,0.0,0.0,0,
2020-08-09,0.0,0.0,0.0,0,
2020-08-10,0.0,0.0,0.0,0,
2020-08-11,0.0,0.0,0.0,0,
2020-08-12,0.0,0.0,0.0,0,
2020-08-13,0.0,0.0,0.0,0,
2020-08-14,0.0,0.0,0.0,0,
2020-08-16,0.0,0.0,0.0,0,
2020-08-17,0.0,0.0,0.0,0,
2020-08-18,0.0,0.0,0.0,0,
2020-08-19,0.0,0.0,0.0,0,
2020-08-20,0.0,0.0,0.0,0,
2020-08-21,0.0,0.0,0.0,0,
2020-08-23,0.0,0.0,0.0,0,
2020-08-24,0.0,0.0,0.0,0,
2020-08-25,0.0,0.0,0.0,0,
2020-08-26,0.0,0.0,0.0,0,
2020-08-27,0.0,0.0,0.0,0,
2020-08-28,0.0,0.0,0.0,0,
2020-08-30,0.0,0.0,0.0,0,
2020-08-31,0.0,0.0,0.0,0,
2020-09-01,0.0,0.0,0.0,0,
2020-09-02,0.0,0.0,0.0,0,
2020-09-03,0.0,0.0,0.0,0,
2020-09-04,0.0,0.0,0.0,0,
2020-09-06,0.0,0.0,0.0,0,
2020-09-07,0.0,0.0,0.0,0,
2020-09-08,0.0,0.0,0.0,0,
2020-09-09,0.0,0.0,0.0,0,
2020-09-10,0.0,0.0,0.0,0,
2020-09-11,0.0,0.0,0.0,0,
2020-09-13,0.0,0.0,0.0,0,
2020-09-14,0.0,0.0,0.0,0,
2020-09-15,0.0,0.0,0.0,0,
2020-09-16,0.0,0.0,0.0,0,
2020-09-17,0.0,0.0,0.0,0,
2020-09-18,0.0,0.0,0.0,0,
2020-09-20,0.0,0.0,0.0,0,
2020-09-21,0.0,0.0,0.0,0,
2020-09-22,0.0,0.0,0.0,0,
2020-09-23,0.0,0.0,0.0,0,
2020-09-24,0.0,0.0,0.0,0,
2020-09-25,0.0,0.0,0.0,0,
2020-09-27,0.0,0.0,0.0,0,
2020-09-28,0.0,0.0,0.0,0,
2020-09-29,0.0,0.0,0.0,0,
2020-09-30,0.0,0.0,0.0,0,
2020-10-01,0.0,0.0,0.0,0,
2020-10-02,0.0,0.0,0.0,0,
2020-10-04,0.0,0.0,0.0,0,
2020-10-05,0.0,0.0,0.0,0,
2020-10-06,0.0,0.0,0.0,0,
2020-10-07,0.0,0.0,0.0,0,
2020-10-08,0.0,0.0,0.0,0,
2020-10-09,0.0,0.0,0.0,0,
2020-10-11,0.0,0.0,0.0,0,
2020-10-12,0.0,1097.25,1097.25,3,Long
2020-10-13,0.0,1113.75,1113.75,3,Long
2020-10-14,0.0,652.5,652.5,3,Long
2020-10-15,0.0,516.0,516.0,3,Long
2020-10-16,0.0,149.25,149.25,3,Long
2020-10-18,0.0,388.5,388.5,3,Long
2020-10-19,0.0,-85.5,-85.5,3,Long
2020-10-20,-84.75,0.0,-84.75,0,
2020-10-21,-84.75,0.0,-84.75,0,
2020-10-22,-84.75,0.0,-84.75,0,
2020-10-23,-84.75,0.0,-84.75,0,
2020-10-25,-84.75,0.0,-84.75,0,
2020-10-26,-84.75,0.0,-84.75,0,
2020-10-27,-84.75,0.0,-84.75,0,
2020-10-28,-84.75,0.0,-84.75,0,
2020-10-29,-84.75,0.0,-84.75,0,
2020-10-30,-84.75,0.0,-84.75,0,
2020-11-01,-84.75,0.0,-84.75,0,
2020-11-02,-84.75,0.0,-84.75,0,
2020-11-03,-84.75,0.0,-84.75,0,
2020-11-04,-84.75,0.0,-84.75,0,
2020-11-05,-84.75,816.75,732.0,3,Long
2020-11-06,-84.75,900.75,816.0,3,Long
2020-11-08,-84.75,1314.0,1229.25,3,Long
2020-11-09,-84.75,179.25,94.5,3,Long
2020-11-10,-84.75,-591.0,-675.75,3,Long
2020-11-11,-677.25,0.0,-677.25,0,
2020-11-12,-677.25,-132.75,-810.0,3,Long
2020-11-13,-677.25,151.5,-525.75,3,Long
2020-11-15,-677.25,449.25,-228.0,3,Long
2020-11-16,-677.25,459.0,-218.25,3,Long
2020-11-17,-677.25,250.5,-426.75,3,Long
2020-11-18,-677.25,-45.75,-723.0,3,Long
2020-11-19,-677.25,125.25,-552.0,3,Long
2020-11-20,-677.25,10.0,-667.25,4,Long
2020-11-22,-677.25,91.0,-586.25,4,Long
2020-11-23,-677.25,173.0,-504.25,4,Long
2020-11-24,-677.25,870.0,192.75,4,Long
2020-11-25,-677.25,1084.0,406.75,4,Long
2020-11-26,-677.25,984.0,306.75,4,Long
2020-11-27,-677.25,1460.0,782.75,4,Long
2020-11-29,-677.25,1633.0,955.75,4,Long
2020-11-30,-677.25,1761.0,1083.75,4,Long
2020-12-01,-677.25,2169.0,1491.75,4,Long
2020-12-02,-677.25,2230.0,1552.75,4,Long
2020-12-03,-677.25,2306.0,1628.75,4,Long
2020-12-04,-677.25,2407.0,1729.75,5,Long
2020-12-06,-677.25,2579.5,1902.25,5,Long
2020-12-07,-677.25,2732.0,2054.75,5,Long
2020-12-08,-677.25,3092.0,2414.75,5,Long
2020-12-09,-677.25,1672.0,994.75,5,Long
2020-12-10,-677.25,1872.0,1194.75,5,Long
2020-12-11,-677.25,1688.25,1011.0,5,Long
2020-12-13,-677.25,1938.25,1261.0,5,Long
2020-12-14,-677.25,2253.25,1576.0,5,Long
2020-12-15,-677.25,2830.75,2153.5,5,Long
2020-12-16,-677.25,3269.5,2592.25,5,Long
2020-12-17,-677.25,3605.75,2928.5,5,Long
2020-12-18,-677.25,3707.0,3029.75,6,Long
2020-12-20,-677.25,3711.5,3034.25,6,Long
2020-12-21,-677.25,3425.0,2747.75,6,Long
2020-12-22,-677.25,3539.0,2861.75,6,Long
2020-12-23,-677.25,3146.0,2468.75,6,Long
2020-12-24,-677.25,3441.5,2764.25,6,Long
2020-12-27,-677.25,3623.0,2945.75,6,Long
2020-12-28,-677.25,4328.0,3650.75,6,Long
2020-12-29,-677.25,4284.5,3607.25,6,Long
2020-12-30,-677.25,4308.5,3631.25,6,Long
2020-12-31,-677.25,4523.0,3845.75,6,Long
2021-01-03,-677.25,4400.0,3722.75,6,Long
2021-01-04,-677.25,3266.0,2588.75,6,Long
2021-01-05,-677.25,3986.0,3308.75,6,Long
2021-01-06,-677.25,3254.0,2576.75,6,Long
2021-01-07,-677.25,4847.0,4169.75,6,Long
2021-01-08,-677.25,5964.5,5287.25,6,Long
2021-01-10,-677.25,5712.5,5035.25,6,Long
2021-01-11,-677.25,4749.5,4072.25,6,Long
2021-01-12,-677.25,4598.0,3920.75,6,Long
2021-01-13,-677.25,5037.5,4360.25,6,Long
2021-01-14,-677.25,4719.5,4042.25,6,Long
2021-01-15,-677.25,3753.5,3076.25,7,Long
2021-01-17,-677.25,3629.25,2952.0,7,Long
2021-01-18,-677.25,4227.75,3550.5,7,Long
2021-01-19,-677.25,5755.5,5078.25,7,Long
2021-01-20,-677.25,7608.75,6931.5,7,Long
2021-01-21,-677.25,8093.5,7416.25,7,Long
2021-01-22,-677.25,7869.5,7192.25,7,Long
2021-01-24,-677.25,8193.25,7516.0,7,Long
2021-01-25,-677.25,8641.25,7964.0,7,Long
2021-01-26,-677.25,9322.0,8644.75,7,Long
2021-01-27,-677.25,5253.25,4576.0,7,Long
2021-01-28,-677.25,6364.5,5687.25,7,Long
2021-01-29,5689.0,0.0,5689.0,0,
2021-01-31,5689.0,0.0,5689.0,0,
2021-02-01,5689.0,0.0,5689.0,0,
2021-02-02,5689.0,0.0,5689.0,0,
2021-02-03,5689.0,0.0,5689.0,0,
2021-02-04,5689.0,0.0,5689.0,0,
2021-02-05,5689.0,0.0,5689.0,0,
2021-02-07,5689.0,0.0,5689.0,0,
2021-02-08,5689.0,0.0,5689.0,0,
2021-02-09,5689.0,0.0,5689.0,0,
2021-02-10,5689.0,0.0,5689.0,0,
2021-02-11,5689.0,0.0,5689.0,0,
2021-02-12,5689.0,0.0,5689.0,0,
2021-02-14,5689.0,0.0,5689.0,0,
2021-02-15,5689.0,0.0,5689.0,0,
2021-02-16,5689.0,0.0,5689.0,0,
2021-02-17,5689.0,0.0,5689.0,0,
2021-02-18,5689.0,0.0,5689.0,0,
2021-02-19,5689.0,0.0,5689.0,0,
2021-02-21,5689.0,0.0,5689.0,0,
2021-02-22,5689.0,0.0,5689.0,0,
2021-02-23,5689.0,0.0,5689.0,0,
2021-02-24,5689.0,0.0,5689.0,0,
2021-02-25,5689.0,0.0,5689.0,0,
2021-02-26,5689.0,0.0,5689.0,0,
2021-02-28,5689.0,0.0,5689.0,0,
2021-03-01,5689.0,0.0,5689.0,0,
2021-03-02,5689.0,0.0,5689.0,0,
2021-03-03,5689.0,0.0,5689.0,0,
2021-03-04,5689.0,0.0,5689.0,0,
2021-03-05,5689.0,0.0,5689.0,0,
2021-03-07,5689.0,0.0,5689.0,0,
2021-03-08,5689.0,0.0,5689.0,0,
2021-03-09,5689.0,0.0,5689.0,0,
2021-03-10,5689.0,0.0,5689.0,0,
2021-03-11,5689.0,0.0,5689.0,0,
2021-03-12,5689.0,0.0,5689.0,0,
2021-03-14,5689.0,0.0,5689.0,0,
2021-03-15,5689.0,0.0,5689.0,0,
2021-03-16,5689.0,0.0,5689.0,0,
2021-03-17,5689.0,0.0,5689.0,0,
2021-03-18,5689.0,0.0,5689.0,0,
2021-03-19,5689.0,0.0,5689.0,0,
2021-03-21,5689.0,0.0,5689.0,0,
2021-03-22,5689.0,0.0,5689.0,0,
2021-03-23,5689.0,0.0,5689.0,0,
2021-03-24,5689.0,0.0,5689.0,0,
2021-03-25,5689.0,0.0,5689.0,0,
2021-03-26,5689.0,0.0,5689.0,0,
2021-03-28,5689.0,0.0,5689.0,0,
2021-03-29,5689.0,0.0,5689.0,0,
2021-03-30,5689.0,0.0,5689.0,0,
2021-03-31,5689.0,0.0,5689.0,0,
2021-04-01,5689.0,0.0,5689.0,0,
2021-04-02,5689.0,0.0,5689.0,0,
2021-04-04,5689.0,0.0,5689.0,0,
2021-04-05,5689.0,0.0,5689.0,0,
2021-04-06,5689.0,0.0,5689.0,0,
2021-04-07,5689.0,0.0,5689.0,0,
2021-04-08,5689.0,0.0,5689.0,0,
2021-04-09,5689.0,0.0,5689.0,0,
2021-04-11,5689.0,0.0,5689.0,0,
2021-04-12,5689.0,0.0,5689.0,0,
2021-04-13,5689.0,0.0,5689.0,0,
2021-04-14,5689.0,0.0,5689.0,0,
2021-04-15,5689.0,0.0,5689.0,0,
2021-04-16,5689.0,0.0,5689.0,0,
2021-04-18,5689.0,0.0,5689.0,0,
2021-04-19,5689.0,0.0,5689.0,0,
2021-04-20,5689.0,0.0,5689.0,0,
2021-04-21,5689.0,0.0,5689.0,0,
2021-04-22,5689.0,0.0,5689.0,0,
2021-04-23,5689.0,0.0,5689.0,0,
2021-04-25,5689.0,0.0,5689.0,0,
2021-04-26,5689.0,0.0,5689.0,0,
2021-04-27,5689.0,0.0,5689.0,0,
2021-04-28,5689.0,0.0,5689.0,0,
2021-04-29,5689.0,0.0,5689.0,0,
2021-04-30,5689.0,0.0,5689.0,0,
2021-05-02,5689.0,0.0,5689.0,0,
2021-05-03,5689.0,0.0,5689.0,0,
2021-05-04,5689.0,0.0,5689.0,0,
2021-05-05,5689.0,0.0,5689.0,0,
2021-05-06,5689.0,0.0,5689.0,0,
2021-05-07,5689.0,0.0,5689.0,0,
2021-05-09,5689.0,0.0,5689.0,0,
2021-05-10,5689.0,0.0,5689.0,0,
2021-05-11,5689.0,0.0,5689.0,0,
2021-05-12,5689.0,0.0,5689.0,0,
2021-05-13,5689.0,0.0,5689.0,0,
2021-05-14,5689.0,0.0,5689.0,0,
2021-05-16,5689.0,0.0,5689.0,0,
2021-05-17,5689.0,0.0,5689.0,0,
2021-05-18,5689.0,0.0,5689.0,0,
2021-05-19,5689.0,0.0,5689.0,0,
2021-05-20,5689.0,0.0,5689.0,0,
2021-05-21,5689.0,0.0,5689.0,0,
2021-05-23,5689.0,0.0,5689.0,0,
2021-05-24,5689.0,0.0,5689.0,0,
2021-05-25,5689.0,0.0,5689.0,0,
2021-05-26,5689.0,0.0,5689.0,0,
2021-05-27,5689.0,0.0,5689.0,0,
2021-05-28,5689.0,0.0,5689.0,0,
2021-05-30,5689.0,0.0,5689.0,0,
2021-05-31,5689.0,0.0,5689.0,0,
2021-06-01,5689.0,0.0,5689.0,0,
2021-06-02,5689.0,0.0,5689.0,0,
2021-06-03,5689.0,0.0,5689.0,0,
2021-06-04,5689.0,0.0,5689.0,0,
2021-06-06,5689.0,-13.5,5675.5,3,Long
2021-06-07,5674.75,0.0,5674.75,0,
2021-06-08,5674.75,-16.5,5658.25,3,Long
2021-06-09,5674.75,-22.5,5652.25,3,Long
2021-06-10,5674.75,435.75,6110.5,3,Long
2021-06-11,5674.75,486.75,6161.5,3,Long
2021-06-13,5674.75,561.0,6235.75,3,Long
2021-06-14,5674.75,851.25,6526.0,3,Long
2021-06-15,5674.75,626.25,6301.0,3,Long
2021-06-16,5674.75,192.0,5866.75,3,Long
2021-06-17,5674.75,1059.0,6733.75,3,Long
2021-06-18,5674.75,541.5,6216.25,4,Long
2021-06-20,5674.75,622.5,6297.25,4,Long
2021-06-21,5674.75,1009.5,6684.25,4,Long
2021-06-22,5674.75,1559.5,7234.25,4,Long
2021-06-23,5674.75,1614.5,7289.25,4,Long
2021-06-24,5674.75,1855.5,7530.25,4,Long
2021-06-25,5674.75,1794.5,7469.25,4,Long
2021-06-27,5674.75,1888.5,7563.25,4,Long
2021-06-28,5674.75,2436.5,8111.25,4,Long
2021-06-29,5674.75,2820.5,8495.25,4,Long
2021-06-30,5674.75,2711.5,8386.25,4,Long
2021-07-01,5674.75,2601.5,8276.25,4,Long
2021-07-02,5674.75,3256.5,8931.25,5,Long
2021-07-04,5674.75,3326.5,9001.25,5,Long
2021-07-05,5674.75,3325.25,9000.0,5,Long
2021-07-06,5674.75,3577.75,9252.5,5,Long
2021-07-07,5674.75,3805.25,9480.0,5,Long
2021-07-08,5674.75,3214.0,8888.75,5,Long
2021-07-09,5674.75,3826.5,9501.25,5,Long
2021-07-11,5674.75,3901.5,9576.25,5,Long
2021-07-12,5674.75,4152.75,9827.5,5,Long
2021-07-13,5674.75,3979.0,9653.75,5,Long
2021-07-14,5674.75,4275.25,9950.0,5,Long
2021-07-15,5674.75,3539.0,9213.75,5,Long
2021-07-16,5674.75,3116.5,8791.25,6,Long
2021-07-18,5674.75,2951.5,8626.25,6,Long
2021-07-19,5674.75,2632.0,8306.75,6,Long
2021-07-20,5674.75,3553.0,9227.75,6,Long
2021-07-21,5674.75,4108.0,9782.75,6,Long
2021-07-22,5674.75,4919.5,10594.25,6,Long
2021-07-23,5674.75,5650.0,11324.75,6,Long
2021-07-25,5674.75,5821.0,11495.75,6,Long
2021-07-26,5674.75,5764.0,11438.75,6,Long
2021-07-27,5674.75,4616.5,10291.25,6,Long
2021-07-28,5674.75,5024.5,10699.25,6,Long
2021-07-29,5674.75,4315.0,9989.75,6,Long
2021-07-30,5674.75,4918.5,10593.25,7,Long
2021-08-01,5674.75,5160.0,10834.75,7,Long
2021-08-02,5674.75,4876.5,10551.25,7,Long
2021-08-03,5674.75,5364.75,11039.5,7,Long
2021-08-04,5674.75,5734.0,11408.75,7,Long
2021-08-05,5674.75,6271.25,11946.0,7,Long
2021-08-06,5674.75,5797.0,11471.75,7,Long
2021-08-08,5674.75,5301.75,10976.5,7,Long
2021-08-09,5674.75,5979.0,11653.75,7,Long
2021-08-10,5674.75,5396.25,11071.0,7,Long
2021-08-11,5674.75,5118.0,10792.75,7,Long
2021-08-12,5674.75,5622.0,11296.75,7,Long
2021-08-13,5674.75,6022.0,11696.75,8,Long
2021-08-15,5674.75,5944.0,11618.75,8,Long
2021-08-16,5674.75,6076.0,11750.75,8,Long
2021-08-17,5674.75,4688.0,10362.75,8,Long
2021-08-18,5674.75,3796.0,9470.75,8,Long
2021-08-19,5674.75,4366.0,10040.75,8,Long
2021-08-20,5674.75,5792.0,11466.75,8,Long
2021-08-22,5674.75,5890.0,11564.75,8,Long
2021-08-23,5674.75,7668.0,13342.75,8,Long
2021-08-24,5674.75,7894.0,13568.75,8,Long
2021-08-25,5674.75,7926.0,13600.75,8,Long
2021-08-26,5674.75,7258.0,12932.75,8,Long
2021-08-27,5674.75,8451.25,14126.0,9,Long
2021-08-29,5674.75,8671.75,14346.5,9,Long
2021-08-30,5674.75,9983.5,15658.25,9,Long
2021-08-31,5674.75,9972.25,15647.0,9,Long
2021-09-01,5674.75,10165.75,15840.5,9,Long
2021-09-02,5674.75,9972.25,15647.0,9,Long
2021-09-03,5674.75,10480.75,16155.5,9,Long
2021-09-05,5674.75,10451.5,16126.25,9,Long
2021-09-06,5674.75,10802.5,16477.25,9,Long
2021-09-07,5674.75,10557.25,16232.0,9,Long
2021-09-08,5674.75,9999.25,15674.0,9,Long
2021-09-09,5674.75,9675.25,15350.0,9,Long
2021-09-10,5674.75,8532.0,14206.75,10,Long
2021-09-12,5674.75,8999.5,14674.25,10,Long
2021-09-13,5674.75,8607.0,14281.75,10,Long
2021-09-14,5674.75,8224.5,13899.25,10,Long
2021-09-15,5674.75,9172.0,14846.75,10,Long
2021-09-16,5674.75,8969.5,14644.25,10,Long
2021-09-17,14644.25,0.0,14644.25,0,
2021-09-19,14644.25,0.0,14644.25,0,
2021-09-20,14644.25,0.0,14644.25,0,
2021-09-21,14644.25,0.0,14644.25,0,
2021-09-22,14644.25,0.0,14644.25,0,
2021-09-23,14644.25,0.0,14644.25,0,
2021-09-24,14644.25,0.0,14644.25,0,
2021-09-26,14644.25,0.0,14644.25,0,
2021-09-27,14644.25,0.0,14644.25,0,
2021-09-28,14644.25,0.0,14644.25,0,
2021-09-29,14644.25,0.0,14644.25,0,
2021-09-30,14644.25,0.0,14644.25,0,
2021-10-01,14644.25,0.0,14644.25,0,
2021-10-03,14644.25,0.0,14644.25,0,
2021-10-04,14644.25,0.0,14644.25,0,
2021-10-05,14644.25,0.0,14644.25,0,
2021-10-06,14644.25,0.0,14644.25,0,
2021-10-07,14644.25,0.0,14644.25,0,
2021-10-08,14644.25,0.0,14644.25,0,
2021-10-10,14644.25,0.0,14644.25,0,
2021-10-11,14644.25,0.0,14644.25,0,
2021-10-12,14644.25,0.0,14644.25,0,
2021-10-13,14644.25,0.0,14644.25,0,
2021-10-14,14644.25,0.0,14644.25,0,
2021-10-15,14644.25,0.0,14644.25,0,
2021-10-17,14644.25,0.0,14644.25,0,
2021-10-18,14644.25,0.0,14644.25,0,
2021-10-19,14644.25,351.0,14995.25,3,Long
2021-10-20,14644.25,129.0,14773.25,3,Long
2021-10-21,14644.25,298.5,14942.75,3,Long
2021-10-22,14644.25,95.25,14739.5,3,Long
2021-10-24,14644.25,42.0,14686.25,3,Long
2021-10-25,14644.25,740.25,15384.5,3,Long
2021-10-26,14644.25,803.25,15447.5,3,Long
2021-10-27,14644.25,1002.0,15646.25,3,Long
2021-10-28,14644.25,1140.0,15784.25,3,Long
2021-10-29,14644.25,1798.0,16442.25,4,Long
2021-10-31,14644.25,1844.0,16488.25,4,Long
2021-11-01,14644.25,1827.0,16471.25,4,Long
2021-11-02,14644.25,2093.0,16737.25,4,Long
2021-11-03,14644.25,3066.0,17710.25,4,Long
2021-11-04,14644.25,3683.0,18327.25,4,Long
2021-11-05,14644.25,3695.0,18339.25,4,Long
2021-11-07,14644.25,3571.0,18215.25,4,Long
2021-11-08,14644.25,3565.0,18209.25,4,Long
2021-11-09,14644.25,3065.0,17709.25,4,Long
2021-11-10,14644.25,2284.0,16928.25,4,Long
2021-11-11,14644.25,2580.0,17224.25,4,Long
2021-11-12,14644.25,3149.5,17793.75,5,Long
2021-11-14,14644.25,3272.0,17916.25,5,Long
2021-11-15,14644.25,3089.5,17733.75,5,Long
2021-11-16,14644.25,3667.0,18311.25,5,Long
2021-11-17,14644.25,3788.25,18432.5,5,Long
2021-11-18,14644.25,4620.75,19265.0,5,Long
2021-11-19,14644.25,5082.0,19726.25,5,Long
2021-11-21,14644.25,5084.5,19728.75,5,Long
2021-11-22,14644.25,4124.5,18768.75,5,Long
2021-11-23,14644.25,3573.25,18217.5,5,Long
2021-11-24,14644.25,3929.5,18573.75,5,Long
2021-11-25,14644.25,3995.75,18640.0,5,Long
2021-11-26,18636.25,0.0,18636.25,0,
2021-11-28,18636.25,0.0,18636.25,0,
2021-11-29,18636.25,0.0,18636.25,0,
2021-11-30,18636.25,0.0,18636.25,0,
2021-12-01,18636.25,0.0,18636.25,0,
2021-12-02,18636.25,0.0,18636.25,0,
2021-12-03,18636.25,0.0,18636.25,0,
2021-12-05,18636.25,0.0,18636.25,0,
2021-12-06,18636.25,0.0,18636.25,0,
2021-12-07,18636.25,0.0,18636.25,0,
2021-12-08,18636.25,0.0,18636.25,0,
2021-12-09,18636.25,0.0,18636.25,0,
2021-12-10,18636.25,0.0,18636.25,0,
2021-12-12,18636.25,0.0,18636.25,0,
2021-12-13,18636.25,0.0,18636.25,0,
2021-12-14,18636.25,0.0,18636.25,0,
2021-12-15,18636.25,0.0,18636.25,0,
2021-12-16,18636.25,0.0,18636.25,0,
2021-12-17,18636.25,0.0,18636.25,0,
2021-12-19,18636.25,0.0,18636.25,0,
2021-12-20,18636.25,0.0,18636.25,0,
2021-12-21,18636.25,0.0,18636.25,0,
2021-12-22,18636.25,0.0,18636.25,0,
2021-12-23,18636.25,0.0,18636.25,0,
2021-12-26,18636.25,0.0,18636.25,0,
2021-12-27,18636.25,0.0,18636.25,0,
2021-12-28,18636.25,-47.25,18589.0,3,Long
2021-12-29,18587.5,0.0,18587.5,0,
2021-12-30,18587.5,0.0,18587.5,0,
2021-12-31,18587.5,0.0,18587.5,0,
2022-01-02,18587.5,0.0,18587.5,0,
2022-01-03,18587.5,0.0,18587.5,0,
2022-01-04,18587.5,0.0,18587.5,0,
2022-01-05,18587.5,0.0,18587.5,0,
2022-01-06,18587.5,0.0,18587.5,0,
2022-01-07,18587.5,0.0,18587.5,0,
2022-01-09,18587.5,0.0,18587.5,0,
2022-01-10,18587.5,0.0,18587.5,0,
2022-01-11,18587.5,0.0,18587.5,0,
2022-01-12,18587.5,0.0,18587.5,0,
2022-01-13,18587.5,0.0,18587.5,0,
2022-01-14,18587.5,0.0,18587.5,0,
2022-01-16,18587.5,0.0,18587.5,0,
2022-01-17,18587.5,0.0,18587.5,0,
2022-01-18,18587.5,0.0,18587.5,0,
2022-01-19,18587.5,0.0,18587.5,0,
2022-01-20,18587.5,0.0,18587.5,0,
2022-01-21,18587.5,0.0,18587.5,0,
2022-01-23,18587.5,0.0,18587.5,0,
2022-01-24,18587.5,0.0,18587.5,0,
2022-01-25,18587.5,0.0,18587.5,0,
2022-01-26,18587.5,0.0,18587.5,0,
2022-01-27,18587.5,0.0,18587.5,0,
2022-01-28,18587.5,0.0,18587.5,0,
2022-01-30,18587.5,0.0,18587.5,0,
2022-01-31,18587.5,0.0,18587.5,0,
2022-02-01,18587.5,0.0,18587.5,0,
2022-02-02,18587.5,0.0,18587.5,0,
2022-02-03,18587.5,0.0,18587.5,0,
2022-02-04,18587.5,0.0,18587.5,0,
2022-02-06,18587.5,0.0,18587.5,0,
2022-02-07,18587.5,0.0,18587.5,0,
2022-02-08,18587.5,0.0,18587.5,0,
2022-02-09,18587.5,0.0,18587.5,0,
2022-02-10,18587.5,0.0,18587.5,0,
2022-02-11,18587.5,0.0,18587.5,0,
2022-02-13,18587.5,0.0,18587.5,0,
2022-02-14,18587.5,0.0,18587.5,0,
2022-02-15,18587.5,0.0,18587.5,0,
2022-02-16,18587.5,0.0,18587.5,0,
2022-02-17,18587.5,0.0,18587.5,0,
2022-02-18,18587.5,0.0,18587.5,0,
2022-02-20,18587.5,0.0,18587.5,0,
2022-02-21,18587.5,0.0,18587.5,0,
2022-02-22,18587.5,0.0,18587.5,0,
2022-02-23,18587.5,0.0,18587.5,0,
2022-02-24,18587.5,0.0,18587.5,0,
2022-02-25,18587.5,0.0,18587.5,0,
2022-02-27,18587.5,0.0,18587.5,0,
2022-02-28,18587.5,0.0,18587.5,0,
2022-03-01,18587.5,0.0,18587.5,0,
2022-03-02,18587.5,0.0,18587.5,0,
2022-03-03,18587.5,0.0,18587.5,0,
2022-03-04,18587.5,0.0,18587.5,0,
2022-03-06,18587.5,0.0,18587.5,0,
2022-03-07,18587.5,0.0,18587.5,0,
2022-03-08,18587.5,0.0,18587.5,0,
2022-03-09,18587.5,0.0,18587.5,0,
2022-03-10,18587.5,0.0,18587.5,0,
2022-03-11,18587.5,0.0,18587.5,0,
2022-03-13,18587.5,0.0,18587.5,0,
2022-03-14,18587.5,0.0,18587.5,0,
2022-03-15,18587.5,0.0,18587.5,0,
2022-03-16,18587.5,0.0,18587.5,0,
2022-03-17,18587.5,0.0,18587.5,0,
2022-03-18,18587.5,0.0,18587.5,0,
2022-03-20,18587.5,0.0,18587.5,0,
2022-03-21,18587.5,0.0,18587.5,0,
2022-03-22,18587.5,0.0,18587.5,0,
2022-03-23,18587.5,0.0,18587.5,0,
2022-03-24,18587.5,0.0,18587.5,0,
2022-03-25,18587.5,0.0,18587.5,0,
2022-03-27,18587.5,0.0,18587.5,0,
2022-03-28,18587.5,0.0,18587.5,0,
2022-03-29,18587.5,0.0,18587.5,0,
2022-03-30,18587.5,0.0,18587.5,0,
2022-03-31,18587.5,0.0,18587.5,0,
2022-04-01,18587.5,0.0,18587.5,0,
2022-04-03,18587.5,0.0,18587.5,0,
2022-04-04,18587.5,0.0,18587.5,0,
2022-04-05,18587.5,0.0,18587.5,0,
2022-04-06,18587.5,0.0,18587.5,0,
2022-04-07,18587.5,0.0,18587.5,0,
2022-04-08,18587.5,0.0,18587.5,0,
2022-04-10,18587.5,0.0,18587.5,0,
2022-04-11,18587.5,0.0,18587.5,0,
2022-04-12,18587.5,0.0,18587.5,0,
2022-04-13,18587.5,0.0,18587.5,0,
2022-04-14,18587.5,0.0,18587.5,0,
2022-04-17,18587.5,0.0,18587.5,0,
2022-04-18,18587.5,0.0,18587.5,0,
2022-04-19,18587.5,0.0,18587.5,0,
2022-04-20,18587.5,0.0,18587.5,0,
2022-04-21,18587.5,0.0,18587.5,0,
2022-04-22,18587.5,0.0,18587.5,0,
2022-04-24,18587.5,0.0,18587.5,0,
2022-04-25,18587.5,0.0,18587.5,0,
2022-04-26,18587.5,0.0,18587.5,0,
2022-04-27,18587.5,0.0,18587.5,0,
2022-04-28,18587.5,0.0,18587.5,0,
2022-04-29,18587.5,0.0,18587.5,0,
2022-05-01,18587.5,0.0,18587.5,0,
2022-05-02,18587.5,0.0,18587.5,0,
2022-05-03,18587.5,0.0,18587.5,0,
2022-05-04,18587.5,0.0,18587.5,0,
2022-05-05,18587.5,0.0,18587.5,0,
2022-05-06,18587.5,0.0,18587.5,0,
2022-05-08,18587.5,0.0,18587.5,0,
2022-05-09,18587.5,0.0,18587.5,0,
2022-05-10,18587.5,0.0,18587.5,0,
2022-05-11,18587.5,0.0,18587.5,0,
2022-05-12,18587.5,0.0,18587.5,0,
2022-05-13,18587.5,0.0,18587.5,0,
2022-05-15,18587.5,0.0,18587.5,0,
2022-05-16,18587.5,0.0,18587.5,0,
2022-05-17,18587.5,0.0,18587.5,0,
2022-05-18,18587.5,0.0,18587.5,0,
2022-05-19,18587.5,0.0,18587.5,0,
2022-05-20,18587.5,0.0,18587.5,0,
2022-05-22,18587.5,0.0,18587.5,0,
2022-05-23,18587.5,0.0,18587.5,0,
2022-05-24,18587.5,0.0,18587.5,0,
2022-05-25,18587.5,0.0,18587.5,0,
2022-05-26,18587.5,0.0,18587.5,0,
2022-05-27,18587.5,0.0,18587.5,0,
2022-05-29,18587.5,0.0,18587.5,0,
2022-05-30,18587.5,0.0,18587.5,0,
2022-05-31,18587.5,0.0,18587.5,0,
2022-06-01,18587.5,0.0,18587.5,0,
2022-06-02,18587.5,0.0,18587.5,0,
2022-06-03,18587.5,0.0,18587.5,0,
2022-06-05,18587.5,0.0,18587.5,0,
2022-06-06,18587.5,0.0,18587.5,0,
2022-06-07,18587.5,0.0,18587.5,0,
2022-06-08,18587.5,0.0,18587.5,0,
2022-06-09,18587.5,0.0,18587.5,0,
2022-06-10,18587.5,0.0,18587.5,0,
2022-06-12,18587.5,0.0,18587.5,0,
2022-06-13,18587.5,0.0,18587.5,0,
2022-06-14,18587.5,0.0,18587.5,0,
2022-06-15,18587.5,0.0,18587.5,0,
2022-06-16,18587.5,0.0,18587.5,0,
2022-06-17,18587.5,0.0,18587.5,0,
2022-06-19,18587.5,0.0,18587.5,0,
2022-06-20,18587.5,0.0,18587.5,0,
2022-06-21,18587.5,0.0,18587.5,0,
2022-06-22,18587.5,0.0,18587.5,0,
2022-06-23,18587.5,0.0,18587.5,0,
2022-06-24,18587.5,0.0,18587.5,0,
2022-06-26,18587.5,0.0,18587.5,0,
2022-06-27,18587.5,0.0,18587.5,0,
2022-06-28,18587.5,0.0,18587.5,0,
2022-06-29,18587.5,0.0,18587.5,0,
2022-06-30,18587.5,0.0,18587.5,0,
2022-07-01,18587.5,0.0,18587.5,0,
2022-07-03,18587.5,0.0,18587.5,0,
2022-07-04,18587.5,0.0,18587.5,0,
2022-07-05,18587.5,0.0,18587.5,0,
2022-07-06,18587.5,0.0,18587.5,0,
2022-07-07,18587.5,0.0,18587.5,0,
2022-07-08,18587.5,0.0,18587.5,0,
2022-07-10,18587.5,0.0,18587.5,0,
2022-07-11,18587.5,0.0,18587.5,0,
2022-07-12,18587.5,0.0,18587.5,0,
2022-07-13,18587.5,0.0,18587.5,0,
2022-07-14,18587.5,0.0,18587.5,0,
2022-07-15,18587.5,0.0,18587.5,0,
2022-07-17,18587.5,0.0,18587.5,0,
2022-07-18,18587.5,0.0,18587.5,0,
2022-07-19,18587.5,0.0,18587.5,0,
2022-07-20,18587.5,0.0,18587.5,0,
2022-07-21,18587.5,0.0,18587.5,0,
2022-07-22,18587.5,0.0,18587.5,0,
2022-07-24,18587.5,0.0,18587.5,0,
2022-07-25,18587.5,0.0,18587.5,0,
2022-07-26,18587.5,0.0,18587.5,0,
2022-07-27,18587.5,0.0,18587.5,0,
2022-07-28,18587.5,0.0,18587.5,0,
2022-07-29,18587.5,0.0,18587.5,0,
2022-07-31,18587.5,0.0,18587.5,0,
2022-08-01,18587.5,0.0,18587.5,0,
2022-08-02,18587.5,0.0,18587.5,0,
2022-08-03,18587.5,0.0,18587.5,0,
2022-08-04,18587.5,0.0,18587.5,0,
2022-08-05,18587.5,0.0,18587.5,0,
2022-08-07,18587.5,0.0,18587.5,0,
2022-08-08,18587.5,0.0,18587.5,0,
2022-08-09,18587.5,0.0,18587.5,0,
2022-08-10,18587.5,0.0,18587.5,0,
2022-08-11,18587.5,0.0,18587.5,0,
2022-08-12,18587.5,0.0,18587.5,0,
2022-08-14,18587.5,0.0,18587.5,0,
2022-08-15,18587.5,0.0,18587.5,0,
2022-08-16,18587.5,0.0,18587.5,0,
2022-08-17,18587.5,0.0,18587.5,0,
2022-08-18,18587.5,0.0,18587.5,0,
2022-08-19,18587.5,0.0,18587.5,0,
2022-08-21,18587.5,0.0,18587.5,0,
2022-08-22,18587.5,0.0,18587.5,0,
2022-08-23,18587.5,0.0,18587.5,0,
2022-08-24,18587.5,0.0,18587.5,0,
2022-08-25,18587.5,0.0,18587.5,0,
2022-08-26,18587.5,0.0,18587.5,0,
2022-08-28,18587.5,0.0,18587.5,0,
2022-08-29,18587.5,0.0,18587.5,0,
2022-08-30,18587.5,0.0,18587.5,0,
2022-08-31,18587.5,0.0,18587.5,0,
2022-09-01,18587.5,0.0,18587.5,0,
2022-09-02,18587.5,0.0,18587.5,0,
2022-09-04,18587.5,0.0,18587.5,0,
2022-09-05,18587.5,0.0,18587.5,0,
2022-09-06,18587.5,0.0,18587.5,0,
2022-09-07,18587.5,0.0,18587.5,0,
2022-09-08,18587.5,0.0,18587.5,0,
2022-09-09,18587.5,0.0,18587.5,0,
2022-09-11,18587.5,0.0,18587.5,0,
2022-09-12,18587.5,0.0,18587.5,0,
2022-09-13,18587.5,0.0,18587.5,0,
2022-09-14,18587.5,0.0,18587.5,0,
2022-09-15,18587.5,0.0,18587.5,0,
2022-09-16,18587.5,0.0,18587.5,0,
2022-09-18,18587.5,0.0,18587.5,0,
2022-09-19,18587.5,0.0,18587.5,0,
2022-09-20,18587.5,0.0,18587.5,0,
2022-09-21,18587.5,0.0,18587.5,0,
2022-09-22,18587.5,0.0,18587.5,0,
2022-09-23,18587.5,0.0,18587.5,0,
2022-09-25,18587.5,0.0,18587.5,0,
2022-09-26,18587.5,0.0,18587.5,0,
2022-09-27,18587.5,0.0,18587.5,0,
2022-09-28,18587.5,0.0,18587.5,0,
2022-09-29,18587.5,0.0,18587.5,0,
2022-09-30,18587.5,0.0,18587.5,0,
2022-10-02,18587.5,0.0,18587.5,0,
2022-10-03,18587.5,0.0,18587.5,0,
2022-10-04,18587.5,0.0,18587.5,0,
2022-10-05,18587.5,0.0,18587.5,0,
2022-10-06,18587.5,0.0,18587.5,0,
2022-10-07,18587.5,0.0,18587.5,0,
2022-10-09,18587.5,0.0,18587.5,0,
2022-10-10,18587.5,0.0,18587.5,0,
2022-10-11,18587.5,0.0,18587.5,0,
2022-10-12,18587.5,0.0,18587.5,0,
2022-10-13,18587.5,0.0,18587.5,0,
2022-10-14,18587.5,0.0,18587.5,0,
2022-10-16,18587.5,0.0,18587.5,0,
2022-10-17,18587.5,0.0,18587.5,0,
2022-10-18,18587.5,0.0,18587.5,0,
2022-10-19,18587.5,0.0,18587.5,0,
2022-10-20,18587.5,0.0,18587.5,0,
2022-10-21,18587.5,0.0,18587.5,0,
2022-10-23,18587.5,0.0,18587.5,0,
2022-10-24,18587.5,0.0,18587.5,0,
2022-10-25,18587.5,0.0,18587.5,0,
2022-10-26,18587.5,0.0,18587.5,0,
2022-10-27,18587.5,0.0,18587.5,0,
2022-10-28,18587.5,0.0,18587.5,0,
2022-10-30,18587.5,0.0,18587.5,0,
2022-10-31,18587.5,0.0,18587.5,0,
2022-11-01,18587.5,0.0,18587.5,0,
2022-11-02,18587.5,0.0,18587.5,0,
2022-11-03,18587.5,0.0,18587.5,0,
2022-11-04,18587.5,0.0,18587.5,0,
2022-11-06,18587.5,0.0,18587.5,0,
2022-11-07,18587.5,0.0,18587.5,0,
2022-11-08,18587.5,0.0,18587.5,0,
2022-11-09,18587.5,0.0,18587.5,0,
2022-11-10,18587.5,0.0,18587.5,0,
2022-11-11,18587.5,0.0,18587.5,0,
2022-11-13,18587.5,0.0,18587.5,0,
2022-11-14,18587.5,0.0,18587.5,0,
2022-11-15,18587.5,0.0,18587.5,0,
2022-11-16,18587.5,0.0,18587.5,0,
2022-11-17,18587.5,0.0,18587.5,0,
2022-11-18,18587.5,0.0,18587.5,0,
2022-11-20,18587.5,0.0,18587.5,0,
2022-11-21,18587.5,0.0,18587.5,0,
2022-11-22,18587.5,0.0,18587.5,0,
2022-11-23,18587.5,0.0,18587.5,0,
2022-11-24,18587.5,0.0,18587.5,0,
2022-11-25,18587.5,0.0,18587.5,0,
2022-11-27,18587.5,0.0,18587.5,0,
2022-11-28,18587.5,0.0,18587.5,0,
2022-11-29,18587.5,0.0,18587.5,0,
2022-11-30,18587.5,0.0,18587.5,0,
2022-12-01,18587.5,0.0,18587.5,0,
2022-12-02,18587.5,0.0,18587.5,0,
2022-12-04,18587.5,0.0,18587.5,0,
2022-12-05,18587.5,0.0,18587.5,0,
2022-12-06,18587.5,0.0,18587.5,0,
2022-12-07,18587.5,0.0,18587.5,0,
2022-12-08,18587.5,0.0,18587.5,0,
2022-12-09,18587.5,0.0,18587.5,0,
2022-12-11,18587.5,0.0,18587.5,0,
2022-12-12,18587.5,0.0,18587.5,0,
2022-12-13,18587.5,0.0,18587.5,0,
2022-12-14,18587.5,0.0,18587.5,0,
2022-12-15,18587.5,0.0,18587.5,0,
2022-12-16,18587.5,0.0,18587.5,0,
2022-12-18,18587.5,0.0,18587.5,0,
2022-12-19,18587.5,0.0,18587.5,0,
2022-12-20,18587.5,0.0,18587.5,0,
2022-12-21,18587.5,0.0,18587.5,0,
2022-12-22,18587.5,0.0,18587.5,0,
2022-12-23,18587.5,0.0,18587.5,0,
2022-12-26,18587.5,0.0,18587.5,0,
2022-12-27,18587.5,0.0,18587.5,0,
2022-12-28,18587.5,0.0,18587.5,0,
2022-12-29,18587.5,0.0,18587.5,0,
2022-12-30,18587.5,0.0,18587.5,0,
2023-01-02,18587.5,0.0,18587.5,0,
2023-01-03,18587.5,0.0,18587.5,0,
2023-01-04,18587.5,0.0,18587.5,0,
2023-01-05,18587.5,0.0,18587.5,0,
2023-01-06,18587.5,0.0,18587.5,0,
2023-01-08,18587.5,0.0,18587.5,0,
2023-01-09,18587.5,0.0,18587.5,0,
2023-01-10,18587.5,0.0,18587.5,0,
2023-01-11,18587.5,0.0,18587.5,0,
2023-01-12,18587.5,0.0,18587.5,0,
2023-01-13,18587.5,0.0,18587.5,0,
2023-01-15,18587.5,0.0,18587.5,0,
2023-01-16,18587.5,0.0,18587.5,0,
2023-01-17,18587.5,0.0,18587.5,0,
2023-01-18,18587.5,0.0,18587.5,0,
2023-01-19,18587.5,0.0,18587.5,0,
2023-01-20,18587.5,0.0,18587.5,0,
2023-01-22,18587.5,0.0,18587.5,0,
2023-01-23,18587.5,0.0,18587.5,0,
2023-01-24,18587.5,0.0,18587.5,0,
2023-01-25,18587.5,0.0,18587.5,0,
2023-01-26,18587.5,0.0,18587.5,0,
2023-01-27,18587.5,0.0,18587.5,0,
2023-01-29,18587.5,0.0,18587.5,0,
2023-01-30,18587.5,0.0,18587.5,0,
2023-01-31,18587.5,0.0,18587.5,0,
2023-02-01,18587.5,0.0,18587.5,0,
2023-02-02,18587.5,0.0,18587.5,0,
2023-02-03,18587.5,0.0,18587.5,0,
2023-02-05,18587.5,0.0,18587.5,0,
2023-02-06,18587.5,0.0,18587.5,0,
2023-02-07,18587.5,0.0,18587.5,0,
2023-02-08,18587.5,0.0,18587.5,0,
2023-02-09,18587.5,0.0,18587.5,0,
2023-02-10,18587.5,0.0,18587.5,0,
2023-02-12,18587.5,0.0,18587.5,0,
2023-02-13,18587.5,0.0,18587.5,0,
2023-02-14,18587.5,0.0,18587.5,0,
2023-02-15,18587.5,0.0,18587.5,0,
2023-02-16,18587.5,0.0,18587.5,0,
2023-02-17,18587.5,0.0,18587.5,0,
2023-02-19,18587.5,0.0,18587.5,0,
2023-02-20,18587.5,0.0,18587.5,0,
2023-02-21,18587.5,0.0,18587.5,0,
2023-02-22,18587.5,0.0,18587.5,0,
2023-02-23,18587.5,0.0,18587.5,0,
2023-02-24,18587.5,0.0,18587.5,0,
2023-02-26,18587.5,0.0,18587.5,0,
2023-02-27,18587.5,0.0,18587.5,0,
2023-02-28,18587.5,0.0,18587.5,0,
2023-03-01,18587.5,0.0,18587.5,0,
2023-03-02,18587.5,0.0,18587.5,0,
2023-03-03,18587.5,0.0,18587.5,0,
2023-03-05,18587.5,0.0,18587.5,0,
2023-03-06,18587.5,0.0,18587.5,0,
2023-03-07,18587.5,0.0,18587.5,0,
2023-03-08,18587.5,0.0,18587.5,0,
2023-03-09,18587.5,0.0,18587.5,0,
2023-03-10,18587.5,0.0,18587.5,0,
2023-03-12,18587.5,0.0,18587.5,0,
2023-03-13,18587.5,0.0,18587.5,0,
2023-03-14,18587.5,0.0,18587.5,0,
2023-03-15,18587.5,0.0,18587.5,0,
2023-03-16,18587.5,0.0,18587.5,0,
2023-03-17,18587.5,0.0,18587.5,0,
2023-03-19,18587.5,0.0,18587.5,0,
2023-03-20,18587.5,0.0,18587.5,0,
2023-03-21,18587.5,0.0,18587.5,0,
2023-03-22,18587.5,0.0,18587.5,0,
2023-03-23,18587.5,0.0,18587.5,0,
2023-03-24,18587.5,0.0,18587.5,0,
2023-03-26,18587.5,0.0,18587.5,0,
2023-03-27,18587.5,0.0,18587.5,0,
2023-03-28,18587.5,0.0,18587.5,0,
2023-03-29,18587.5,0.0,18587.5,0,
2023-03-30,18587.5,0.0,18587.5,0,
2023-03-31,18587.5,0.0,18587.5,0,
2023-04-02,18587.5,0.0,18587.5,0,
2023-04-03,18587.5,0.0,18587.5,0,
2023-04-04,18587.5,0.0,18587.5,0,
2023-04-05,18587.5,0.0,18587.5,0,
2023-04-06,18587.5,0.0,18587.5,0,
2023-04-07,18587.5,0.0,18587.5,0,
2023-04-09,18587.5,0.0,18587.5,0,
2023-04-10,18587.5,0.0,18587.5,0,
2023-04-11,18587.5,0.0,18587.5,0,
2023-04-12,18587.5,0.0,18587.5,0,
2023-04-13,18587.5,0.0,18587.5,0,
2023-04-14,18587.5,0.0,18587.5,0,
2023-04-16,18587.5,0.0,18587.5,0,
2023-04-17,18587.5,0.0,18587.5,0,
2023-04-18,18587.5,0.0,18587.5,0,
2023-04-19,18587.5,0.0,18587.5,0,
2023-04-20,18587.5,0.0,18587.5,0,
2023-04-21,18587.5,0.0,18587.5,0,
2023-04-23,18587.5,0.0,18587.5,0,
2023-04-24,18587.5,0.0,18587.5,0,
2023-04-25,18587.5,0.0,18587.5,0,
2023-04-26,18587.5,0.0,18587.5,0,
2023-04-27,18587.5,0.0,18587.5,0,
2023-04-28,18587.5,0.0,18587.5,0,
2023-04-30,18587.5,0.0,18587.5,0,
2023-05-01,18587.5,0.0,18587.5,0,
2023-05-02,18587.5,0.0,18587.5,0,
2023-05-03,18587.5,0.0,18587.5,0,
2023-05-04,18587.5,0.0,18587.5,0,
2023-05-05,18587.5,0.0,18587.5,0,
2023-05-07,18587.5,0.0,18587.5,0,
2023-05-08,18587.5,0.0,18587.5,0,
2023-05-09,18587.5,0.0,18587.5,0,
2023-05-10,18587.5,0.0,18587.5,0,
2023-05-11,18587.5,0.0,18587.5,0,
2023-05-12,18587.5,0.0,18587.5,0,
2023-05-14,18587.5,0.0,18587.5,0,
2023-05-15,18587.5,0.0,18587.5,0,
2023-05-16,18587.5,0.0,18587.5,0,
2023-05-17,18587.5,0.0,18587.5,0,
2023-05-18,18587.5,0.0,18587.5,0,
2023-05-19,18587.5,0.0,18587.5,0,
2023-05-21,18587.5,0.0,18587.5,0,
2023-05-22,18587.5,0.0,18587.5,0,
2023-05-23,18587.5,0.0,18587.5,0,
2023-05-24,18587.5,0.0,18587.5,0,
2023-05-25,18587.5,0.0,18587.5,0,
2023-05-26,18587.5,0.0,18587.5,0,
2023-05-28,18587.5,0.0,18587.5,0,
2023-05-29,18587.5,0.0,18587.5,0,
2023-05-30,18587.5,0.0,18587.5,0,
2023-05-31,18587.5,0.0,18587.5,0,
2023-06-01,18587.5,0.0,18587.5,0,
2023-06-02,18587.5,0.0,18587.5,0,
2023-06-04,18587.5,0.0,18587.5,0,
2023-06-05,18587.5,0.0,18587.5,0,
2023-06-06,18587.5,0.0,18587.5,0,
2023-06-07,18587.5,0.0,18587.5,0,
2023-06-08,18587.5,0.0,18587.5,0,
2023-06-09,18587.5,0.0,18587.5,0,
2023-06-11,18587.5,0.0,18587.5,0,
2023-06-12,18587.5,0.0,18587.5,0,
2023-06-13,18587.5,0.0,18587.5,0,
2023-06-14,18587.5,0.0,18587.5,0,
2023-06-15,18587.5,0.0,18587.5,0,
2023-06-16,18587.5,0.0,18587.5,0,
2023-06-18,18587.5,0.0,18587.5,0,
2023-06-19,18587.5,0.0,18587.5,0,
2023-06-20,18587.5,0.0,18587.5,0,
2023-06-21,18587.5,0.0,18587.5,0,
2023-06-22,18587.5,0.0,18587.5,0,
2023-06-23,18587.5,0.0,18587.5,0,
2023-06-25,18587.5,0.0,18587.5,0,
2023-06-26,18587.5,0.0,18587.5,0,
2023-06-27,18587.5,0.0,18587.5,0,
2023-06-28,18587.5,0.0,18587.5,0,
2023-06-29,18587.5,0.0,18587.5,0,
2023-06-30,18587.5,0.0,18587.5,0,
2023-07-02,18587.5,0.0,18587.5,0,
2023-07-03,18587.5,0.0,18587.5,0,
2023-07-04,18587.5,0.0,18587.5,0,
2023-07-05,18587.5,0.0,18587.5,0,
2023-07-06,18587.5,0.0,18587.5,0,
2023-07-07,18587.5,0.0,18587.5,0,
2023-07-09,18587.5,0.0,18587.5,0,
2023-07-10,18587.5,0.0,18587.5,0,
2023-07-11,18587.5,0.0,18587.5,0,
2023-07-12,18587.5,0.0,18587.5,0,
2023-07-13,18587.5,0.0,18587.5,0,
2023-07-14,18587.5,0.0,18587.5,0,
2023-07-16,18587.5,0.0,18587.5,0,
2023-07-17,18587.5,0.0,18587.5,0,
2023-07-18,18587.5,0.0,18587.5,0,
2023-07-19,18587.5,0.0,18587.5,0,
2023-07-20,18587.5,0.0,18587.5,0,
2023-07-21,18587.5,0.0,18587.5,0,
2023-07-23,18587.5,0.0,18587.5,0,
2023-07-24,18587.5,0.0,18587.5,0,
2023-07-25,18587.5,0.0,18587.5,0,
2023-07-26,18587.5,0.0,18587.5,0,
2023-07-27,18587.5,0.0,18587.5,0,
2023-07-28,18587.5,0.0,18587.5,0,
2023-07-30,18587.5,0.0,18587.5,0,
2023-07-31,18587.5,0.0,18587.5,0,
2023-08-01,18587.5,0.0,18587.5,0,
2023-08-02,18587.5,0.0,18587.5,0,
2023-08-03,18587.5,0.0,18587.5,0,
2023-08-04,18587.5,0.0,18587.5,0,
2023-08-06,18587.5,0.0,18587.5,0,
2023-08-07,18587.5,0.0,18587.5,0,
2023-08-08,18587.5,0.0,18587.5,0,
2023-08-09,18587.5,0.0,18587.5,0,
2023-08-10,18587.5,0.0,18587.5,0,
2023-08-11,18587.5,0.0,18587.5,0,
2023-08-13,18587.5,0.0,18587.5,0,
2023-08-14,18587.5,0.0,18587.5,0,
2023-08-15,18587.5,0.0,18587.5,0,
2023-08-16,18587.5,0.0,18587.5,0,
2023-08-17,18587.5,0.0,18587.5,0,
2023-08-18,18587.5,0.0,18587.5,0,
2023-08-20,18587.5,0.0,18587.5,0,
2023-08-21,18587.5,0.0,18587.5,0,
2023-08-22,18587.5,0.0,18587.5,0,
2023-08-23,18587.5,0.0,18587.5,0,
2023-08-24,18587.5,0.0,18587.5,0,
2023-08-25,18587.5,0.0,18587.5,0,
2023-08-27,18587.5,0.0,18587.5,0,
2023-08-28,18587.5,0.0,18587.5,0,
2023-08-29,18587.5,0.0,18587.5,0,
2023-08-30,18587.5,204.75,18792.25,3,Long
2023-08-31,18587.5,305.25,18892.75,3,Long
2023-09-01,18587.5,233.25,18820.75,3,Long
2023-09-03,18587.5,246.0,18833.5,3,Long
2023-09-04,18587.5,274.5,18862.0,3,Long
2023-09-05,18587.5,261.75,18849.25,3,Long
2023-09-06,18587.5,-130.5,18457.0,3,Long
2023-09-07,18454.75,0.0,18454.75,0,
2023-09-08,18454.75,0.0,18454.75,0,
2023-09-10,18454.75,0.0,18454.75,0,
2023-09-11,18454.75,0.0,18454.75,0,
2023-09-12,18454.75,-456.75,17998.0,3,Long
2023-09-13,18454.75,-234.75,18220.0,3,Long
2023-09-14,18454.75,57.75,18512.5,3,Long
2023-09-15,18454.75,-824.25,17630.5,3,Long
2023-09-17,17632.0,0.0,17632.0,0,
2023-09-18,17632.0,0.0,17632.0,0,
2023-09-19,17632.0,0.0,17632.0,0,
2023-09-20,17632.0,0.0,17632.0,0,
2023-09-21,17632.0,0.0,17632.0,0,
2023-09-22,17632.0,0.0,17632.0,0,
2023-09-24,17632.0,0.0,17632.0,0,
2023-09-25,17632.0,0.0,17632.0,0,
2023-09-26,17632.0,0.0,17632.0,0,
2023-09-27,17632.0,0.0,17632.0,0,
2023-09-28,17632.0,0.0,17632.0,0,
2023-09-29,17632.0,0.0,17632.0,0,
2023-10-01,17632.0,0.0,17632.0,0,
2023-10-02,17632.0,0.0,17632.0,0,
2023-10-03,17632.0,0.0,17632.0,0,
2023-10-04,17632.0,0.0,17632.0,0,
2023-10-05,17632.0,0.0,17632.0,0,
2023-10-06,17632.0,0.0,17632.0,0,
2023-10-08,17632.0,0.0,17632.0,0,
2023-10-09,17632.0,0.0,17632.0,0,
2023-10-10,17632.0,0.0,17632.0,0,
2023-10-11,17632.0,0.0,17632.0,0,
2023-10-12,17632.0,-254.25,17377.75,3,Long
2023-10-13,17377.75,0.0,17377.75,0,
2023-10-15,17377.75,0.0,17377.75,0,
2023-10-16,17377.75,0.0,17377.75,0,
2023-10-17,17377.75,0.0,17377.75,0,
2023-10-18,17377.75,0.0,17377.75,0,
2023-10-19,17377.75,0.0,17377.75,0,
2023-10-20,17377.75,0.0,17377.75,0,
2023-10-22,17377.75,0.0,17377.75,0,
2023-10-23,17377.75,0.0,17377.75,0,
2023-10-24,17377.75,0.0,17377.75,0,
2023-10-25,17377.75,0.0,17377.75,0,
2023-10-26,17377.75,0.0,17377.75,0,
2023-10-27,17377.75,0.0,17377.75,0,
2023-10-29,17377.75,0.0,17377.75,0,
2023-10-30,17377.75,0.0,17377.75,0,
2023-10-31,17377.75,0.0,17377.75,0,
2023-11-01,17377.75,0.0,17377.75,0,
2023-11-02,17377.75,0.0,17377.75,0,
2023-11-03,17377.75,0.0,17377.75,0,
2023-11-05,17377.75,-33.75,17344.0,3,Long
2023-11-06,17344.0,0.0,17344.0,0,
2023-11-07,17344.0,478.5,17822.5,3,Long
2023-11-08,17344.0,447.75,17791.75,3,Long
2023-11-09,17344.0,72.0,17416.0,3,Long
2023-11-10,17344.0,1117.5,18461.5,3,Long
2023-11-12,17344.0,1054.5,18398.5,3,Long
2023-11-13,17344.0,1049.25,18393.25,3,Long
2023-11-14,17344.0,2088.0,19432.0,3,Long
2023-11-15,17344.0,1968.75,19312.75,3,Long
2023-11-16,17344.0,2031.0,19375.0,3,Long
2023-11-17,17344.0,1996.5,19340.5,4,Long
2023-11-19,17344.0,1955.5,19299.5,4,Long
2023-11-20,17344.0,2903.5,20247.5,4,Long
2023-11-21,17344.0,2317.5,19661.5,4,Long
2023-11-22,17344.0,2683.5,20027.5,4,Long
2023-11-23,17344.0,2758.5,20102.5,4,Long
2023-11-24,17344.0,2543.5,19887.5,4,Long
2023-11-26,17344.0,2445.5,19789.5,4,Long
2023-11-27,17344.0,2539.5,19883.5,4,Long
2023-11-28,17344.0,2713.5,20057.5,4,Long
2023-11-29,17344.0,2688.5,20032.5,4,Long
2023-11-30,17344.0,2358.5,19702.5,4,Long
2023-12-01,17344.0,2637.25,19981.25,5,Long
2023-12-03,17344.0,2442.25,19786.25,5,Long
2023-12-04,17344.0,1729.75,19073.75,5,Long
2023-12-05,17344.0,2122.25,19466.25,5,Long
2023-12-06,17344.0,1564.75,18908.75,5,Long
2023-12-07,17344.0,2582.25,19926.25,5,Long
2023-12-08,17344.0,2944.75,20288.75,5,Long
2023-12-10,17344.0,3004.75,20348.75,5,Long
2023-12-11,17344.0,4756.0,22100.0,5,Long
2023-12-12,17344.0,5529.75,22873.75,5,Long
2023-12-13,17344.0,6562.25,23906.25,5,Long
2023-12-14,17344.0,6284.75,23628.75,5,Long
2023-12-15,17344.0,6543.25,23887.25,6,Long
2023-12-17,17344.0,6589.75,23933.75,6,Long
2023-12-18,17344.0,7192.75,24536.75,6,Long
2023-12-19,17344.0,7813.75,25157.75,6,Long
2023-12-20,17344.0,6517.75,23861.75,6,Long
2023-12-21,17344.0,7299.25,24643.25,6,Long
2023-12-22,17344.0,7422.25,24766.25,6,Long
2023-12-25,17344.0,7671.25,25015.25,6,Long
2023-12-26,17344.0,8184.25,25528.25,6,Long
2023-12-27,17344.0,8377.75,25721.75,6,Long
2023-12-28,17344.0,8251.75,25595.75,6,Long
2023-12-29,17344.0,7657.75,25001.75,7,Long
2024-01-01,17344.0,7838.0,25182.0,7,Long
2024-01-02,17344.0,5701.25,23045.25,7,Long
2024-01-03,23047.0,0.0,23047.0,0,
2024-01-04,23047.0,0.0,23047.0,0,
2024-01-05,23047.0,0.0,23047.0,0,
2024-01-07,23047.0,0.0,23047.0,0,
2024-01-08,23047.0,0.0,23047.0,0,
2024-01-09,23047.0,0.0,23047.0,0,
2024-01-10,23047.0,0.0,23047.0,0,
2024-01-11,23047.0,0.0,23047.0,0,
2024-01-12,23047.0,0.0,23047.0,0,
2024-01-14,23047.0,0.0,23047.0,0,
2024-01-15,23047.0,0.0,23047.0,0,
2024-01-16,23047.0,0.0,23047.0,0,
2024-01-17,23047.0,0.0,23047.0,0,
2024-01-18,23047.0,0.0,23047.0,0,
2024-01-19,23047.0,0.0,23047.0,0,
2024-01-21,23047.0,0.0,23047.0,0,
2024-01-22,23047.0,0.0,23047.0,0,
2024-01-23,23047.0,0.0,23047.0,0,
2024-01-24,23047.0,0.0,23047.0,0,
2024-01-25,23047.0,0.0,23047.0,0,
2024-01-26,23047.0,0.0,23047.0,0,
2024-01-28,23047.0,0.0,23047.0,0,
2024-01-29,23047.0,0.0,23047.0,0,
2024-01-30,23047.0,0.0,23047.0,0,
2024-01-31,23047.0,0.0,23047.0,0,
2024-02-01,23047.0,0.0,23047.0,0,
2024-02-02,23047.0,0.0,23047.0,0,
2024-02-04,23047.0,0.0,23047.0,0,
2024-02-05,23047.0,0.0,23047.0,0,
2024-02-06,23047.0,0.0,23047.0,0,
2024-02-07,23047.0,0.0,23047.0,0,
2024-02-08,23047.0,0.0,23047.0,0,
2024-02-09,23047.0,0.0,23047.0,0,
2024-02-11,23047.0,0.0,23047.0,0,
2024-02-12,23047.0,0.0,23047.0,0,
2024-02-13,23047.0,0.0,23047.0,0,
2024-02-14,23047.0,0.0,23047.0,0,
2024-02-15,23047.0,0.0,23047.0,0,
2024-02-16,23047.0,0.0,23047.0,0,
2024-02-18,23047.0,0.0,23047.0,0,
2024-02-19,23047.0,0.0,23047.0,0,
2024-02-20,23047.0,0.0,23047.0,0,
2024-02-21,23047.0,0.0,23047.0,0,
2024-02-22,23047.0,0.0,23047.0,0,
2024-02-23,23047.0,0.0,23047.0,0,
2024-02-25,23047.0,0.0,23047.0,0,
2024-02-26,23047.0,0.0,23047.0,0,
2024-02-27,23047.0,0.0,23047.0,0,
2024-02-28,23047.0,0.0,23047.0,0,
2024-02-29,23047.0,0.0,23047.0,0,
2024-03-01,23047.0,0.0,23047.0,0,
2024-03-03,23047.0,0.0,23047.0,0,
2024-03-04,23047.0,0.0,23047.0,0,
2024-03-05,23047.0,0.0,23047.0,0,
2024-03-06,23047.0,0.0,23047.0,0,
2024-03-07,23047.0,0.0,23047.0,0,
2024-03-08,23047.0,0.0,23047.0,0,
2024-03-10,23047.0,0.0,23047.0,0,
2024-03-11,23047.0,0.0,23047.0,0,
2024-03-12,23047.0,0.0,23047.0,0,
2024-03-13,23047.0,0.0,23047.0,0,
2024-03-14,23047.0,0.0,23047.0,0,
2024-03-15,23047.0,0.0,23047.0,0,
2024-03-17,23047.0,0.0,23047.0,0,
2024-03-18,23047.0,0.0,23047.0,0,
2024-03-19,23047.0,0.0,23047.0,0,
2024-03-20,23047.0,0.0,23047.0,0,
2024-03-21,23047.0,0.0,23047.0,0,
2024-03-22,23047.0,0.0,23047.0,0,
2024-03-24,23047.0,0.0,23047.0,0,
2024-03-25,23047.0,0.0,23047.0,0,
2024-03-26,23047.0,0.0,23047.0,0,
2024-03-27,23047.0,0.0,23047.0,0,
2024-03-28,23047.0,0.0,23047.0,0,
2024-03-31,23047.0,0.0,23047.0,0,
2024-04-01,23047.0,0.0,23047.0,0,
2024-04-02,23047.0,0.0,23047.0,0,
2024-04-03,23047.0,0.0,23047.0,0,
2024-04-04,23047.0,0.0,23047.0,0,
2024-04-05,23047.0,0.0,23047.0,0,
2024-04-07,23047.0,0.0,23047.0,0,
2024-04-08,23047.0,0.0,23047.0,0,
2024-04-09,23047.0,0.0,23047.0,0,
2024-04-10,23047.0,0.0,23047.0,0,
2024-04-11,23047.0,0.0,23047.0,0,
2024-04-12,23047.0,0.0,23047.0,0,
2024-04-14,23047.0,0.0,23047.0,0,
2024-04-15,23047.0,0.0,23047.0,0,
2024-04-16,23047.0,0.0,23047.0,0,
2024-04-17,23047.0,0.0,23047.0,0,
2024-04-18,23047.0,0.0,23047.0,0,
2024-04-19,23047.0,0.0,23047.0,0,
2024-04-21,23047.0,0.0,23047.0,0,
2024-04-22,23047.0,0.0,23047.0,0,
2024-04-23,23047.0,0.0,23047.0,0,
2024-04-24,23047.0,0.0,23047.0,0,
2024-04-25,23047.0,0.0,23047.0,0,
2024-04-26,23047.0,0.0,23047.0,0,
2024-04-28,23047.0,0.0,23047.0,0,
2024-04-29,23047.0,0.0,23047.0,0,
2024-04-30,23047.0,0.0,23047.0,0,
2024-05-01,23047.0,0.0,23047.0,0,
2024-05-02,23047.0,0.0,23047.0,0,
2024-05-03,23047.0,0.0,23047.0,0,
2024-05-05,23047.0,0.0,23047.0,0,
2024-05-06,23047.0,0.0,23047.0,0,
2024-05-07,23047.0,0.0,23047.0,0,
2024-05-08,23047.0,0.0,23047.0,0,
2024-05-09,23047.0,0.0,23047.0,0,
2024-05-10,23047.0,0.0,23047.0,0,
2024-05-12,23047.0,0.0,23047.0,0,
2024-05-13,23047.0,0.0,23047.0,0,
2024-05-14,23047.0,0.0,23047.0,0,
2024-05-15,23047.0,0.0,23047.0,0,
2024-05-16,23047.0,0.0,23047.0,0,
2024-05-17,23047.0,0.0,23047.0,0,
2024-05-19,23047.0,0.0,23047.0,0,
2024-05-20,23047.0,0.0,23047.0,0,
2024-05-21,23047.0,0.0,23047.0,0,
2024-05-22,23047.0,0.0,23047.0,0,
2024-05-23,23047.0,0.0,23047.0,0,
2024-05-24,23047.0,0.0,23047.0,0,
2024-05-26,23047.0,0.0,23047.0,0,
2024-05-27,23047.0,0.0,23047.0,0,
2024-05-28,23047.0,0.0,23047.0,0,
2024-05-29,23047.0,0.0,23047.0,0,
2024-05-30,23047.0,0.0,23047.0,0,
2024-05-31,23047.0,0.0,23047.0,0,
2024-06-02,23047.0,0.0,23047.0,0,
2024-06-03,23047.0,0.0,23047.0,0,
2024-06-04,23047.0,0.0,23047.0,0,
2024-06-05,23047.0,0.0,23047.0,0,
2024-06-06,23047.0,0.0,23047.0,0,
2024-06-07,23047.0,0.0,23047.0,0,
2024-06-09,23047.0,0.0,23047.0,0,
2024-06-10,23047.0,0.0,23047.0,0,
2024-06-11,23047.0,0.0,23047.0,0,
2024-06-12,23047.0,0.0,23047.0,0,
2024-06-13,23047.0,0.0,23047.0,0,
2024-06-14,23047.0,0.0,23047.0,0,
2024-06-16,23047.0,0.0,23047.0,0,
2024-06-17,23047.0,0.0,23047.0,0,
2024-06-18,23047.0,0.0,23047.0,0,
2024-06-19,23047.0,0.0,23047.0,0,
2024-06-20,23047.0,0.0,23047.0,0,
2024-06-21,23047.0,0.0,23047.0,0,
2024-06-23,23047.0,0.0,23047.0,0,
2024-06-24,23047.0,0.0,23047.0,0,
2024-06-25,23047.0,0.0,23047.0,0,
2024-06-26,23047.0,0.0,23047.0,0,
2024-06-27,23047.0,0.0,23047.0,0,
2024-06-28,23047.0,0.0,23047.0,0,
2024-06-30,23047.0,0.0,23047.0,0,
2024-07-01,23047.0,0.0,23047.0,0,
2024-07-02,23047.0,0.0,23047.0,0,
2024-07-03,23047.0,0.0,23047.0,0,
2024-07-04,23047.0,0.0,23047.0,0,
2024-07-05,23047.0,0.0,23047.0,0,
2024-07-07,23047.0,0.0,23047.0,0,
2024-07-08,23047.0,0.0,23047.0,0,
2024-07-09,23047.0,0.0,23047.0,0,
2024-07-10,23047.0,0.0,23047.0,0,
2024-07-11,23047.0,0.0,23047.0,0,
2024-07-12,23047.0,0.0,23047.0,0,
2024-07-14,23047.0,0.0,23047.0,0,
2024-07-15,23047.0,0.0,23047.0,0,
2024-07-16,23047.0,0.0,23047.0,0,
2024-07-17,23047.0,0.0,23047.0,0,
2024-07-18,23047.0,0.0,23047.0,0,
2024-07-19,23047.0,0.0,23047.0,0,
2024-07-21,23047.0,0.0,23047.0,0,
2024-07-22,23047.0,0.0,23047.0,0,
2024-07-23,23047.0,0.0,23047.0,0,
2024-07-24,23047.0,0.0,23047.0,0,
2024-07-25,23047.0,0.0,23047.0,0,
2024-07-26,23047.0,0.0,23047.0,0,
2024-07-28,23047.0,0.0,23047.0,0,
2024-07-29,23047.0,0.0,23047.0,0,
2024-07-30,23047.0,0.0,23047.0,0,
2024-07-31,23047.0,0.0,23047.0,0,
2024-08-01,23047.0,0.0,23047.0,0,
2024-08-02,23047.0,0.0,23047.0,0,
2024-08-04,23047.0,0.0,23047.0,0,
2024-08-05,23047.0,0.0,23047.0,0,
2024-08-06,23047.0,0.0,23047.0,0,
2024-08-07,23047.0,0.0,23047.0,0,
2024-08-08,23047.0,0.0,23047.0,0,
2024-08-09,23047.0,0.0,23047.0,0,
2024-08-11,23047.0,0.0,23047.0,0,
2024-08-12,23047.0,0.0,23047.0,0,
2024-08-13,23047.0,0.0,23047.0,0,
2024-08-14,23047.0,-30.0,23017.0,3,Long
2024-08-15,23016.25,0.0,23016.25,0,
2024-08-16,23016.25,-28.5,22987.75,3,Long
2024-08-18,23016.25,103.5,23119.75,3,Long
2024-08-19,23016.25,741.0,23757.25,3,Long
2024-08-20,23016.25,528.0,23544.25,3,Long
2024-08-21,23016.25,967.5,23983.75,3,Long
2024-08-22,23016.25,74.25,23090.5,3,Long
2024-08-23,23016.25,491.25,23507.5,3,Long
2024-08-25,23016.25,447.0,23463.25,3,Long
2024-08-26,23016.25,-128.25,22888.0,3,Long
2024-08-27,23016.25,-81.0,22935.25,3,Long
2024-08-28,23016.25,-1263.75,21752.5,3,Long
2024-08-29,23016.25,-552.0,22464.25,3,Long
2024-08-30,23016.25,-3.0,23013.25,4,Long
2024-09-01,23016.25,-35.0,22981.25,4,Long
2024-09-02,23016.25,-57.0,22959.25,4,Long
2024-09-03,23016.25,-2549.0,20467.25,4,Long
2024-09-04,20469.25,0.0,20469.25,0,
2024-09-05,20469.25,0.0,20469.25,0,
2024-09-06,20469.25,0.0,20469.25,0,
2024-09-08,20469.25,0.0,20469.25,0,
2024-09-09,20469.25,0.0,20469.25,0,
2024-09-10,20469.25,0.0,20469.25,0,
2024-09-11,20469.25,0.0,20469.25,0,
2024-09-12,20469.25,0.0,20469.25,0,
2024-09-13,20469.25,0.0,20469.25,0,
2024-09-15,20469.25,120.75,20590.0,3,Long
2024-09-16,20469.25,524.25,20993.5,3,Long
2024-09-17,20469.25,621.75,21091.0,3,Long
2024-09-18,20469.25,795.75,21265.0,3,Long
2024-09-19,20469.25,1653.0,22122.25,3,Long
2024-09-20,20469.25,1548.75,22018.0,3,Long
2024-09-22,20469.25,1692.0,22161.25,3,Long
2024-09-23,20469.25,1710.75,22180.0,3,Long
2024-09-24,20469.25,2044.5,22513.75,3,Long
2024-09-25,20469.25,2338.5,22807.75,3,Long
2024-09-26,20469.25,2537.25,23006.5,3,Long
2024-09-27,20469.25,2066.0,22535.25,4,Long
2024-09-29,20469.25,2382.0,22851.25,4,Long
2024-09-30,20469.25,2282.0,22751.25,4,Long
2024-10-01,20469.25,1022.0,21491.25,4,Long
2024-10-02,20469.25,1511.0,21980.25,4,Long
2024-10-03,20469.25,1224.0,21693.25,4,Long
2024-10-04,20469.25,2105.0,22574.25,4,Long
2024-10-06,20469.25,2214.0,22683.25,4,Long
2024-10-07,20469.25,1224.0,21693.25,4,Long
2024-10-08,20469.25,2384.0,22853.25,4,Long
2024-10-09,20469.25,3093.0,23562.25,4,Long
2024-10-10,20469.25,3098.0,23567.25,4,Long
2024-10-11,20469.25,2879.5,23348.75,5,Long
2024-10-13,20469.25,2953.25,23422.5,5,Long
2024-10-14,20469.25,3977.0,24446.25,5,Long
2024-10-15,20469.25,2577.0,23046.25,5,Long
2024-10-16,20469.25,2387.0,22856.25,5,Long
2024-10-17,20469.25,2843.25,23312.5,5,Long
2024-10-18,20469.25,3239.5,23708.75,5,Long
2024-10-20,20469.25,3385.75,23855.0,5,Long
2024-10-21,20469.25,3397.0,23866.25,5,Long
2024-10-22,20469.25,3465.75,23935.0,5,Long
2024-10-23,20469.25,2268.25,22737.5,5,Long
2024-10-24,20469.25,2723.25,23192.5,5,Long
2024-10-25,20469.25,3162.0,23631.25,6,Long
2024-10-27,20469.25,3889.5,24358.75,6,Long
2024-10-28,20469.25,3346.5,23815.75,6,Long
2024-10-29,20469.25,4786.5,25255.75,6,Long
2024-10-30,20469.25,2857.5,23326.75,6,Long
2024-10-31,20469.25,742.5,21211.75,6,Long
2024-11-01,20469.25,1315.5,21784.75,6,Long
2024-11-03,20469.25,1108.5,21577.75,6,Long
2024-11-04,20469.25,828.0,21297.25,6,Long
2024-11-05,20469.25,2362.5,22831.75,6,Long
2024-11-06,20469.25,5644.5,26113.75,6,Long
2024-11-07,20469.25,7659.0,28128.25,6,Long
2024-11-08,20469.25,7669.5,28138.75,7,Long
2024-11-10,20469.25,8208.5,28677.75,7,Long
2024-11-11,20469.25,7592.5,28061.75,7,Long
2024-11-12,20469.25,7200.5,27669.75,7,Long
2024-11-13,20469.25,7242.5,27711.75,7,Long
2024-11-14,20469.25,5727.0,26196.25,7,Long
2024-11-15,20469.25,2605.0,23074.25,7,Long
2024-11-17,20469.25,3058.25,23527.5,7,Long
2024-11-18,20469.25,3436.25,23905.5,7,Long
2024-11-19,20469.25,4561.5,25030.75,7,Long
2024-11-20,20469.25,4348.0,24817.25,7,Long
2024-11-21,20469.25,4495.0,24964.25,7,Long
2024-11-22,20469.25,5272.0,25741.25,8,Long
2024-11-24,20469.25,5730.0,26199.25,8,Long
2024-11-25,20469.25,4918.0,25387.25,8,Long
2024-11-26,20469.25,6130.0,26599.25,8,Long
2024-11-27,20469.25,4830.0,25299.25,8,Long
2024-11-28,20469.25,5346.0,25815.25,8,Long
2024-11-29,20469.25,6176.0,26645.25,8,Long
2024-12-01,20469.25,5960.0,26429.25,8,Long
2024-12-02,20469.25,7954.0,28423.25,8,Long
2024-12-03,20469.25,8906.0,29375.25,8,Long
2024-12-04,20469.25,10326.0,30795.25,8,Long
2024-12-05,20469.25,9890.0,30359.25,8,Long
2024-12-06,20469.25,11307.0,31776.25,9,Long
2024-12-08,20469.25,11520.75,31990.0,9,Long
2024-12-09,20469.25,9790.5,30259.75,9,Long
2024-12-10,20469.25,9457.5,29926.75,9,Long
2024-12-11,20469.25,12425.25,32894.5,9,Long
2024-12-12,20469.25,12301.5,32770.75,9,Long
2024-12-13,20469.25,12445.5,32914.75,9,Long
2024-12-15,20469.25,12704.25,33173.5,9,Long
2024-12-16,20469.25,15492.0,35961.25,9,Long
2024-12-17,20469.25,17069.25,37538.5,9,Long
2024-12-18,37538.5,0.0,37538.5,0,
2024-12-19,37538.5,0.0,37538.5,0,
2024-12-20,37538.5,0.0,37538.5,0,
2024-12-22,37538.5,0.0,37538.5,0,
2024-12-23,37538.5,0.0,37538.5,0,
2024-12-24,37538.5,0.0,37538.5,0,
2024-12-25,37538.5,0.0,37538.5,0,
2024-12-26,37538.5,0.0,37538.5,0,
2024-12-27,37538.5,0.0,37538.5,0,
2024-12-29,37538.5,0.0,37538.5,0,
2024-12-30,37538.5,0.0,37538.5,0,
2024-12-31,37538.5,0.0,37538.5,0,
2025-01-01,37538.5,0.0,37538.5,0,
2025-01-02,37538.5,0.0,37538.5,0,
2025-01-03,37538.5,0.0,37538.5,0,
2025-01-05,37538.5,0.0,37538.5,0,
2025-01-06,37538.5,0.0,37538.5,0,
2025-01-07,37538.5,0.0,37538.5,0,
2025-01-08,37538.5,0.0,37538.5,0,
2025-01-09,37538.5,0.0,37538.5,0,
2025-01-10,37538.5,0.0,37538.5,0,
2025-01-12,37538.5,0.0,37538.5,0,
2025-01-13,37538.5,0.0,37538.5,0,
2025-01-14,37538.5,0.0,37538.5,0,
2025-01-15,37538.5,0.0,37538.5,0,
2025-01-16,37538.5,0.0,37538.5,0,
2025-01-17,37538.5,0.0,37538.5,0,
2025-01-19,37538.5,0.0,37538.5,0,
2025-01-20,37538.5,0.0,37538.5,0,
2025-01-21,37538.5,0.0,37538.5,0,
2025-01-22,37538.5,0.0,37538.5,0,
2025-01-23,37538.5,0.0,37538.5,0,
2025-01-24,37538.5,0.0,37538.5,0,
2025-01-26,37538.5,0.0,37538.5,0,
2025-01-27,37538.5,0.0,37538.5,0,
2025-01-28,37538.5,0.0,37538.5,0,
2025-01-29,37538.5,0.0,37538.5,0,
2025-01-30,37538.5,0.0,37538.5,0,
2025-01-31,37538.5,0.0,37538.5,0,
2025-02-02,37538.5,0.0,37538.5,0,
2025-02-03,37538.5,0.0,37538.5,0,
2025-02-04,37538.5,0.0,37538.5,0,
2025-02-05,37538.5,0.0,37538.5,0,
2025-02-06,37538.5,0.0,37538.5,0,
2025-02-07,37538.5,0.0,37538.5,0,
2025-02-09,37538.5,0.0,37538.5,0,
2025-02-10,37538.5,0.0,37538.5,0,
2025-02-11,37538.5,0.0,37538.5,0,
2025-02-12,37538.5,0.0,37538.5,0,
2025-02-13,37538.5,0.0,37538.5,0,
2025-02-14,37538.5,0.0,37538.5,0,
2025-02-16,37538.5,0.0,37538.5,0,
2025-02-17,37538.5,0.0,37538.5,0,
2025-02-18,37538.5,0.0,37538.5,0,
2025-02-19,37538.5,0.0,37538.5,0,
2025-02-20,37538.5,0.0,37538.5,0,
2025-02-21,37538.5,0.0,37538.5,0,
2025-02-23,37538.5,0.0,37538.5,0,
2025-02-24,37538.5,0.0,37538.5,0,
2025-02-25,37538.5,0.0,37538.5,0,
2025-02-26,37538.5,0.0,37538.5,0,
2025-02-27,37538.5,0.0,37538.5,0,
2025-02-28,37538.5,0.0,37538.5,0,
2025-03-02,37538.5,0.0,37538.5,0,
2025-03-03,37538.5,0.0,37538.5,0,
2025-03-04,37538.5,0.0,37538.5,0,
2025-03-05,37538.5,0.0,37538.5,0,
2025-03-06,37538.5,0.0,37538.5,0,
2025-03-07,37538.5,0.0,37538.5,0,
2025-03-09,37538.5,0.0,37538.5,0,
2025-03-10,37538.5,0.0,37538.5,0,
2025-03-11,37538.5,0.0,37538.5,0,
2025-03-12,37538.5,0.0,37538.5,0,
2025-03-13,37538.5,0.0,37538.5,0,
2025-03-14,37538.5,0.0,37538.5,0,
2025-03-16,37538.5,0.0,37538.5,0,
2025-03-17,37538.5,0.0,37538.5,0,
2025-03-18,37538.5,0.0,37538.5,0,
2025-03-19,37538.5,0.0,37538.5,0,
2025-03-20,37538.5,0.0,37538.5,0,
2025-03-21,37538.5,0.0,37538.5,0,
2025-03-23,37538.5,0.0,37538.5,0,
2025-03-24,37538.5,0.0,37538.5,0,
2025-03-25,37538.5,0.0,37538.5,0,
2025-03-26,37538.5,0.0,37538.5,0,
2025-03-27,37538.5,0.0,37538.5,0,
2025-03-28,37538.5,0.0,37538.5,0,
2025-03-30,37538.5,0.0,37538.5,0,
2025-03-31,37538.5,0.0,37538.5,0,
2025-04-01,37538.5,0.0,37538.5,0,
2025-04-02,37538.5,0.0,37538.5,0,
2025-04-03,37538.5,0.0,37538.5,0,
2025-04-04,37538.5,0.0,37538.5,0,
2025-04-06,37538.5,0.0,37538.5,0,
2025-04-07,37538.5,0.0,37538.5,0,
2025-04-08,37538.5,0.0,37538.5,0,
2025-04-09,37538.5,0.0,37538.5,0,
2025-04-10,37538.5,0.0,37538.5,0,
2025-04-11,37538.5,0.0,37538.5,0,
2025-04-13,37538.5,0.0,37538.5,0,
2025-04-14,37538.5,0.0,37538.5,0,
2025-04-15,37538.5,0.0,37538.5,0,
2025-04-16,37538.5,0.0,37538.5,0,
2025-04-17,37538.5,0.0,37538.5,0,
2025-04-20,37538.5,0.0,37538.5,0,
2025-04-21,37538.5,0.0,37538.5,0,
2025-04-22,37538.5,0.0,37538.5,0,
2025-04-23,37538.5,0.0,37538.5,0,
2025-04-24,37538.5,0.0,37538.5,0,
2025-04-25,37538.5,0.0,37538.5,0,
2025-04-27,37538.5,0.0,37538.5,0,
2025-04-28,37538.5,0.0,37538.5,0,
2025-04-29,37538.5,0.0,37538.5,0,
2025-04-30,37538.5,0.0,37538.5,0,
2025-05-01,37538.5,0.0,37538.5,0,
2025-05-02,37538.5,0.0,37538.5,0,
2025-05-04,37538.5,0.0,37538.5,0,
2025-05-05,37538.5,0.0,37538.5,0,
2025-05-06,37538.5,0.0,37538.5,0,
2025-05-07,37538.5,0.0,37538.5,0,
2025-05-08,37538.5,0.0,37538.5,0,
2025-05-09,37538.5,0.0,37538.5,0,
2025-05-11,37538.5,0.0,37538.5,0,
2025-05-12,37538.5,0.0,37538.5,0,
2025-05-13,37538.5,0.0,37538.5,0,
2025-05-14,37538.5,0.0,37538.5,0,
2025-05-15,37538.5,0.0,37538.5,0,
2025-05-16,37538.5,0.0,37538.5,0,
2025-05-18,37538.5,0.0,37538.5,0,
2025-05-19,37538.5,0.0,37538.5,0,
2025-05-20,37538.5,0.0,37538.5,0,
2025-05-21,37538.5,0.0,37538.5,0,
2025-05-22,37538.5,0.0,37538.5,0,
2025-05-23,37538.5,0.0,37538.5,0,
2025-05-25,37538.5,0.0,37538.5,0,
2025-05-26,37538.5,0.0,37538.5,0,
2025-05-27,37538.5,0.0,37538.5,0,
2025-05-28,37538.5,0.0,37538.5,0,
2025-05-29,37538.5,0.0,37538.5,0,
2025-05-30,37538.5,0.0,37538.5,0,
2025-06-01,37538.5,0.0,37538.5,0,
2025-06-02,37538.5,0.0,37538.5,0,
2025-06-03,37538.5,0.0,37538.5,0,
2025-06-04,37538.5,0.0,37538.5,0,
2025-06-05,37538.5,0.0,37538.5,0,
2025-06-06,37538.5,0.0,37538.5,0,
2025-06-08,37538.5,0.0,37538.5,0,
2025-06-09,37538.5,0.0,37538.5,0,
2025-06-10,37538.5,0.0,37538.5,0,
2025-06-11,37538.5,0.0,37538.5,0,
2025-06-12,37538.5,0.0,37538.5,0,
2025-06-13,37538.5,0.0,37538.5,0,
2025-06-15,37538.5,0.0,37538.5,0,
2025-06-16,37538.5,0.0,37538.5,0,
2025-06-17,37538.5,0.0,37538.5,0,
2025-06-18,37538.5,0.0,37538.5,0,
2025-06-19,37538.5,0.0,37538.5,0,
2025-06-20,37538.5,0.0,37538.5,0,
2025-06-22,37538.5,0.0,37538.5,0,
2025-06-23,37538.5,0.0,37538.5,0,
2025-06-24,37538.5,0.0,37538.5,0,
2025-06-25,37538.5,0.0,37538.5,0,
2025-06-26,37538.5,0.0,37538.5,0,
2025-06-27,37538.5,0.0,37538.5,0,
2025-06-29,37538.5,0.0,37538.5,0,
2025-06-30,37538.5,0.0,37538.5,0,
2025-07-01,37538.5,0.0,37538.5,0,
2025-07-02,37538.5,0.0,37538.5,0,
2025-07-03,37538.5,0.0,37538.5,0,
2025-07-04,37538.5,0.0,37538.5,0,
2025-07-06,37538.5,0.0,37538.5,0,
2025-07-07,37538.5,0.0,37538.5,0,
2025-07-08,37538.5,0.0,37538.5,0,
2025-07-09,37538.5,0.0,37538.5,0,
2025-07-10,37538.5,0.0,37538.5,0,
2025-07-11,37538.5,0.0,37538.5,0,
2025-07-13,37538.5,0.0,37538.5,0,
2025-07-14,37538.5,0.0,37538.5,0,
2025-07-15,37538.5,0.0,37538.5,0,
2025-07-16,37538.5,0.0,37538.5,0,
2025-07-17,37538.5,0.0,37538.5,0,
2025-07-18,37538.5,0.0,37538.5,0,
2025-07-20,37538.5,0.0,37538.5,0,
2025-07-21,37538.5,0.0,37538.5,0,
2025-07-22,37538.5,0.0,37538.5,0,
2025-07-23,37538.5,0.0,37538.5,0,
2025-07-24,37538.5,0.0,37538.5,0,
2025-07-25,37538.5,0.0,37538.5,0,
2025-07-27,37538.5,0.0,37538.5,0,
2025-07-28,37538.5,0.0,37538.5,0,
2025-07-29,37538.5,0.0,37538.5,0,
2025-07-30,37538.5,0.0,37538.5,0,
2025-07-31,37538.5,0.0,37538.5,0,
2025-08-01,37538.5,0.0,37538.5,0,
2025-08-03,37538.5,0.0,37538.5,0,
2025-08-04,37538.5,0.0,37538.5,0,
2025-08-05,37538.5,0.0,37538.5,0,
2025-08-06,37538.5,0.0,37538.5,0,
2025-08-07,37538.5,0.0,37538.5,0,
2025-08-08,37538.5,0.0,37538.5,0,
2025-08-10,37538.5,-178.5,37360.0,3,Long
2025-08-11,37357.75,0.0,37357.75,0,
2025-08-12,37357.75,0.0,37357.75,0,
2025-08-13,37357.75,-31.5,37326.25,3,Long
2025-08-14,37357.75,-213.0,37144.75,3,Long
2025-08-15,37357.75,-489.75,36868.0,3,Long
2025-08-17,37357.75,-326.25,37031.5,3,Long
2025-08-18,37357.75,-465.0,36892.75,3,Long
2025-08-19,37357.75,-1613.25,35744.5,3,Long
2025-08-20,35746.75,0.0,35746.75,0,
2025-08-21,35746.75,0.0,35746.75,0,
2025-08-22,35746.75,0.0,35746.75,0,
2025-08-24,35746.75,0.0,35746.75,0,
2025-08-25,35746.75,0.0,35746.75,0,
2025-08-26,35746.75,0.0,35746.75,0,
2025-08-27,35746.75,0.0,35746.75,0,
2025-08-28,35746.75,0.0,35746.75,0,
2025-08-29,35746.75,0.0,35746.75,0,
2025-08-31,35746.75,0.0,35746.75,0,
2025-09-01,35746.75,0.0,35746.75,0,
2025-09-02,35746.75,0.0,35746.75,0,
2025-09-03,35746.75,0.0,35746.75,0,
2025-09-04,35746.75,0.0,35746.75,0,
2025-09-05,35746.75,0.0,35746.75,0,
2025-09-07,35746.75,0.0,35746.75,0,
2025-09-08,35746.75,87.75,35834.5,3,Long
2025-09-09,35746.75,323.25,36070.0,3,Long
2025-09-10,35746.75,368.25,36115.0,3,Long
2025-09-11,35746.75,723.75,36470.5,3,Long
2025-09-12,35746.75,1009.5,36756.25,3,Long
2025-09-14,35746.75,999.0,36745.75,3,Long
2025-09-15,35746.75,1581.0,37327.75,3,Long
2025-09-16,35746.75,2295.0,38041.75,3,Long
2025-09-17,35746.75,2418.0,38164.75,3,Long
2025-09-18,35746.75,2886.0,38632.75,3,Long
2025-09-19,35746.75,3267.0,39013.75,4,Long
2025-09-21,35746.75,3227.0,38973.75,4,Long
2025-09-22,35746.75,3812.0,39558.75,4,Long
2025-09-23,35746.75,3185.0,38931.75,4,Long
2025-09-24,35746.75,2845.0,38591.75,4,Long
2025-09-25,35746.75,2289.0,38035.75,4,Long
2025-09-26,35746.75,2732.0,38478.75,4,Long
2025-09-28,35746.75,2911.0,38657.75,4,Long
2025-09-29,35746.75,3118.0,38864.75,4,Long
2025-09-30,35746.75,3143.0,38889.75,4,Long
2025-10-01,35746.75,3912.0,39658.75,4,Long
2025-10-02,35746.75,4319.0,40065.75,4,Long
2025-10-03,35746.75,3710.75,39457.5,5,Long
2025-10-05,35746.75,4137.0,39883.75,5,Long
2025-10-06,35746.75,4513.25,40260.0,5,Long
2025-10-07,35746.75,3970.75,39717.5,5,Long
2025-10-08,35746.75,5698.25,41445.0,5,Long
2025-10-09,35746.75,5478.25,41225.0,5,Long
2025-10-10,41227.5,0.0,41227.5,0,
2025-10-12,41227.5,0.0,41227.5,0,
2025-10-13,41227.5,0.0,41227.5,0,
2025-10-14,41227.5,0.0,41227.5,0,
2025-10-15,41227.5,0.0,41227.5,0,
2025-10-16,41227.5,0.0,41227.5,0,
2025-10-17,41227.5,0.0,41227.5,0,
2025-10-19,41227.5,0.0,41227.5,0,
2025-10-20,41227.5,0.0,41227.5,0,
2025-10-21,41227.5,0.0,41227.5,0,
2025-10-22,41227.5,0.0,41227.5,0,
2025-10-23,41227.5,0.0,41227.5,0,
2025-10-24,41227.5,0.0,41227.5,0,
2025-10-26,41227.5,0.0,41227.5,0,
2025-10-27,41227.5,833.25,42060.75,3,Long
2025-10-28,41227.5,1401.0,42628.5,3,Long
2025-10-29,41227.5,1556.25,42783.75,3,Long
2025-10-30,41227.5,1360.5,42588.0,3,Long
2025-10-31,41227.5,800.25,42027.75,3,Long
2025-11-02,41227.5,1091.25,42318.75,3,Long
2025-11-03,41227.5,1056.0,42283.5,3,Long
2025-11-04,41227.5,-639.75,40587.75,3,Long
2025-11-05,40589.25,0.0,40589.25,0,
2025-11-06,40589.25,-1368.0,39221.25,3,Long
2025-11-07,39221.25,0.0,39221.25,0,
2025-11-09,39221.25,0.0,39221.25,0,
2025-11-10,39221.25,0.0,39221.25,0,
2025-11-11,39221.25,-275.25,38946.0,3,Long
2025-11-12,38946.75,0.0,38946.75,0,
2025-11-13,38946.75,0.0,38946.75,0,
2025-11-14,38946.75,0.0,38946.75,0,
2025-11-16,38946.75,0.0,38946.75,0,
2025-11-17,38946.75,0.0,38946.75,0,
2025-11-18,38946.75,0.0,38946.75,0,
2025-11-19,38946.75,0.0,38946.75,0,
2025-11-20,38946.75,0.0,38946.75,0,
2025-11-21,38946.75,0.0,38946.75,0,
2025-11-23,38946.75,0.0,38946.75,0,
2025-11-24,38946.75,0.0,38946.75,0,
2025-11-25,38946.75,0.0,38946.75,0,
2025-11-26,38946.75,0.0,38946.75,0,
2025-11-27,38946.75,0.0,38946.75,0,
2025-11-28,38946.75,0.0,38946.75,0,
2025-11-30,38946.75,0.0,38946.75,0,
2025-12-01,38946.75,0.0,38946.75,0,
2025-12-02,38946.75,0.0,38946.75,0,
2025-12-03,38946.75,0.0,38946.75,0,
2025-12-04,38946.75,0.0,38946.75,0,
2025-12-05,38946.75,0.0,38946.75,0,
2025-12-07,38946.75,0.0,38946.75,0,
2025-12-08,38946.75,0.0,38946.75,0,
2025-12-09,38946.75,0.0,38946.75,0,
2025-12-10,38946.75,0.0,38946.75,0,
2025-12-11,38946.75,0.0,38946.75,0,
2025-12-12,38946.75,0.0,38946.75,0,
2025-12-14,38946.75,0.0,38946.75,0,
2025-12-15,38946.75,0.0,38946.75,0,
2025-12-16,38946.75,0.0,38946.75,0,
2025-12-17,38946.75,0.0,38946.75,0,
2025-12-18,38946.75,0.0,38946.75,0,
2025-12-19,38946.75,0.0,38946.75,0,
2025-12-21,38946.75,0.0,38946.75,0,
2025-12-22,38946.75,0.0,38946.75,0,
2025-12-23,38946.75,0.0,38946.75,0,
2025-12-24,38946.75,0.0,38946.75,0,
2025-12-25,38946.75,51.75,38998.5,3,Long
2025-12-26,38946.75,-39.0,38907.75,3,Long
2025-12-28,38943.75,0.0,38943.75,0,
2025-12-29,38943.75,0.0,38943.75,0,
2025-12-30,38943.75,0.0,38943.75,0,
2025-12-31,38943.75,0.0,38943.75,0,
2026-01-01,38943.75,0.0,38943.75,0,
2026-01-02,38943.75,0.0,38943.75,0,
2026-01-04,38943.75,0.0,38943.75,0,
2026-01-05,38943.75,0.0,38943.75,0,
2026-01-06,38943.75,0.0,38943.75,0,
2026-01-07,38943.75,0.0,38943.75,0,
2026-01-08,38943.75,0.0,38943.75,0,
2026-01-09,38943.75,0.0,38943.75,0,
2026-01-11,38943.75,0.0,38943.75,0,
2026-01-12,38943.75,0.0,38943.75,0,
2026-01-13,38943.75,0.0,38943.75,0,
2026-01-14,38943.75,0.0,38943.75,0,
2026-01-15,38943.75,0.0,38943.75,0,
2026-01-16,38943.75,0.0,38943.75,0,
2026-01-18,38943.75,0.0,38943.75,0,
2026-01-19,38943.75,0.0,38943.75,0,
2026-01-20,38943.75,0.0,38943.75,0,
2026-01-21,38943.75,0.0,38943.75,0,
2026-01-22,38943.75,0.0,38943.75,0,
2026-01-23,38943.75,0.0,38943.75,0,
2026-01-25,38943.75,0.0,38943.75,0,
2026-01-26,38943.75,0.0,38943.75,0,
2026-01-27,38943.75,0.0,38943.75,0,
2026-01-28,38943.75,0.0,38943.75,0,
2026-01-29,38943.75,0.0,38943.75,0,
2026-01-30,38943.75,0.0,38943.75,0,
2026-02-01,38943.75,0.0,38943.75,0,
2026-02-02,38943.75,0.0,38943.75,0,
2026-02-03,38943.75,0.0,38943.75,0,
2026-02-04,38943.75,0.0,38943.75,0,
2026-02-05,38943.75,0.0,38943.75,0,
2026-02-06,38943.75,0.0,38943.75,0,
2026-02-08,38943.75,0.0,38943.75,0,
2026-02-09,38943.75,0.0,38943.75,0,
2026-02-10,38943.75,0.0,38943.75,0,
2026-02-11,38943.75,0.0,38943.75,0,
2026-02-12,38943.75,0.0,38943.75,0,
2026-02-13,38943.75,0.0,38943.75,0,
2026-02-15,38943.75,0.0,38943.75,0,
2026-02-16,38943.75,0.0,38943.75,0,
2026-02-17,38943.75,0.0,38943.75,0,
2026-02-18,38943.75,0.0,38943.75,0,
2026-02-19,38943.75,0.0,38943.75,0,
2026-02-20,38943.75,0.0,38943.75,0,
2026-02-22,38943.75,0.0,38943.75,0,
2026-02-23,38943.75,0.0,38943.75,0,
2026-02-24,38943.75,0.0,38943.75,0,
2026-02-25,38943.75,0.0,38943.75,0,
2026-02-26,38943.75,0.0,38943.75,0,
2026-02-27,38943.75,0.0,38943.75,0,
2026-03-01,38943.75,0.0,38943.75,0,
2026-03-02,38943.75,0.0,38943.75,0,
2026-03-03,38943.75,0.0,38943.75,0,
2026-03-04,38943.75,0.0,38943.75,0,
2026-03-05,38943.75,0.0,38943.75,0,
2026-03-06,38943.75,0.0,38943.75,0,
2026-03-08,38943.75,0.0,38943.75,0,
