date,year,bump_level,max_contracts,daily_equity_delta_usd,equity_usd,drawdown_usd,open_units
2019-05-05,2019,0,10,0.0,31798.5,0.0,0
2019-05-06,2019,0,10,0.0,31798.5,0.0,0
2019-05-07,2019,0,10,0.0,31798.5,0.0,0
2019-05-08,2019,0,10,0.0,31798.5,0.0,0
2019-05-09,2019,0,10,0.0,31798.5,0.0,0
2019-05-10,2019,0,10,0.0,31798.5,0.0,0
2019-05-12,2019,0,10,0.0,31798.5,0.0,0
2019-05-13,2019,0,10,0.0,31798.5,0.0,0
2019-05-14,2019,0,10,0.0,31798.5,0.0,0
2019-05-15,2019,0,10,0.0,31798.5,0.0,0
2019-05-16,2019,0,10,0.0,31798.5,0.0,0
2019-05-17,2019,0,10,0.0,31798.5,0.0,0
2019-05-19,2019,0,10,0.0,31798.5,0.0,0
2019-05-20,2019,0,10,0.0,31798.5,0.0,0
2019-05-21,2019,0,10,0.0,31798.5,0.0,0
2019-05-22,2019,0,10,0.0,31798.5,0.0,0
2019-05-23,2019,0,10,0.0,31798.5,0.0,0
2019-05-24,2019,0,10,0.0,31798.5,0.0,0
2019-05-26,2019,0,10,0.0,31798.5,0.0,0
2019-05-27,2019,0,10,0.0,31798.5,0.0,0
2019-05-28,2019,0,10,0.0,31798.5,0.0,0
2019-05-29,2019,0,10,0.0,31798.5,0.0,0
2019-05-30,2019,0,10,0.0,31798.5,0.0,0
2019-05-31,2019,0,10,0.0,31798.5,0.0,0
2019-06-02,2019,0,10,0.0,31798.5,0.0,0
2019-06-03,2019,0,10,0.0,31798.5,0.0,0
2019-06-04,2019,0,10,0.0,31798.5,0.0,0
2019-06-05,2019,0,10,0.0,31798.5,0.0,0
2019-06-06,2019,0,10,106.5,31905.0,0.0,1
2019-06-07,2019,0,10,127.5,32032.5,0.0,1
2019-06-09,2019,0,10,18.5,32051.0,0.0,1
2019-06-10,2019,0,10,30.5,32081.5,0.0,1
2019-06-11,2019,0,10,-39.5,32042.0,-39.5,1
2019-06-12,2019,0,10,-41.0,32001.0,-80.5,1
2019-06-13,2019,0,10,92.0,32093.0,0.0,1
2019-06-14,2019,0,10,-14.0,32079.0,-14.0,2
2019-06-16,2019,0,10,63.0,32142.0,0.0,2
2019-06-17,2019,0,10,-63.0,32079.0,-63.0,2
2019-06-18,2019,0,10,386.0,32465.0,0.0,2
2019-06-19,2019,0,10,98.0,32563.0,0.0,2
2019-06-20,2019,0,10,98.0,32661.0,0.0,2
2019-06-21,2019,0,10,-36.0,32625.0,-36.0,2
2019-06-23,2019,0,10,90.0,32715.0,0.0,2
2019-06-24,2019,0,10,-61.0,32654.0,-61.0,2
2019-06-25,2019,0,10,-146.0,32508.0,-207.0,2
2019-06-26,2019,0,10,47.0,32555.0,-160.0,2
2019-06-27,2019,0,10,-27.0,32528.0,-187.0,2
2019-06-28,2019,0,10,159.0,32687.0,-28.0,4
2019-06-30,2019,0,10,310.0,32997.0,0.0,4
2019-07-01,2019,0,10,-160.0,32837.0,-160.0,4
2019-07-02,2019,0,10,76.0,32913.0,-84.0,4
2019-07-03,2019,0,10,382.0,33295.0,0.0,4
2019-07-04,2019,0,10,70.0,33365.0,0.0,4
2019-07-05,2019,0,10,-178.0,33187.0,-178.0,4
2019-07-07,2019,0,10,-144.0,33043.0,-322.0,4
2019-07-08,2019,0,10,-280.0,32763.0,-602.0,4
2019-07-09,2019,0,10,164.0,32927.0,-438.0,4
2019-07-10,2019,0,10,290.0,33217.0,-148.0,4
2019-07-11,2019,0,10,492.0,33709.0,0.0,4
2019-07-12,2019,0,10,312.0,34021.0,0.0,6
2019-07-14,2019,0,10,75.0,34096.0,0.0,6
2019-07-15,2019,0,10,51.0,34147.0,0.0,6
2019-07-16,2019,0,10,-54.0,34093.0,-54.0,6
2019-07-17,2019,0,10,-555.0,33538.0,-609.0,6
2019-07-18,2019,0,10,474.0,34012.0,-135.0,6
2019-07-19,2019,0,10,-693.0,33319.0,-828.0,6
2019-07-21,2019,0,10,165.0,33484.0,-663.0,6
2019-07-22,2019,0,10,228.0,33712.0,-435.0,6
2019-07-23,2019,0,10,381.0,34093.0,-54.0,6
2019-07-24,2019,0,10,-168.0,33925.0,-222.0,6
2019-07-25,2019,0,10,-402.0,33523.0,-624.0,6
2019-07-26,2019,0,10,-50.0,33473.0,-674.0,8
2019-07-28,2019,0,10,-72.0,33401.0,-746.0,8
2019-07-29,2019,0,10,428.0,33829.0,-318.0,8
2019-07-30,2019,0,10,28.0,33857.0,-290.0,8
2019-07-31,2019,0,10,-1432.0,32425.0,-1722.0,8
2019-08-01,2019,0,10,-8.0,32417.0,-1730.0,0
2019-08-02,2019,0,10,0.0,32417.0,-1730.0,0
2019-08-04,2019,0,10,0.0,32417.0,-1730.0,0
2019-08-05,2019,0,10,0.0,32417.0,-1730.0,0
2019-08-06,2019,0,10,0.0,32417.0,-1730.0,0
2019-08-07,2019,0,10,0.0,32417.0,-1730.0,0
2019-08-08,2019,0,10,0.0,32417.0,-1730.0,0
2019-08-09,2019,0,10,0.0,32417.0,-1730.0,0
2019-08-11,2019,0,10,0.0,32417.0,-1730.0,0
2019-08-12,2019,0,10,0.0,32417.0,-1730.0,0
2019-08-13,2019,0,10,0.0,32417.0,-1730.0,0
2019-08-14,2019,0,10,0.0,32417.0,-1730.0,0
2019-08-15,2019,0,10,0.0,32417.0,-1730.0,0
2019-08-16,2019,0,10,0.0,32417.0,-1730.0,0
2019-08-18,2019,0,10,0.0,32417.0,-1730.0,0
2019-08-19,2019,0,10,0.0,32417.0,-1730.0,0
2019-08-20,2019,0,10,0.0,32417.0,-1730.0,0
2019-08-21,2019,0,10,0.0,32417.0,-1730.0,0
2019-08-22,2019,0,10,0.0,32417.0,-1730.0,0
2019-08-23,2019,0,10,0.0,32417.0,-1730.0,0
2019-08-25,2019,0,10,0.0,32417.0,-1730.0,0
2019-08-26,2019,0,10,0.0,32417.0,-1730.0,0
2019-08-27,2019,0,10,0.0,32417.0,-1730.0,0
2019-08-28,2019,0,10,0.0,32417.0,-1730.0,0
2019-08-29,2019,0,10,0.0,32417.0,-1730.0,0
2019-08-30,2019,0,10,0.0,32417.0,-1730.0,0
2019-09-01,2019,0,10,0.0,32417.0,-1730.0,0
2019-09-02,2019,0,10,0.0,32417.0,-1730.0,0
2019-09-03,2019,0,10,0.0,32417.0,-1730.0,0
2019-09-04,2019,0,10,0.0,32417.0,-1730.0,0
2019-09-05,2019,0,10,65.0,32482.0,-1665.0,1
2019-09-06,2019,0,10,34.0,32516.0,-1631.0,1
2019-09-08,2019,0,10,4.5,32520.5,-1626.5,1
2019-09-09,2019,0,10,-11.0,32509.5,-1637.5,1
2019-09-10,2019,0,10,37.0,32546.5,-1600.5,1
2019-09-11,2019,0,10,191.5,32738.0,-1409.0,1
2019-09-12,2019,0,10,-26.0,32712.0,-1435.0,1
2019-09-13,2019,0,10,-12.0,32700.0,-1447.0,2
2019-09-15,2019,0,10,-135.0,32565.0,-1582.0,2
2019-09-16,2019,0,10,-24.0,32541.0,-1606.0,2
2019-09-17,2019,0,10,9.0,32550.0,-1597.0,2
2019-09-18,2019,0,10,-3.0,32547.0,-1600.0,2
2019-09-19,2019,0,10,27.0,32574.0,-1573.0,2
2019-09-20,2019,0,10,-208.0,32366.0,-1781.0,2
2019-09-22,2019,0,10,101.0,32467.0,-1680.0,2
2019-09-23,2019,0,10,38.0,32505.0,-1642.0,2
2019-09-24,2019,0,10,-150.0,32355.0,-1792.0,2
2019-09-25,2019,0,10,59.0,32414.0,-1733.0,2
2019-09-26,2019,0,10,-92.0,32322.0,-1825.0,2
2019-09-27,2019,0,10,65.0,32387.0,-1760.0,4
2019-09-29,2019,0,10,124.0,32511.0,-1636.0,4
2019-09-30,2019,0,10,186.0,32697.0,-1450.0,4
2019-10-01,2019,0,10,-822.0,31875.0,-2272.0,4
2019-10-02,2019,0,10,0.0,31875.0,-2272.0,0
2019-10-03,2019,0,10,0.0,31875.0,-2272.0,0
2019-10-04,2019,0,10,0.0,31875.0,-2272.0,0
2019-10-06,2019,0,10,0.0,31875.0,-2272.0,0
2019-10-07,2019,0,10,0.0,31875.0,-2272.0,0
2019-10-08,2019,0,10,0.0,31875.0,-2272.0,0
2019-10-09,2019,0,10,0.0,31875.0,-2272.0,0
2019-10-10,2019,0,10,0.0,31875.0,-2272.0,0
2019-10-11,2019,0,10,0.0,31875.0,-2272.0,0
2019-10-13,2019,0,10,0.0,31875.0,-2272.0,0
2019-10-14,2019,0,10,0.0,31875.0,-2272.0,0
2019-10-15,2019,0,10,0.0,31875.0,-2272.0,0
2019-10-16,2019,0,10,-1.5,31873.5,-2273.5,1
2019-10-17,2019,0,10,-1.5,31872.0,-2275.0,0
2019-10-18,2019,0,10,-100.0,31772.0,-2375.0,1
2019-10-20,2019,0,10,-18.5,31753.5,-2393.5,0
2019-10-21,2019,0,10,0.0,31753.5,-2393.5,0
2019-10-22,2019,0,10,0.0,31753.5,-2393.5,0
2019-10-23,2019,0,10,0.0,31753.5,-2393.5,0
2019-10-24,2019,0,10,0.0,31753.5,-2393.5,0
2019-10-25,2019,0,10,0.0,31753.5,-2393.5,0
2019-10-27,2019,0,10,0.0,31753.5,-2393.5,0
2019-10-28,2019,0,10,47.0,31800.5,-2346.5,1
2019-10-29,2019,0,10,-14.0,31786.5,-2360.5,1
2019-10-30,2019,0,10,67.0,31853.5,-2293.5,1
2019-10-31,2019,0,10,-58.5,31795.0,-2352.0,1
2019-11-01,2019,0,10,114.5,31909.5,-2237.5,1
2019-11-03,2019,0,10,28.0,31937.5,-2209.5,1
2019-11-04,2019,0,10,56.0,31993.5,-2153.5,1
2019-11-05,2019,0,10,-12.0,31981.5,-2165.5,1
2019-11-06,2019,0,10,1.0,31982.5,-2164.5,1
2019-11-07,2019,0,10,101.5,32084.0,-2063.0,1
2019-11-08,2019,0,10,27.5,32111.5,-2035.5,2
2019-11-10,2019,0,10,-91.0,32020.5,-2126.5,2
2019-11-11,2019,0,10,82.0,32102.5,-2044.5,2
2019-11-12,2019,0,10,-48.0,32054.5,-2092.5,2
2019-11-13,2019,0,10,154.0,32208.5,-1938.5,2
2019-11-14,2019,0,10,99.0,32307.5,-1839.5,2
2019-11-15,2019,0,10,120.0,32427.5,-1719.5,2
2019-11-17,2019,0,10,-13.0,32414.5,-1732.5,2
2019-11-18,2019,0,10,85.0,32499.5,-1647.5,2
2019-11-19,2019,0,10,-175.0,32324.5,-1822.5,2
2019-11-20,2019,0,10,-124.0,32200.5,-1946.5,2
2019-11-21,2019,0,10,50.0,32250.5,-1896.5,2
2019-11-22,2019,0,10,119.0,32369.5,-1777.5,4
2019-11-24,2019,0,10,138.0,32507.5,-1639.5,4
2019-11-25,2019,0,10,266.0,32773.5,-1373.5,4
2019-11-26,2019,0,10,142.0,32915.5,-1231.5,4
2019-11-27,2019,0,10,-126.0,32789.5,-1357.5,4
2019-11-28,2019,0,10,-10.0,32779.5,-1367.5,4
2019-11-29,2019,0,10,4.0,32783.5,-1363.5,4
2019-12-01,2019,0,10,180.0,32963.5,-1183.5,4
2019-12-02,2019,0,10,-650.0,32313.5,-1833.5,4
2019-12-03,2019,0,10,-2.0,32311.5,-1835.5,0
2019-12-04,2019,0,10,0.0,32311.5,-1835.5,0
2019-12-05,2019,0,10,0.0,32311.5,-1835.5,0
2019-12-06,2019,0,10,0.0,32311.5,-1835.5,0
2019-12-08,2019,0,10,0.0,32311.5,-1835.5,0
2019-12-09,2019,0,10,0.0,32311.5,-1835.5,0
2019-12-10,2019,0,10,0.0,32311.5,-1835.5,0
2019-12-11,2019,0,10,0.0,32311.5,-1835.5,0
2019-12-12,2019,0,10,0.0,32311.5,-1835.5,0
2019-12-13,2019,0,10,-37.5,32274.0,-1873.0,1
2019-12-15,2019,0,10,4.0,32278.0,-1869.0,0
2019-12-16,2019,0,10,0.0,32278.0,-1869.0,0
2019-12-17,2019,0,10,14.0,32292.0,-1855.0,1
2019-12-18,2019,0,10,-9.5,32282.5,-1864.5,1
2019-12-19,2019,0,10,68.0,32350.5,-1796.5,1
2019-12-20,2019,0,10,36.0,32386.5,-1760.5,1
2019-12-22,2019,0,10,12.5,32399.0,-1748.0,1
2019-12-23,2019,0,10,32.0,32431.0,-1716.0,1
2019-12-24,2019,0,10,-26.0,32405.0,-1742.0,1
2019-12-25,2019,0,10,16.5,32421.5,-1725.5,1
2019-12-26,2019,0,10,65.5,32487.0,-1660.0,1
2019-12-27,2019,0,10,-40.0,32447.0,-1700.0,2
2019-12-29,2019,0,10,50.0,32497.0,-1650.0,2
2019-12-30,2019,0,10,-181.0,32316.0,-1831.0,2
2019-12-31,2019,0,10,81.0,32397.0,-1750.0,2
2020-01-01,2020,0,10,43.0,32440.0,-1707.0,2
2020-01-02,2020,0,10,71.0,32511.0,-1636.0,2
2020-01-03,2020,0,10,-59.0,32452.0,-1695.0,2
2020-01-05,2020,0,10,-79.0,32373.0,-1774.0,2
2020-01-06,2020,0,10,189.0,32562.0,-1585.0,2
2020-01-07,2020,0,10,-366.0,32196.0,-1951.0,2
2020-01-08,2020,0,10,448.0,32644.0,-1503.0,2
2020-01-09,2020,0,10,203.0,32847.0,-1300.0,2
2020-01-10,2020,0,10,-219.0,32628.0,-1519.0,4
2020-01-12,2020,0,10,162.0,32790.0,-1357.0,4
2020-01-13,2020,0,10,44.0,32834.0,-1313.0,4
2020-01-14,2020,0,10,-24.0,32810.0,-1337.0,4
2020-01-15,2020,0,10,408.0,33218.0,-929.0,4
2020-01-16,2020,0,10,420.0,33638.0,-509.0,4
2020-01-17,2020,0,10,-6.0,33632.0,-515.0,4
2020-01-19,2020,0,10,54.0,33686.0,-461.0,4
2020-01-20,2020,0,10,-238.0,33448.0,-699.0,4
2020-01-21,2020,0,10,204.0,33652.0,-495.0,4
2020-01-22,2020,0,10,-370.0,33282.0,-865.0,4
2020-01-23,2020,0,10,140.0,33422.0,-725.0,4
2020-01-24,2020,0,10,-533.0,32889.0,-1258.0,6
2020-01-26,2020,0,10,-696.0,32193.0,-1954.0,6
2020-01-27,2020,0,10,9.0,32202.0,-1945.0,0
2020-01-28,2020,0,10,0.0,32202.0,-1945.0,0
2020-01-29,2020,0,10,0.0,32202.0,-1945.0,0
2020-01-30,2020,0,10,0.0,32202.0,-1945.0,0
2020-01-31,2020,0,10,0.0,32202.0,-1945.0,0
2020-02-02,2020,0,10,0.0,32202.0,-1945.0,0
2020-02-03,2020,0,10,0.0,32202.0,-1945.0,0
2020-02-04,2020,0,10,0.0,32202.0,-1945.0,0
2020-02-05,2020,0,10,0.0,32202.0,-1945.0,0
2020-02-06,2020,0,10,-77.5,32124.5,-2022.5,1
2020-02-07,2020,0,10,0.0,32124.5,-2022.5,0
2020-02-09,2020,0,10,0.0,32124.5,-2022.5,0
2020-02-10,2020,0,10,0.0,32124.5,-2022.5,0
2020-02-11,2020,0,10,0.0,32124.5,-2022.5,0
2020-02-12,2020,0,10,0.0,32124.5,-2022.5,0
2020-02-13,2020,0,10,0.0,32124.5,-2022.5,0
2020-02-14,2020,0,10,-44.5,32080.0,-2067.0,1
2020-02-16,2020,0,10,-4.5,32075.5,-2071.5,0
2020-02-17,2020,0,10,0.0,32075.5,-2071.5,0
2020-02-18,2020,0,10,0.0,32075.5,-2071.5,0
2020-02-19,2020,0,10,0.0,32075.5,-2071.5,0
2020-02-20,2020,0,10,0.0,32075.5,-2071.5,0
2020-02-21,2020,0,10,0.0,32075.5,-2071.5,0
2020-02-23,2020,0,10,0.0,32075.5,-2071.5,0
2020-02-24,2020,0,10,0.0,32075.5,-2071.5,0
2020-02-25,2020,0,10,0.0,32075.5,-2071.5,0
2020-02-26,2020,0,10,0.0,32075.5,-2071.5,0
2020-02-27,2020,0,10,0.0,32075.5,-2071.5,0
2020-03-01,2020,0,10,0.0,32075.5,-2071.5,0
2020-03-02,2020,0,10,0.0,32075.5,-2071.5,0
2020-03-03,2020,0,10,0.0,32075.5,-2071.5,0
2020-03-04,2020,0,10,0.0,32075.5,-2071.5,0
2020-03-05,2020,0,10,0.0,32075.5,-2071.5,0
2020-03-06,2020,0,10,0.0,32075.5,-2071.5,0
2020-03-08,2020,0,10,0.0,32075.5,-2071.5,0
2020-03-09,2020,0,10,0.0,32075.5,-2071.5,0
2020-03-10,2020,0,10,0.0,32075.5,-2071.5,0
2020-03-11,2020,0,10,0.0,32075.5,-2071.5,0
2020-03-12,2020,0,10,0.0,32075.5,-2071.5,0
2020-03-13,2020,0,10,0.0,32075.5,-2071.5,0
2020-03-15,2020,0,10,0.0,32075.5,-2071.5,0
2020-03-16,2020,0,10,0.0,32075.5,-2071.5,0
2020-03-17,2020,0,10,0.0,32075.5,-2071.5,0
2020-03-18,2020,0,10,0.0,32075.5,-2071.5,0
2020-03-19,2020,0,10,0.0,32075.5,-2071.5,0
2020-03-20,2020,0,10,0.0,32075.5,-2071.5,0
2020-03-22,2020,0,10,0.0,32075.5,-2071.5,0
2020-03-23,2020,0,10,0.0,32075.5,-2071.5,0
2020-03-24,2020,0,10,0.0,32075.5,-2071.5,0
2020-03-25,2020,0,10,0.0,32075.5,-2071.5,0
2020-03-26,2020,0,10,0.0,32075.5,-2071.5,0
2020-03-27,2020,0,10,0.0,32075.5,-2071.5,0
2020-03-29,2020,0,10,0.0,32075.5,-2071.5,0
2020-03-30,2020,0,10,0.0,32075.5,-2071.5,0
2020-03-31,2020,0,10,0.0,32075.5,-2071.5,0
2020-04-01,2020,0,10,0.0,32075.5,-2071.5,0
2020-04-02,2020,0,10,0.0,32075.5,-2071.5,0
2020-04-03,2020,0,10,0.0,32075.5,-2071.5,0
2020-04-05,2020,0,10,0.0,32075.5,-2071.5,0
2020-04-06,2020,0,10,0.0,32075.5,-2071.5,0
2020-04-07,2020,0,10,80.5,32156.0,-1991.0,1
2020-04-08,2020,0,10,384.0,32540.0,-1607.0,1
2020-04-09,2020,0,10,205.0,32745.0,-1402.0,1
2020-04-12,2020,0,10,-193.0,32552.0,-1595.0,1
2020-04-13,2020,0,10,163.0,32715.0,-1432.0,1
2020-04-14,2020,0,10,68.0,32783.0,-1364.0,1
2020-04-15,2020,0,10,-245.5,32537.5,-1609.5,1
2020-04-16,2020,0,10,487.0,33024.5,-1122.5,1
2020-04-17,2020,0,10,-46.0,32978.5,-1168.5,1
2020-04-19,2020,0,10,-1.5,32977.0,-1170.0,1
2020-04-20,2020,0,10,-436.0,32541.0,-1606.0,1
2020-04-21,2020,0,10,-154.0,32387.0,-1760.0,1
2020-04-22,2020,0,10,148.0,32535.0,-1612.0,1
2020-04-23,2020,0,10,-7.0,32528.0,-1619.0,1
2020-04-24,2020,0,10,171.5,32699.5,-1447.5,2
2020-04-26,2020,0,10,151.0,32850.5,-1296.5,2
2020-04-27,2020,0,10,133.0,32983.5,-1163.5,2
2020-04-28,2020,0,10,329.0,33312.5,-834.5,2
2020-04-29,2020,0,10,452.0,33764.5,-382.5,2
2020-04-30,2020,0,10,-777.0,32987.5,-1159.5,2
2020-05-01,2020,0,10,-339.0,32648.5,-1498.5,2
2020-05-03,2020,0,10,-109.0,32539.5,-1607.5,2
2020-05-04,2020,0,10,263.0,32802.5,-1344.5,2
2020-05-05,2020,0,10,33.0,32835.5,-1311.5,2
2020-05-06,2020,0,10,-140.0,32695.5,-1451.5,2
2020-05-07,2020,0,10,493.0,33188.5,-958.5,2
2020-05-08,2020,0,10,240.0,33428.5,-718.5,4
2020-05-10,2020,0,10,284.0,33712.5,-434.5,4
2020-05-11,2020,0,10,-976.0,32736.5,-1410.5,4
2020-05-12,2020,0,10,-682.0,32054.5,-2092.5,4
2020-05-13,2020,0,10,-874.0,31180.5,-2966.5,4
2020-05-14,2020,0,10,732.0,31912.5,-2234.5,4
2020-05-15,2020,0,10,66.0,31978.5,-2168.5,4
2020-05-17,2020,0,10,432.0,32410.5,-1736.5,4
2020-05-18,2020,0,10,1332.0,33742.5,-404.5,4
2020-05-19,2020,0,10,-288.0,33454.5,-692.5,4
2020-05-20,2020,0,10,124.0,33578.5,-568.5,4
2020-05-21,2020,0,10,-300.0,33278.5,-868.5,4
2020-05-22,2020,0,10,534.0,33812.5,-334.5,6
2020-05-24,2020,0,10,141.0,33953.5,-193.5,6
2020-05-25,2020,0,10,999.0,34952.5,0.0,6
2020-05-26,2020,0,10,987.0,35939.5,0.0,6
2020-05-27,2020,0,10,1341.0,37280.5,0.0,6
2020-05-28,2020,0,10,-843.0,36437.5,-843.0,6
2020-05-29,2020,0,10,474.0,36911.5,-369.0,6
2020-05-31,2020,0,10,-432.0,36479.5,-801.0,6
2020-06-01,2020,0,10,9.0,36488.5,-792.0,6
2020-06-02,2020,0,10,1338.0,37826.5,0.0,6
2020-06-03,2020,0,10,1191.0,39017.5,0.0,6
2020-06-04,2020,0,10,606.0,39623.5,0.0,6
2020-06-05,2020,0,10,1987.0,41610.5,0.0,8
2020-06-07,2020,0,10,304.0,41914.5,0.0,8
2020-06-08,2020,0,10,1548.0,43462.5,0.0,8
2020-06-09,2020,0,10,-388.0,43074.5,-388.0,8
2020-06-10,2020,0,10,-3168.0,39906.5,-3556.0,8
2020-06-11,2020,0,10,-4.0,39902.5,-3560.0,0
2020-06-12,2020,0,10,0.0,39902.5,-3560.0,0
2020-06-14,2020,0,10,0.0,39902.5,-3560.0,0
2020-06-15,2020,0,10,0.0,39902.5,-3560.0,0
2020-06-16,2020,0,10,0.0,39902.5,-3560.0,0
2020-06-17,2020,0,10,0.0,39902.5,-3560.0,0
2020-06-18,2020,0,10,0.0,39902.5,-3560.0,0
2020-06-19,2020,0,10,0.0,39902.5,-3560.0,0
2020-06-21,2020,0,10,0.0,39902.5,-3560.0,0
2020-06-22,2020,0,10,0.0,39902.5,-3560.0,0
2020-06-23,2020,0,10,0.0,39902.5,-3560.0,0
2020-06-24,2020,0,10,0.0,39902.5,-3560.0,0
2020-06-25,2020,0,10,0.0,39902.5,-3560.0,0
2020-06-26,2020,0,10,0.0,39902.5,-3560.0,0
2020-06-28,2020,0,10,0.0,39902.5,-3560.0,0
2020-06-29,2020,0,10,0.0,39902.5,-3560.0,0
2020-06-30,2020,0,10,0.0,39902.5,-3560.0,0
2020-07-01,2020,0,10,0.0,39902.5,-3560.0,0
2020-07-02,2020,0,10,0.0,39902.5,-3560.0,0
2020-07-03,2020,0,10,0.0,39902.5,-3560.0,0
2020-07-05,2020,0,10,0.0,39902.5,-3560.0,0
2020-07-06,2020,0,10,0.0,39902.5,-3560.0,0
2020-07-07,2020,0,10,0.0,39902.5,-3560.0,0
2020-07-08,2020,0,10,0.0,39902.5,-3560.0,0
2020-07-09,2020,0,10,0.0,39902.5,-3560.0,0
2020-07-10,2020,0,10,0.0,39902.5,-3560.0,0
2020-07-12,2020,0,10,0.0,39902.5,-3560.0,0
2020-07-13,2020,0,10,0.0,39902.5,-3560.0,0
2020-07-14,2020,0,10,0.0,39902.5,-3560.0,0
2020-07-15,2020,0,10,0.0,39902.5,-3560.0,0
2020-07-16,2020,0,10,0.0,39902.5,-3560.0,0
2020-07-17,2020,0,10,0.0,39902.5,-3560.0,0
2020-07-19,2020,0,10,0.0,39902.5,-3560.0,0
2020-07-20,2020,0,10,0.0,39902.5,-3560.0,0
2020-07-21,2020,0,10,0.0,39902.5,-3560.0,0
2020-07-22,2020,0,10,0.0,39902.5,-3560.0,0
2020-07-23,2020,0,10,0.0,39902.5,-3560.0,0
2020-07-24,2020,0,10,0.0,39902.5,-3560.0,0
2020-07-26,2020,0,10,0.0,39902.5,-3560.0,0
2020-07-27,2020,0,10,0.0,39902.5,-3560.0,0
2020-07-28,2020,0,10,0.0,39902.5,-3560.0,0
2020-07-29,2020,0,10,0.0,39902.5,-3560.0,0
2020-07-30,2020,0,10,0.0,39902.5,-3560.0,0
2020-07-31,2020,0,10,0.0,39902.5,-3560.0,0
2020-08-02,2020,0,10,0.0,39902.5,-3560.0,0
2020-08-03,2020,0,10,0.0,39902.5,-3560.0,0
2020-08-04,2020,0,10,0.0,39902.5,-3560.0,0
2020-08-05,2020,0,10,0.0,39902.5,-3560.0,0
2020-08-06,2020,0,10,31.0,39933.5,-3529.0,1
2020-08-07,2020,0,10,102.5,40036.0,-3426.5,1
2020-08-09,2020,0,10,26.0,40062.0,-3400.5,1
2020-08-10,2020,0,10,186.0,40248.0,-3214.5,1
2020-08-11,2020,0,10,-55.0,40193.0,-3269.5,1
2020-08-12,2020,0,10,100.0,40293.0,-3169.5,1
2020-08-13,2020,0,10,-8.5,40284.5,-3178.0,1
2020-08-14,2020,0,10,-3.0,40281.5,-3181.0,2
2020-08-16,2020,0,10,101.0,40382.5,-3080.0,2
2020-08-17,2020,0,10,-138.0,40244.5,-3218.0,2
2020-08-18,2020,0,10,-11.0,40233.5,-3229.0,2
2020-08-19,2020,0,10,-274.0,39959.5,-3503.0,2
2020-08-20,2020,0,10,261.0,40220.5,-3242.0,2
2020-08-21,2020,0,10,119.0,40339.5,-3123.0,2
2020-08-23,2020,0,10,69.0,40408.5,-3054.0,2
2020-08-24,2020,0,10,466.0,40874.5,-2588.0,2
2020-08-25,2020,0,10,-235.0,40639.5,-2823.0,2
2020-08-26,2020,0,10,101.0,40740.5,-2722.0,2
2020-08-27,2020,0,10,422.0,41162.5,-2300.0,2
2020-08-28,2020,0,10,-109.0,41053.5,-2409.0,4
2020-08-30,2020,0,10,290.0,41343.5,-2119.0,4
2020-08-31,2020,0,10,-664.0,40679.5,-2783.0,4
2020-09-01,2020,0,10,512.0,41191.5,-2271.0,4
2020-09-02,2020,0,10,796.0,41987.5,-1475.0,4
2020-09-03,2020,0,10,-1662.0,40325.5,-3137.0,4
2020-09-04,2020,0,10,-396.0,39929.5,-3533.0,4
2020-09-06,2020,0,10,142.0,40071.5,-3391.0,4
2020-09-07,2020,0,10,278.0,40349.5,-3113.0,4
2020-09-08,2020,0,10,2.0,40351.5,-3111.0,0
2020-09-09,2020,0,10,0.0,40351.5,-3111.0,0
2020-09-10,2020,0,10,0.0,40351.5,-3111.0,0
2020-09-11,2020,0,10,0.0,40351.5,-3111.0,0
2020-09-13,2020,0,10,0.0,40351.5,-3111.0,0
2020-09-14,2020,0,10,0.0,40351.5,-3111.0,0
2020-09-15,2020,0,10,0.0,40351.5,-3111.0,0
2020-09-16,2020,0,10,0.0,40351.5,-3111.0,0
2020-09-17,2020,0,10,0.0,40351.5,-3111.0,0
2020-09-18,2020,0,10,0.0,40351.5,-3111.0,0
2020-09-20,2020,0,10,0.0,40351.5,-3111.0,0
2020-09-21,2020,0,10,0.0,40351.5,-3111.0,0
2020-09-22,2020,0,10,0.0,40351.5,-3111.0,0
2020-09-23,2020,0,10,0.0,40351.5,-3111.0,0
2020-09-24,2020,0,10,0.0,40351.5,-3111.0,0
2020-09-25,2020,0,10,0.0,40351.5,-3111.0,0
2020-09-27,2020,0,10,0.0,40351.5,-3111.0,0
2020-09-28,2020,0,10,0.0,40351.5,-3111.0,0
2020-09-29,2020,0,10,0.0,40351.5,-3111.0,0
2020-09-30,2020,0,10,0.0,40351.5,-3111.0,0
2020-10-01,2020,0,10,0.0,40351.5,-3111.0,0
2020-10-02,2020,0,10,0.0,40351.5,-3111.0,0
2020-10-04,2020,0,10,0.0,40351.5,-3111.0,0
2020-10-05,2020,0,10,0.0,40351.5,-3111.0,0
2020-10-06,2020,0,10,0.0,40351.5,-3111.0,0
2020-10-07,2020,0,10,0.0,40351.5,-3111.0,0
2020-10-08,2020,0,10,0.0,40351.5,-3111.0,0
2020-10-09,2020,0,10,52.5,40404.0,-3058.5,1
2020-10-11,2020,0,10,-18.5,40385.5,-3077.0,1
2020-10-12,2020,0,10,90.0,40475.5,-2987.0,1
2020-10-13,2020,0,10,-19.5,40456.0,-3006.5,1
2020-10-14,2020,0,10,-176.5,40279.5,-3183.0,1
2020-10-15,2020,0,10,-0.5,40279.0,-3183.5,0
2020-10-16,2020,0,10,0.0,40279.0,-3183.5,0
2020-10-18,2020,0,10,0.0,40279.0,-3183.5,0
2020-10-19,2020,0,10,-186.0,40093.0,-3369.5,1
2020-10-20,2020,0,10,0.0,40093.0,-3369.5,0
2020-10-21,2020,0,10,0.0,40093.0,-3369.5,0
2020-10-22,2020,0,10,0.0,40093.0,-3369.5,0
2020-10-23,2020,0,10,0.0,40093.0,-3369.5,0
2020-10-25,2020,0,10,0.0,40093.0,-3369.5,0
2020-10-26,2020,0,10,0.0,40093.0,-3369.5,0
2020-10-27,2020,0,10,0.0,40093.0,-3369.5,0
2020-10-28,2020,0,10,0.0,40093.0,-3369.5,0
2020-10-29,2020,0,10,0.0,40093.0,-3369.5,0
2020-10-30,2020,0,10,0.0,40093.0,-3369.5,0
2020-11-01,2020,0,10,0.0,40093.0,-3369.5,0
2020-11-02,2020,0,10,0.0,40093.0,-3369.5,0
2020-11-03,2020,0,10,0.0,40093.0,-3369.5,0
2020-11-04,2020,0,10,0.0,40093.0,-3369.5,0
2020-11-05,2020,0,10,100.0,40193.0,-3269.5,1
2020-11-06,2020,0,10,74.0,40267.0,-3195.5,1
2020-11-08,2020,0,10,154.0,40421.0,-3041.5,1
2020-11-09,2020,0,10,118.0,40539.0,-2923.5,1
2020-11-10,2020,0,10,282.0,40821.0,-2641.5,1
2020-11-11,2020,0,10,-159.0,40662.0,-2800.5,1
2020-11-12,2020,0,10,-48.0,40614.0,-2848.5,1
2020-11-13,2020,0,10,206.0,40820.0,-2642.5,2
2020-11-15,2020,0,10,236.0,41056.0,-2406.5,2
2020-11-16,2020,0,10,133.0,41189.0,-2273.5,2
2020-11-17,2020,0,10,-113.0,41076.0,-2386.5,2
2020-11-18,2020,0,10,-302.0,40774.0,-2688.5,2
2020-11-19,2020,0,10,-108.0,40666.0,-2796.5,2
2020-11-20,2020,0,10,-85.0,40581.0,-2881.5,2
2020-11-22,2020,0,10,123.0,40704.0,-2758.5,2
2020-11-23,2020,0,10,524.0,41228.0,-2234.5,2
2020-11-24,2020,0,10,224.0,41452.0,-2010.5,2
2020-11-25,2020,0,10,-201.0,41251.0,-2211.5,2
2020-11-26,2020,0,10,-49.0,41202.0,-2260.5,2
2020-11-27,2020,0,10,94.0,41296.0,-2166.5,4
2020-11-29,2020,0,10,-418.0,40878.0,-2584.5,4
2020-11-30,2020,0,10,366.0,41244.0,-2218.5,4
2020-12-01,2020,0,10,-346.0,40898.0,-2564.5,4
2020-12-02,2020,0,10,276.0,41174.0,-2288.5,4
2020-12-03,2020,0,10,318.0,41492.0,-1970.5,4
2020-12-04,2020,0,10,320.0,41812.0,-1650.5,4
2020-12-06,2020,0,10,-18.0,41794.0,-1668.5,4
2020-12-07,2020,0,10,-296.0,41498.0,-1964.5,4
2020-12-08,2020,0,10,556.0,42054.0,-1408.5,4
2020-12-09,2020,0,10,-358.0,41696.0,-1766.5,4
2020-12-10,2020,0,10,-168.0,41528.0,-1934.5,4
2020-12-11,2020,0,10,-80.0,41448.0,-2014.5,6
2020-12-13,2020,0,10,507.0,41955.0,-1507.5,6
2020-12-14,2020,0,10,-1005.0,40950.0,-2512.5,6
2020-12-15,2020,0,10,906.0,41856.0,-1606.5,6
2020-12-16,2020,0,10,177.0,42033.0,-1429.5,6
2020-12-17,2020,0,10,-105.0,41928.0,-1534.5,6
2020-12-18,2020,0,10,495.0,42423.0,-1039.5,6
2020-12-20,2020,0,10,-456.0,41967.0,-1495.5,6
2020-12-21,2020,0,10,-399.0,41568.0,-1894.5,6
2020-12-22,2020,0,10,-342.0,41226.0,-2236.5,6
2020-12-23,2020,0,10,648.0,41874.0,-1588.5,6
2020-12-24,2020,0,10,6.0,41880.0,-1582.5,6
2020-12-27,2020,0,10,423.0,42303.0,-1159.5,6
2020-12-28,2020,0,10,645.0,42948.0,-514.5,6
2020-12-29,2020,0,10,-426.0,42522.0,-940.5,6
2020-12-30,2020,0,10,-6.0,42516.0,-946.5,6
2020-12-31,2020,0,10,543.0,43059.0,-403.5,6
2021-01-03,2021,3,13,39.0,43098.0,-364.5,13
2021-01-04,2021,3,13,-2762.5,40335.5,-3127.0,13
2021-01-05,2021,3,13,981.5,41317.0,-2145.5,13
2021-01-06,2021,3,13,4023.5,45340.5,0.0,13
2021-01-07,2021,3,13,1573.0,46913.5,0.0,13
2021-01-08,2021,3,13,-403.0,46510.5,-403.0,13
2021-01-10,2021,3,13,-1449.5,45061.0,-1852.5,13
2021-01-11,2021,3,13,598.0,45659.0,-1254.5,13
2021-01-12,2021,3,13,968.5,46627.5,-286.0,13
2021-01-13,2021,3,13,299.0,46926.5,0.0,13
2021-01-14,2021,3,13,-1924.0,45002.5,-1924.0,13
2021-01-15,2021,3,13,-1072.5,43930.0,-2996.5,13
2021-01-17,2021,3,13,364.0,44294.0,-2632.5,13
2021-01-18,2021,3,13,1332.5,45626.5,-1300.0,13
2021-01-19,2021,3,13,-500.5,45126.0,-1800.5,13
2021-01-20,2021,3,13,2190.5,47316.5,0.0,13
2021-01-21,2021,3,13,-1020.5,46296.0,-1020.5,13
2021-01-22,2021,3,13,-565.5,45730.5,-1586.0,13
2021-01-24,2021,3,13,578.5,46309.0,-1007.5,13
2021-01-25,2021,3,13,-1911.0,44398.0,-2918.5,13
2021-01-26,2021,3,13,429.0,44827.0,-2489.5,13
2021-01-27,2021,3,13,-3978.0,40849.0,-6467.5,13
2021-01-28,2021,3,13,507.0,41356.0,-5960.5,13
2021-01-29,2021,3,13,-13.0,41343.0,-5973.5,0
2021-01-31,2021,3,13,0.0,41343.0,-5973.5,0
2021-02-01,2021,3,13,0.0,41343.0,-5973.5,0
2021-02-02,2021,3,13,0.0,41343.0,-5973.5,0
2021-02-03,2021,3,13,0.0,41343.0,-5973.5,0
2021-02-04,2021,3,13,0.0,41343.0,-5973.5,0
2021-02-05,2021,3,13,0.0,41343.0,-5973.5,0
2021-02-07,2021,3,13,122.0,41465.0,-5851.5,4
2021-02-08,2021,3,13,144.0,41609.0,-5707.5,4
2021-02-09,2021,3,13,208.0,41817.0,-5499.5,4
2021-02-10,2021,3,13,14.0,41831.0,-5485.5,4
2021-02-11,2021,3,13,-114.0,41717.0,-5599.5,4
2021-02-12,2021,3,13,200.0,41917.0,-5399.5,4
2021-02-14,2021,3,13,248.0,42165.0,-5151.5,4
2021-02-15,2021,3,13,224.0,42389.0,-4927.5,4
2021-02-16,2021,3,13,-392.0,41997.0,-5319.5,4
2021-02-17,2021,3,13,146.0,42143.0,-5173.5,4
2021-02-18,2021,3,13,-360.0,41783.0,-5533.5,4
2021-02-19,2021,3,13,70.0,41853.0,-5463.5,8
2021-02-21,2021,3,13,-84.0,41769.0,-5547.5,8
2021-02-22,2021,3,13,752.0,42521.0,-4795.5,8
2021-02-23,2021,3,13,-664.0,41857.0,-5459.5,8
2021-02-24,2021,3,13,2328.0,44185.0,-3131.5,8
2021-02-25,2021,3,13,-3024.0,41161.0,-6155.5,8
2021-02-26,2021,3,13,-1416.0,39745.0,-7571.5,8
2021-02-28,2021,3,13,296.0,40041.0,-7275.5,0
2021-03-01,2021,3,13,0.0,40041.0,-7275.5,0
2021-03-02,2021,3,13,104.0,40145.0,-7171.5,4
2021-03-03,2021,3,13,-692.0,39453.0,-7863.5,4
2021-03-04,2021,3,13,6.0,39459.0,-7857.5,0
2021-03-05,2021,3,13,0.0,39459.0,-7857.5,0
2021-03-07,2021,3,13,-176.0,39283.0,-8033.5,4
2021-03-08,2021,3,13,1016.0,40299.0,-7017.5,4
2021-03-09,2021,3,13,-362.0,39937.0,-7379.5,4
2021-03-10,2021,3,13,1222.0,41159.0,-6157.5,4
2021-03-11,2021,3,13,352.0,41511.0,-5805.5,4
2021-03-12,2021,3,13,202.0,41713.0,-5603.5,4
2021-03-14,2021,3,13,102.0,41815.0,-5501.5,4
2021-03-15,2021,3,13,146.0,41961.0,-5355.5,4
2021-03-16,2021,3,13,-232.0,41729.0,-5587.5,4
2021-03-17,2021,3,13,566.0,42295.0,-5021.5,4
2021-03-18,2021,3,13,-342.0,41953.0,-5363.5,4
2021-03-19,2021,3,13,-802.0,41151.0,-6165.5,8
2021-03-21,2021,3,13,-332.0,40819.0,-6497.5,8
2021-03-22,2021,3,13,632.0,41451.0,-5865.5,8
2021-03-23,2021,3,13,-1116.0,40335.0,-6981.5,8
2021-03-24,2021,3,13,428.0,40763.0,-6553.5,8
2021-03-25,2021,3,13,708.0,41471.0,-5845.5,8
2021-03-26,2021,3,13,1480.0,42951.0,-4365.5,8
2021-03-28,2021,3,13,-404.0,42547.0,-4769.5,8
2021-03-29,2021,3,13,940.0,43487.0,-3829.5,8
2021-03-30,2021,3,13,-580.0,42907.0,-4409.5,8
2021-03-31,2021,3,13,-348.0,42559.0,-4757.5,8
2021-04-01,2021,3,13,684.0,43243.0,-4073.5,8
2021-04-02,2021,3,13,752.0,43995.0,-3321.5,13
2021-04-04,2021,3,13,260.0,44255.0,-3061.5,13
2021-04-05,2021,3,13,474.5,44729.5,-2587.0,13
2021-04-06,2021,3,13,117.0,44846.5,-2470.0,13
2021-04-07,2021,3,13,221.0,45067.5,-2249.0,13
2021-04-08,2021,3,13,117.0,45184.5,-2132.0,13
2021-04-09,2021,3,13,1553.5,46738.0,-578.5,13
2021-04-11,2021,3,13,-338.0,46400.0,-916.5,13
2021-04-12,2021,3,13,422.5,46822.5,-494.0,13
2021-04-13,2021,3,13,-780.0,46042.5,-1274.0,13
2021-04-14,2021,3,13,981.5,47024.0,-292.5,13
2021-04-15,2021,3,13,1358.5,48382.5,0.0,13
2021-04-16,2021,3,13,1046.5,49429.0,0.0,13
2021-04-18,2021,3,13,-448.5,48980.5,-448.5,13
2021-04-19,2021,3,13,390.0,49370.5,-58.5,13
2021-04-20,2021,3,13,-2444.0,46926.5,-2502.5,13
2021-04-21,2021,3,13,2015.0,48941.5,-487.5,13
2021-04-22,2021,3,13,-1482.0,47459.5,-1969.5,13
2021-04-23,2021,3,13,1040.0,48499.5,-929.5,13
2021-04-25,2021,3,13,448.5,48948.0,-481.0,13
2021-04-26,2021,3,13,-500.5,48447.5,-981.5,13
2021-04-27,2021,3,13,-416.0,48031.5,-1397.5,13
2021-04-28,2021,3,13,-201.5,47830.0,-1599.0,13
2021-04-29,2021,3,13,572.0,48402.0,-1027.0,13
2021-04-30,2021,3,13,-643.5,47758.5,-1670.5,13
2021-05-02,2021,3,13,630.5,48389.0,-1040.0,13
2021-05-03,2021,3,13,416.0,48805.0,-624.0,13
2021-05-04,2021,3,13,962.0,49767.0,0.0,13
2021-05-05,2021,3,13,52.0,49819.0,0.0,13
2021-05-06,2021,3,13,2216.5,52035.5,0.0,13
2021-05-07,2021,3,13,1566.5,53602.0,0.0,13
2021-05-09,2021,3,13,494.0,54096.0,0.0,13
2021-05-10,2021,3,13,-1254.5,52841.5,-1254.5,13
2021-05-11,2021,3,13,-4160.0,48681.5,-5414.5,13
2021-05-12,2021,3,13,-6.5,48675.0,-5421.0,0
2021-05-13,2021,3,13,0.0,48675.0,-5421.0,0
2021-05-14,2021,3,13,0.0,48675.0,-5421.0,0
2021-05-16,2021,3,13,0.0,48675.0,-5421.0,0
2021-05-17,2021,3,13,0.0,48675.0,-5421.0,0
2021-05-18,2021,3,13,0.0,48675.0,-5421.0,0
2021-05-19,2021,3,13,0.0,48675.0,-5421.0,0
2021-05-20,2021,3,13,0.0,48675.0,-5421.0,0
2021-05-21,2021,3,13,0.0,48675.0,-5421.0,0
2021-05-23,2021,3,13,0.0,48675.0,-5421.0,0
2021-05-24,2021,3,13,0.0,48675.0,-5421.0,0
2021-05-25,2021,3,13,0.0,48675.0,-5421.0,0
2021-05-26,2021,3,13,0.0,48675.0,-5421.0,0
2021-05-27,2021,3,13,0.0,48675.0,-5421.0,0
2021-05-28,2021,3,13,0.0,48675.0,-5421.0,0
2021-05-30,2021,3,13,0.0,48675.0,-5421.0,0
2021-05-31,2021,3,13,0.0,48675.0,-5421.0,0
2021-06-01,2021,3,13,0.0,48675.0,-5421.0,0
2021-06-02,2021,3,13,0.0,48675.0,-5421.0,0
2021-06-03,2021,3,13,0.0,48675.0,-5421.0,0
2021-06-04,2021,3,13,0.0,48675.0,-5421.0,0
2021-06-06,2021,3,13,0.0,48675.0,-5421.0,0
2021-06-07,2021,3,13,0.0,48675.0,-5421.0,0
2021-06-08,2021,3,13,0.0,48675.0,-5421.0,0
2021-06-09,2021,3,13,0.0,48675.0,-5421.0,0
2021-06-10,2021,3,13,0.0,48675.0,-5421.0,0
2021-06-11,2021,3,13,0.0,48675.0,-5421.0,0
2021-06-13,2021,3,13,0.0,48675.0,-5421.0,0
2021-06-14,2021,3,13,0.0,48675.0,-5421.0,0
2021-06-15,2021,3,13,0.0,48675.0,-5421.0,0
2021-06-16,2021,3,13,0.0,48675.0,-5421.0,0
2021-06-17,2021,3,13,0.0,48675.0,-5421.0,0
2021-06-18,2021,3,13,0.0,48675.0,-5421.0,0
2021-06-20,2021,3,13,0.0,48675.0,-5421.0,0
2021-06-21,2021,3,13,0.0,48675.0,-5421.0,0
2021-06-22,2021,3,13,0.0,48675.0,-5421.0,0
2021-06-23,2021,3,13,0.0,48675.0,-5421.0,0
2021-06-24,2021,3,13,0.0,48675.0,-5421.0,0
2021-06-25,2021,3,13,288.0,48963.0,-5133.0,4
2021-06-27,2021,3,13,-52.0,48911.0,-5185.0,4
2021-06-28,2021,3,13,-440.0,48471.0,-5625.0,4
2021-06-29,2021,3,13,-2.0,48469.0,-5627.0,0
2021-06-30,2021,3,13,0.0,48469.0,-5627.0,0
2021-07-01,2021,3,13,178.0,48647.0,-5449.0,4
2021-07-02,2021,3,13,190.0,48837.0,-5259.0,4
2021-07-04,2021,3,13,-48.0,48789.0,-5307.0,4
2021-07-05,2021,3,13,212.0,49001.0,-5095.0,4
2021-07-06,2021,3,13,-574.0,48427.0,-5669.0,4
2021-07-07,2021,3,13,82.0,48509.0,-5587.0,4
2021-07-08,2021,3,13,-536.0,47973.0,-6123.0,4
2021-07-09,2021,3,13,6.0,47979.0,-6117.0,0
2021-07-11,2021,3,13,-130.0,47849.0,-6247.0,4
2021-07-12,2021,3,13,356.0,48205.0,-5891.0,4
2021-07-13,2021,3,13,-256.0,47949.0,-6147.0,4
2021-07-14,2021,3,13,36.0,47985.0,-6111.0,4
2021-07-15,2021,3,13,216.0,48201.0,-5895.0,4
2021-07-16,2021,3,13,-626.0,47575.0,-6521.0,4
2021-07-18,2021,3,13,-288.0,47287.0,-6809.0,4
2021-07-19,2021,3,13,-1026.0,46261.0,-7835.0,4
2021-07-20,2021,3,13,-8.0,46253.0,-7843.0,0
2021-07-21,2021,3,13,638.0,46891.0,-7205.0,4
2021-07-22,2021,3,13,84.0,46975.0,-7121.0,4
2021-07-23,2021,3,13,314.0,47289.0,-6807.0,4
2021-07-25,2021,3,13,-240.0,47049.0,-7047.0,4
2021-07-26,2021,3,13,366.0,47415.0,-6681.0,4
2021-07-27,2021,3,13,-208.0,47207.0,-6889.0,4
2021-07-28,2021,3,13,-106.0,47101.0,-6995.0,4
2021-07-29,2021,3,13,94.0,47195.0,-6901.0,4
2021-07-30,2021,3,13,116.0,47311.0,-6785.0,8
2021-08-01,2021,3,13,448.0,47759.0,-6337.0,8
2021-08-02,2021,3,13,-744.0,47015.0,-7081.0,8
2021-08-03,2021,3,13,672.0,47687.0,-6409.0,8
2021-08-04,2021,3,13,-868.0,46819.0,-7277.0,8
2021-08-05,2021,3,13,668.0,47487.0,-6609.0,8
2021-08-06,2021,3,13,716.0,48203.0,-5893.0,8
2021-08-08,2021,3,13,-188.0,48015.0,-6081.0,8
2021-08-09,2021,3,13,-436.0,47579.0,-6517.0,8
2021-08-10,2021,3,13,800.0,48379.0,-5717.0,8
2021-08-11,2021,3,13,1008.0,49387.0,-4709.0,8
2021-08-12,2021,3,13,56.0,49443.0,-4653.0,8
2021-08-13,2021,3,13,-3.5,49439.5,-4656.5,13
2021-08-15,2021,3,13,-747.5,48692.0,-5404.0,13
2021-08-16,2021,3,13,949.0,49641.0,-4455.0,13
2021-08-17,2021,3,13,-1111.5,48529.5,-5566.5,13
2021-08-18,2021,3,13,-2541.5,45988.0,-8108.0,13
2021-08-19,2021,3,13,-598.0,45390.0,-8706.0,13
2021-08-20,2021,3,13,1807.0,47197.0,-6899.0,13
2021-08-22,2021,3,13,864.5,48061.5,-6034.5,13
2021-08-23,2021,3,13,1007.5,49069.0,-5027.0,13
2021-08-24,2021,3,13,-507.0,48562.0,-5534.0,13
2021-08-25,2021,3,13,364.0,48926.0,-5170.0,13
2021-08-26,2021,3,13,-773.5,48152.5,-5943.5,13
2021-08-27,2021,3,13,1332.5,49485.0,-4611.0,13
2021-08-29,2021,3,13,110.5,49595.5,-4500.5,13
2021-08-30,2021,3,13,-201.5,49394.0,-4702.0,13
2021-08-31,2021,3,13,208.0,49602.0,-4494.0,13
2021-09-01,2021,3,13,-1196.0,48406.0,-5690.0,13
2021-09-02,2021,3,13,1514.5,49920.5,-4175.5,13
2021-09-03,2021,3,13,-903.5,49017.0,-5079.0,13
2021-09-05,2021,3,13,58.5,49075.5,-5020.5,13
2021-09-06,2021,3,13,344.5,49420.0,-4676.0,13
2021-09-07,2021,3,13,-2086.5,47333.5,-6762.5,13
2021-09-08,2021,3,13,-1085.5,46248.0,-7848.0,13
2021-09-09,2021,3,13,286.0,46534.0,-7562.0,13
2021-09-10,2021,3,13,-767.0,45767.0,-8329.0,0
2021-09-12,2021,3,13,0.0,45767.0,-8329.0,0
2021-09-13,2021,3,13,0.0,45767.0,-8329.0,0
2021-09-14,2021,3,13,0.0,45767.0,-8329.0,0
2021-09-15,2021,3,13,0.0,45767.0,-8329.0,0
2021-09-16,2021,3,13,0.0,45767.0,-8329.0,0
2021-09-17,2021,3,13,0.0,45767.0,-8329.0,0
2021-09-19,2021,3,13,0.0,45767.0,-8329.0,0
2021-09-20,2021,3,13,0.0,45767.0,-8329.0,0
2021-09-21,2021,3,13,0.0,45767.0,-8329.0,0
2021-09-22,2021,3,13,0.0,45767.0,-8329.0,0
2021-09-23,2021,3,13,0.0,45767.0,-8329.0,0
2021-09-24,2021,3,13,0.0,45767.0,-8329.0,0
2021-09-26,2021,3,13,0.0,45767.0,-8329.0,0
2021-09-27,2021,3,13,0.0,45767.0,-8329.0,0
2021-09-28,2021,3,13,0.0,45767.0,-8329.0,0
2021-09-29,2021,3,13,0.0,45767.0,-8329.0,0
2021-09-30,2021,3,13,0.0,45767.0,-8329.0,0
2021-10-01,2021,3,13,0.0,45767.0,-8329.0,0
2021-10-03,2021,3,13,0.0,45767.0,-8329.0,0
2021-10-04,2021,3,13,0.0,45767.0,-8329.0,0
2021-10-05,2021,3,13,0.0,45767.0,-8329.0,0
2021-10-06,2021,3,13,0.0,45767.0,-8329.0,0
2021-10-07,2021,3,13,0.0,45767.0,-8329.0,0
2021-10-08,2021,3,13,0.0,45767.0,-8329.0,0
2021-10-10,2021,3,13,0.0,45767.0,-8329.0,0
2021-10-11,2021,3,13,0.0,45767.0,-8329.0,0
2021-10-12,2021,3,13,0.0,45767.0,-8329.0,0
2021-10-13,2021,3,13,0.0,45767.0,-8329.0,0
2021-10-14,2021,3,13,0.0,45767.0,-8329.0,0
2021-10-15,2021,3,13,600.0,46367.0,-7729.0,4
2021-10-17,2021,3,13,-8.0,46359.0,-7737.0,4
2021-10-18,2021,3,13,-134.0,46225.0,-7871.0,4
2021-10-19,2021,3,13,434.0,46659.0,-7437.0,4
2021-10-20,2021,3,13,196.0,46855.0,-7241.0,4
2021-10-21,2021,3,13,166.0,47021.0,-7075.0,4
2021-10-22,2021,3,13,-50.0,46971.0,-7125.0,4
2021-10-24,2021,3,13,138.0,47109.0,-6987.0,4
2021-10-25,2021,3,13,210.0,47319.0,-6777.0,4
2021-10-26,2021,3,13,-56.0,47263.0,-6833.0,4
2021-10-27,2021,3,13,-396.0,46867.0,-7229.0,4
2021-10-28,2021,3,13,290.0,47157.0,-6939.0,4
2021-10-29,2021,3,13,420.0,47577.0,-6519.0,8
2021-10-31,2021,3,13,168.0,47745.0,-6351.0,8
2021-11-01,2021,3,13,-252.0,47493.0,-6603.0,8
2021-11-02,2021,3,13,692.0,48185.0,-5911.0,8
2021-11-03,2021,3,13,464.0,48649.0,-5447.0,8
2021-11-04,2021,3,13,-92.0,48557.0,-5539.0,8
2021-11-05,2021,3,13,728.0,49285.0,-4811.0,8
2021-11-07,2021,3,13,48.0,49333.0,-4763.0,8
2021-11-08,2021,3,13,152.0,49485.0,-4611.0,8
2021-11-09,2021,3,13,-532.0,48953.0,-5143.0,8
2021-11-10,2021,3,13,-520.0,48433.0,-5663.0,8
2021-11-11,2021,3,13,-300.0,48133.0,-5963.0,8
2021-11-12,2021,3,13,630.5,48763.5,-5332.5,13
2021-11-14,2021,3,13,-117.0,48646.5,-5449.5,13
2021-11-15,2021,3,13,0.0,48646.5,-5449.5,13
2021-11-16,2021,3,13,370.5,49017.0,-5079.0,13
2021-11-17,2021,3,13,-1280.5,47736.5,-6359.5,13
2021-11-18,2021,3,13,403.0,48139.5,-5956.5,13
2021-11-19,2021,3,13,-2242.5,45897.0,-8199.0,13
2021-11-21,2021,3,13,487.5,46384.5,-7711.5,13
2021-11-22,2021,3,13,-357.5,46027.0,-8069.0,13
2021-11-23,2021,3,13,539.5,46566.5,-7529.5,13
2021-11-24,2021,3,13,1170.0,47736.5,-6359.5,13
2021-11-25,2021,3,13,6.5,47743.0,-6353.0,0
2021-11-26,2021,3,13,0.0,47743.0,-6353.0,0
2021-11-28,2021,3,13,0.0,47743.0,-6353.0,0
2021-11-29,2021,3,13,0.0,47743.0,-6353.0,0
2021-11-30,2021,3,13,0.0,47743.0,-6353.0,0
2021-12-01,2021,3,13,0.0,47743.0,-6353.0,0
2021-12-02,2021,3,13,0.0,47743.0,-6353.0,0
2021-12-03,2021,3,13,0.0,47743.0,-6353.0,0
2021-12-05,2021,3,13,0.0,47743.0,-6353.0,0
2021-12-06,2021,3,13,0.0,47743.0,-6353.0,0
2021-12-07,2021,3,13,0.0,47743.0,-6353.0,0
2021-12-08,2021,3,13,-246.0,47497.0,-6599.0,4
2021-12-09,2021,3,13,-2.0,47495.0,-6601.0,0
2021-12-10,2021,3,13,0.0,47495.0,-6601.0,0
2021-12-12,2021,3,13,238.0,47733.0,-6363.0,4
2021-12-13,2021,3,13,-832.0,46901.0,-7195.0,4
2021-12-14,2021,3,13,-4.0,46897.0,-7199.0,0
2021-12-15,2021,3,13,0.0,46897.0,-7199.0,0
2021-12-16,2021,3,13,-202.0,46695.0,-7401.0,4
2021-12-17,2021,3,13,2.0,46697.0,-7399.0,0
2021-12-19,2021,3,13,0.0,46697.0,-7399.0,0
2021-12-20,2021,3,13,0.0,46697.0,-7399.0,0
2021-12-21,2021,3,13,0.0,46697.0,-7399.0,0
2021-12-22,2021,3,13,0.0,46697.0,-7399.0,0
2021-12-23,2021,3,13,0.0,46697.0,-7399.0,0
2021-12-26,2021,3,13,-24.0,46673.0,-7423.0,4
2021-12-27,2021,3,13,626.0,47299.0,-6797.0,4
2021-12-28,2021,3,13,302.0,47601.0,-6495.0,4
2021-12-29,2021,3,13,140.0,47741.0,-6355.0,4
2021-12-30,2021,3,13,-288.0,47453.0,-6643.0,4
2021-12-31,2021,3,13,68.0,47521.0,-6575.0,4
2022-01-02,2022,4,14,225.0,47746.0,-6350.0,5
2022-01-03,2022,4,14,395.0,48141.0,-5955.0,5
2022-01-04,2022,4,14,240.0,48381.0,-5715.0,5
2022-01-05,2022,4,14,-1057.5,47323.5,-6772.5,5
2022-01-06,2022,4,14,52.5,47376.0,-6720.0,5
2022-01-07,2022,4,14,-287.5,47088.5,-7007.5,10
2022-01-09,2022,4,14,-65.0,47023.5,-7072.5,10
2022-01-10,2022,4,14,-790.0,46233.5,-7862.5,10
2022-01-11,2022,4,14,1085.0,47318.5,-6777.5,10
2022-01-12,2022,4,14,-220.0,47098.5,-6997.5,10
2022-01-13,2022,4,14,-540.0,46558.5,-7537.5,10
2022-01-14,2022,4,14,-915.0,45643.5,-8452.5,10
2022-01-16,2022,4,14,-465.0,45178.5,-8917.5,10
2022-01-17,2022,4,14,-5.0,45173.5,-8922.5,0
2022-01-18,2022,4,14,0.0,45173.5,-8922.5,0
2022-01-19,2022,4,14,0.0,45173.5,-8922.5,0
2022-01-20,2022,4,14,0.0,45173.5,-8922.5,0
2022-01-21,2022,4,14,0.0,45173.5,-8922.5,0
2022-01-23,2022,4,14,0.0,45173.5,-8922.5,0
2022-01-24,2022,4,14,0.0,45173.5,-8922.5,0
2022-01-25,2022,4,14,0.0,45173.5,-8922.5,0
2022-01-26,2022,4,14,0.0,45173.5,-8922.5,0
2022-01-27,2022,4,14,0.0,45173.5,-8922.5,0
2022-01-28,2022,4,14,0.0,45173.5,-8922.5,0
2022-01-30,2022,4,14,0.0,45173.5,-8922.5,0
2022-01-31,2022,4,14,0.0,45173.5,-8922.5,0
2022-02-01,2022,4,14,0.0,45173.5,-8922.5,0
2022-02-02,2022,4,14,0.0,45173.5,-8922.5,0
2022-02-03,2022,4,14,-777.5,44396.0,-9700.0,5
2022-02-04,2022,4,14,-2.5,44393.5,-9702.5,0
2022-02-06,2022,4,14,0.0,44393.5,-9702.5,0
2022-02-07,2022,4,14,0.0,44393.5,-9702.5,0
2022-02-08,2022,4,14,0.0,44393.5,-9702.5,0
2022-02-09,2022,4,14,407.5,44801.0,-9295.0,5
2022-02-10,2022,4,14,-1807.5,42993.5,-11102.5,5
2022-02-11,2022,4,14,2.5,42996.0,-11100.0,0
2022-02-13,2022,4,14,0.0,42996.0,-11100.0,0
2022-02-14,2022,4,14,0.0,42996.0,-11100.0,0
2022-02-15,2022,4,14,0.0,42996.0,-11100.0,0
2022-02-16,2022,4,14,0.0,42996.0,-11100.0,0
2022-02-17,2022,4,14,0.0,42996.0,-11100.0,0
2022-02-18,2022,4,14,0.0,42996.0,-11100.0,0
2022-02-20,2022,4,14,0.0,42996.0,-11100.0,0
2022-02-21,2022,4,14,0.0,42996.0,-11100.0,0
2022-02-22,2022,4,14,0.0,42996.0,-11100.0,0
2022-02-23,2022,4,14,0.0,42996.0,-11100.0,0
2022-02-24,2022,4,14,0.0,42996.0,-11100.0,0
2022-02-25,2022,4,14,0.0,42996.0,-11100.0,0
2022-02-27,2022,4,14,0.0,42996.0,-11100.0,0
2022-02-28,2022,4,14,0.0,42996.0,-11100.0,0
2022-03-01,2022,4,14,0.0,42996.0,-11100.0,0
2022-03-02,2022,4,14,0.0,42996.0,-11100.0,0
2022-03-03,2022,4,14,0.0,42996.0,-11100.0,0
2022-03-04,2022,4,14,0.0,42996.0,-11100.0,0
2022-03-06,2022,4,14,0.0,42996.0,-11100.0,0
2022-03-07,2022,4,14,0.0,42996.0,-11100.0,0
2022-03-08,2022,4,14,0.0,42996.0,-11100.0,0
2022-03-09,2022,4,14,0.0,42996.0,-11100.0,0
2022-03-10,2022,4,14,0.0,42996.0,-11100.0,0
2022-03-11,2022,4,14,0.0,42996.0,-11100.0,0
2022-03-13,2022,4,14,0.0,42996.0,-11100.0,0
2022-03-14,2022,4,14,0.0,42996.0,-11100.0,0
2022-03-15,2022,4,14,0.0,42996.0,-11100.0,0
2022-03-16,2022,4,14,0.0,42996.0,-11100.0,0
2022-03-17,2022,4,14,0.0,42996.0,-11100.0,0
2022-03-18,2022,4,14,0.0,42996.0,-11100.0,0
2022-03-20,2022,4,14,0.0,42996.0,-11100.0,0
2022-03-21,2022,4,14,0.0,42996.0,-11100.0,0
2022-03-22,2022,4,14,0.0,42996.0,-11100.0,0
2022-03-23,2022,4,14,0.0,42996.0,-11100.0,0
2022-03-24,2022,4,14,0.0,42996.0,-11100.0,0
2022-03-25,2022,4,14,0.0,42996.0,-11100.0,0
2022-03-27,2022,4,14,0.0,42996.0,-11100.0,0
2022-03-28,2022,4,14,0.0,42996.0,-11100.0,0
2022-03-29,2022,4,14,657.5,43653.5,-10442.5,5
2022-03-30,2022,4,14,22.5,43676.0,-10420.0,5
2022-03-31,2022,4,14,-1040.0,42636.0,-11460.0,5
2022-04-01,2022,4,14,-5.0,42631.0,-11465.0,0
2022-04-03,2022,4,14,0.0,42631.0,-11465.0,0
2022-04-04,2022,4,14,0.0,42631.0,-11465.0,0
2022-04-05,2022,4,14,0.0,42631.0,-11465.0,0
2022-04-06,2022,4,14,0.0,42631.0,-11465.0,0
2022-04-07,2022,4,14,0.0,42631.0,-11465.0,0
2022-04-08,2022,4,14,0.0,42631.0,-11465.0,0
2022-04-10,2022,4,14,0.0,42631.0,-11465.0,0
2022-04-11,2022,4,14,0.0,42631.0,-11465.0,0
2022-04-12,2022,4,14,0.0,42631.0,-11465.0,0
2022-04-13,2022,4,14,0.0,42631.0,-11465.0,0
2022-04-14,2022,4,14,0.0,42631.0,-11465.0,0
2022-04-17,2022,4,14,0.0,42631.0,-11465.0,0
2022-04-18,2022,4,14,0.0,42631.0,-11465.0,0
2022-04-19,2022,4,14,0.0,42631.0,-11465.0,0
2022-04-20,2022,4,14,0.0,42631.0,-11465.0,0
2022-04-21,2022,4,14,-1445.0,41186.0,-12910.0,5
2022-04-22,2022,4,14,2.5,41188.5,-12907.5,0
2022-04-24,2022,4,14,0.0,41188.5,-12907.5,0
2022-04-25,2022,4,14,0.0,41188.5,-12907.5,0
2022-04-26,2022,4,14,0.0,41188.5,-12907.5,0
2022-04-27,2022,4,14,0.0,41188.5,-12907.5,0
2022-04-28,2022,4,14,0.0,41188.5,-12907.5,0
2022-04-29,2022,4,14,0.0,41188.5,-12907.5,0
2022-05-01,2022,4,14,0.0,41188.5,-12907.5,0
2022-05-02,2022,4,14,0.0,41188.5,-12907.5,0
2022-05-03,2022,4,14,0.0,41188.5,-12907.5,0
2022-05-04,2022,4,14,0.0,41188.5,-12907.5,0
2022-05-05,2022,4,14,0.0,41188.5,-12907.5,0
2022-05-06,2022,4,14,0.0,41188.5,-12907.5,0
2022-05-08,2022,4,14,0.0,41188.5,-12907.5,0
2022-05-09,2022,4,14,0.0,41188.5,-12907.5,0
2022-05-10,2022,4,14,0.0,41188.5,-12907.5,0
2022-05-11,2022,4,14,0.0,41188.5,-12907.5,0
2022-05-12,2022,4,14,0.0,41188.5,-12907.5,0
2022-05-13,2022,4,14,0.0,41188.5,-12907.5,0
2022-05-15,2022,4,14,0.0,41188.5,-12907.5,0
2022-05-16,2022,4,14,0.0,41188.5,-12907.5,0
2022-05-17,2022,4,14,0.0,41188.5,-12907.5,0
2022-05-18,2022,4,14,0.0,41188.5,-12907.5,0
2022-05-19,2022,4,14,0.0,41188.5,-12907.5,0
2022-05-20,2022,4,14,0.0,41188.5,-12907.5,0
2022-05-22,2022,4,14,0.0,41188.5,-12907.5,0
2022-05-23,2022,4,14,0.0,41188.5,-12907.5,0
2022-05-24,2022,4,14,0.0,41188.5,-12907.5,0
2022-05-25,2022,4,14,0.0,41188.5,-12907.5,0
2022-05-26,2022,4,14,0.0,41188.5,-12907.5,0
2022-05-27,2022,4,14,0.0,41188.5,-12907.5,0
2022-05-29,2022,4,14,15.0,41203.5,-12892.5,5
2022-05-30,2022,4,14,-90.0,41113.5,-12982.5,5
2022-05-31,2022,4,14,2.5,41116.0,-12980.0,0
2022-06-01,2022,4,14,0.0,41116.0,-12980.0,0
2022-06-02,2022,4,14,0.0,41116.0,-12980.0,0
2022-06-03,2022,4,14,-825.0,40291.0,-13805.0,5
2022-06-05,2022,4,14,100.0,40391.0,-13705.0,0
2022-06-06,2022,4,14,0.0,40391.0,-13705.0,0
2022-06-07,2022,4,14,0.0,40391.0,-13705.0,0
2022-06-08,2022,4,14,0.0,40391.0,-13705.0,0
2022-06-09,2022,4,14,0.0,40391.0,-13705.0,0
2022-06-10,2022,4,14,0.0,40391.0,-13705.0,0
2022-06-12,2022,4,14,0.0,40391.0,-13705.0,0
2022-06-13,2022,4,14,0.0,40391.0,-13705.0,0
2022-06-14,2022,4,14,0.0,40391.0,-13705.0,0
2022-06-15,2022,4,14,0.0,40391.0,-13705.0,0
2022-06-16,2022,4,14,0.0,40391.0,-13705.0,0
2022-06-17,2022,4,14,0.0,40391.0,-13705.0,0
2022-06-19,2022,4,14,0.0,40391.0,-13705.0,0
2022-06-20,2022,4,14,0.0,40391.0,-13705.0,0
2022-06-21,2022,4,14,0.0,40391.0,-13705.0,0
2022-06-22,2022,4,14,0.0,40391.0,-13705.0,0
2022-06-23,2022,4,14,0.0,40391.0,-13705.0,0
2022-06-24,2022,4,14,0.0,40391.0,-13705.0,0
2022-06-26,2022,4,14,0.0,40391.0,-13705.0,0
2022-06-27,2022,4,14,0.0,40391.0,-13705.0,0
2022-06-28,2022,4,14,0.0,40391.0,-13705.0,0
2022-06-29,2022,4,14,0.0,40391.0,-13705.0,0
2022-06-30,2022,4,14,0.0,40391.0,-13705.0,0
2022-07-01,2022,4,14,0.0,40391.0,-13705.0,0
2022-07-03,2022,4,14,0.0,40391.0,-13705.0,0
2022-07-04,2022,4,14,0.0,40391.0,-13705.0,0
2022-07-05,2022,4,14,0.0,40391.0,-13705.0,0
2022-07-06,2022,4,14,0.0,40391.0,-13705.0,0
2022-07-07,2022,4,14,0.0,40391.0,-13705.0,0
2022-07-08,2022,4,14,0.0,40391.0,-13705.0,0
2022-07-10,2022,4,14,0.0,40391.0,-13705.0,0
2022-07-11,2022,4,14,0.0,40391.0,-13705.0,0
2022-07-12,2022,4,14,0.0,40391.0,-13705.0,0
2022-07-13,2022,4,14,0.0,40391.0,-13705.0,0
2022-07-14,2022,4,14,0.0,40391.0,-13705.0,0
2022-07-15,2022,4,14,0.0,40391.0,-13705.0,0
2022-07-17,2022,4,14,0.0,40391.0,-13705.0,0
2022-07-18,2022,4,14,0.0,40391.0,-13705.0,0
2022-07-19,2022,4,14,0.0,40391.0,-13705.0,0
2022-07-20,2022,4,14,-345.0,40046.0,-14050.0,5
2022-07-21,2022,4,14,-5.0,40041.0,-14055.0,0
2022-07-22,2022,4,14,-277.5,39763.5,-14332.5,5
2022-07-24,2022,4,14,40.0,39803.5,-14292.5,0
2022-07-25,2022,4,14,0.0,39803.5,-14292.5,0
2022-07-26,2022,4,14,0.0,39803.5,-14292.5,0
2022-07-27,2022,4,14,0.0,39803.5,-14292.5,0
2022-07-28,2022,4,14,952.5,40756.0,-13340.0,5
2022-07-29,2022,4,14,777.5,41533.5,-12562.5,5
2022-07-31,2022,4,14,-342.5,41191.0,-12905.0,5
2022-08-01,2022,4,14,-12.5,41178.5,-12917.5,5
2022-08-02,2022,4,14,-577.5,40601.0,-13495.0,5
2022-08-03,2022,4,14,790.0,41391.0,-12705.0,5
2022-08-04,2022,4,14,40.0,41431.0,-12665.0,5
2022-08-05,2022,4,14,-217.5,41213.5,-12882.5,10
2022-08-07,2022,4,14,25.0,41238.5,-12857.5,10
2022-08-08,2022,4,14,770.0,42008.5,-12087.5,10
2022-08-09,2022,4,14,-735.0,41273.5,-12822.5,10
2022-08-10,2022,4,14,3165.0,44438.5,-9657.5,10
2022-08-11,2022,4,14,-95.0,44343.5,-9752.5,10
2022-08-12,2022,4,14,1880.0,46223.5,-7872.5,10
2022-08-14,2022,4,14,-340.0,45883.5,-8212.5,10
2022-08-15,2022,4,14,1115.0,46998.5,-7097.5,10
2022-08-16,2022,4,14,1265.0,48263.5,-5832.5,10
2022-08-17,2022,4,14,-915.0,47348.5,-6747.5,10
2022-08-18,2022,4,14,-25.0,47323.5,-6772.5,10
2022-08-19,2022,4,14,-1195.0,46128.5,-7967.5,14
2022-08-21,2022,4,14,-840.0,45288.5,-8807.5,14
2022-08-22,2022,4,14,-3318.0,41970.5,-12125.5,14
2022-08-23,2022,4,14,7.0,41977.5,-12118.5,0
2022-08-24,2022,4,14,0.0,41977.5,-12118.5,0
2022-08-25,2022,4,14,0.0,41977.5,-12118.5,0
2022-08-26,2022,4,14,0.0,41977.5,-12118.5,0
2022-08-28,2022,4,14,0.0,41977.5,-12118.5,0
2022-08-29,2022,4,14,0.0,41977.5,-12118.5,0
2022-08-30,2022,4,14,0.0,41977.5,-12118.5,0
2022-08-31,2022,4,14,0.0,41977.5,-12118.5,0
2022-09-01,2022,4,14,0.0,41977.5,-12118.5,0
2022-09-02,2022,4,14,0.0,41977.5,-12118.5,0
2022-09-04,2022,4,14,0.0,41977.5,-12118.5,0
2022-09-05,2022,4,14,0.0,41977.5,-12118.5,0
2022-09-06,2022,4,14,0.0,41977.5,-12118.5,0
2022-09-07,2022,4,14,0.0,41977.5,-12118.5,0
2022-09-08,2022,4,14,0.0,41977.5,-12118.5,0
2022-09-09,2022,4,14,0.0,41977.5,-12118.5,0
2022-09-11,2022,4,14,0.0,41977.5,-12118.5,0
2022-09-12,2022,4,14,0.0,41977.5,-12118.5,0
2022-09-13,2022,4,14,0.0,41977.5,-12118.5,0
2022-09-14,2022,4,14,0.0,41977.5,-12118.5,0
2022-09-15,2022,4,14,0.0,41977.5,-12118.5,0
2022-09-16,2022,4,14,0.0,41977.5,-12118.5,0
2022-09-18,2022,4,14,0.0,41977.5,-12118.5,0
2022-09-19,2022,4,14,0.0,41977.5,-12118.5,0
2022-09-20,2022,4,14,0.0,41977.5,-12118.5,0
2022-09-21,2022,4,14,0.0,41977.5,-12118.5,0
2022-09-22,2022,4,14,0.0,41977.5,-12118.5,0
2022-09-23,2022,4,14,0.0,41977.5,-12118.5,0
2022-09-25,2022,4,14,0.0,41977.5,-12118.5,0
2022-09-26,2022,4,14,0.0,41977.5,-12118.5,0
2022-09-27,2022,4,14,0.0,41977.5,-12118.5,0
2022-09-28,2022,4,14,0.0,41977.5,-12118.5,0
2022-09-29,2022,4,14,0.0,41977.5,-12118.5,0
2022-09-30,2022,4,14,0.0,41977.5,-12118.5,0
2022-10-02,2022,4,14,0.0,41977.5,-12118.5,0
2022-10-03,2022,4,14,0.0,41977.5,-12118.5,0
2022-10-04,2022,4,14,0.0,41977.5,-12118.5,0
2022-10-05,2022,4,14,0.0,41977.5,-12118.5,0
2022-10-06,2022,4,14,0.0,41977.5,-12118.5,0
2022-10-07,2022,4,14,0.0,41977.5,-12118.5,0
2022-10-09,2022,4,14,0.0,41977.5,-12118.5,0
2022-10-10,2022,4,14,0.0,41977.5,-12118.5,0
2022-10-11,2022,4,14,0.0,41977.5,-12118.5,0
2022-10-12,2022,4,14,0.0,41977.5,-12118.5,0
2022-10-13,2022,4,14,0.0,41977.5,-12118.5,0
2022-10-14,2022,4,14,0.0,41977.5,-12118.5,0
2022-10-16,2022,4,14,0.0,41977.5,-12118.5,0
2022-10-17,2022,4,14,0.0,41977.5,-12118.5,0
2022-10-18,2022,4,14,352.5,42330.0,-11766.0,5
2022-10-19,2022,4,14,-907.5,41422.5,-12673.5,5
2022-10-20,2022,4,14,-5.0,41417.5,-12678.5,0
2022-10-21,2022,4,14,0.0,41417.5,-12678.5,0
2022-10-23,2022,4,14,-157.5,41260.0,-12836.0,5
2022-10-24,2022,4,14,1045.0,42305.0,-11791.0,5
2022-10-25,2022,4,14,657.5,42962.5,-11133.5,5
2022-10-26,2022,4,14,620.0,43582.5,-10513.5,5
2022-10-27,2022,4,14,125.0,43707.5,-10388.5,5
2022-10-28,2022,4,14,2215.0,45922.5,-8173.5,5
2022-10-30,2022,4,14,-270.0,45652.5,-8443.5,5
2022-10-31,2022,4,14,5.0,45657.5,-8438.5,5
2022-11-01,2022,4,14,-392.5,45265.0,-8831.0,5
2022-11-02,2022,4,14,-1222.5,44042.5,-10053.5,5
2022-11-03,2022,4,14,-602.5,43440.0,-10656.0,5
2022-11-04,2022,4,14,952.5,44392.5,-9703.5,10
2022-11-06,2022,4,14,50.0,44442.5,-9653.5,10
2022-11-07,2022,4,14,2295.0,46737.5,-7358.5,10
2022-11-08,2022,4,14,1595.0,48332.5,-5763.5,10
2022-11-09,2022,4,14,-2925.0,45407.5,-8688.5,10
2022-11-10,2022,4,14,6070.0,51477.5,-2618.5,10
2022-11-11,2022,4,14,-180.0,51297.5,-2798.5,10
2022-11-13,2022,4,14,-350.0,50947.5,-3148.5,10
2022-11-14,2022,4,14,-95.0,50852.5,-3243.5,10
2022-11-15,2022,4,14,-625.0,50227.5,-3868.5,10
2022-11-16,2022,4,14,240.0,50467.5,-3628.5,10
2022-11-17,2022,4,14,-325.0,50142.5,-3953.5,10
2022-11-18,2022,4,14,1098.0,51240.5,-2855.5,14
2022-11-20,2022,4,14,-455.0,50785.5,-3310.5,14
2022-11-21,2022,4,14,378.0,51163.5,-2932.5,14
2022-11-22,2022,4,14,2590.0,53753.5,-342.5,14
2022-11-23,2022,4,14,945.0,54698.5,0.0,14
2022-11-24,2022,4,14,-91.0,54607.5,-91.0,14
2022-11-25,2022,4,14,924.0,55531.5,0.0,14
2022-11-27,2022,4,14,-1260.0,54271.5,-1260.0,14
2022-11-28,2022,4,14,-1827.0,52444.5,-3087.0,14
2022-11-29,2022,4,14,-287.0,52157.5,-3374.0,14
2022-11-30,2022,4,14,4970.0,57127.5,0.0,14
2022-12-01,2022,4,14,-1568.0,55559.5,-1568.0,14
2022-12-02,2022,4,14,70.0,55629.5,-1498.0,14
2022-12-04,2022,4,14,294.0,55923.5,-1204.0,14
2022-12-05,2022,4,14,-2863.0,53060.5,-4067.0,14
2022-12-06,2022,4,14,-2366.0,50694.5,-6433.0,14
2022-12-07,2022,4,14,-574.0,50120.5,-7007.0,14
2022-12-08,2022,4,14,1715.0,51835.5,-5292.0,14
2022-12-09,2022,4,14,-2555.0,49280.5,-7847.0,14
2022-12-11,2022,4,14,1722.0,51002.5,-6125.0,14
2022-12-12,2022,4,14,3794.0,54796.5,-2331.0,14
2022-12-13,2022,4,14,1491.0,56287.5,-840.0,14
2022-12-14,2022,4,14,-1582.0,54705.5,-2422.0,14
2022-12-15,2022,4,14,-6027.0,48678.5,-8449.0,14
2022-12-16,2022,4,14,14.0,48692.5,-8435.0,0
2022-12-18,2022,4,14,0.0,48692.5,-8435.0,0
2022-12-19,2022,4,14,0.0,48692.5,-8435.0,0
2022-12-20,2022,4,14,0.0,48692.5,-8435.0,0
2022-12-21,2022,4,14,0.0,48692.5,-8435.0,0
2022-12-22,2022,4,14,0.0,48692.5,-8435.0,0
2022-12-23,2022,4,14,0.0,48692.5,-8435.0,0
2022-12-26,2022,4,14,0.0,48692.5,-8435.0,0
2022-12-27,2022,4,14,0.0,48692.5,-8435.0,0
2022-12-28,2022,4,14,0.0,48692.5,-8435.0,0
2022-12-29,2022,4,14,0.0,48692.5,-8435.0,0
2022-12-30,2022,4,14,0.0,48692.5,-8435.0,0
2023-01-02,2023,4,14,0.0,48692.5,-8435.0,0
2023-01-03,2023,4,14,0.0,48692.5,-8435.0,0
2023-01-04,2023,4,14,0.0,48692.5,-8435.0,0
2023-01-05,2023,4,14,0.0,48692.5,-8435.0,0
2023-01-06,2023,4,14,0.0,48692.5,-8435.0,0
2023-01-08,2023,4,14,0.0,48692.5,-8435.0,0
2023-01-09,2023,4,14,0.0,48692.5,-8435.0,0
2023-01-10,2023,4,14,0.0,48692.5,-8435.0,0
2023-01-11,2023,4,14,0.0,48692.5,-8435.0,0
2023-01-12,2023,4,14,0.0,48692.5,-8435.0,0
2023-01-13,2023,4,14,0.0,48692.5,-8435.0,0
2023-01-15,2023,4,14,0.0,48692.5,-8435.0,0
2023-01-16,2023,4,14,0.0,48692.5,-8435.0,0
2023-01-17,2023,4,14,0.0,48692.5,-8435.0,0
2023-01-18,2023,4,14,0.0,48692.5,-8435.0,0
2023-01-19,2023,4,14,0.0,48692.5,-8435.0,0
2023-01-20,2023,4,14,0.0,48692.5,-8435.0,0
2023-01-22,2023,4,14,0.0,48692.5,-8435.0,0
2023-01-23,2023,4,14,0.0,48692.5,-8435.0,0
2023-01-24,2023,4,14,0.0,48692.5,-8435.0,0
2023-01-25,2023,4,14,0.0,48692.5,-8435.0,0
2023-01-26,2023,4,14,0.0,48692.5,-8435.0,0
2023-01-27,2023,4,14,0.0,48692.5,-8435.0,0
2023-01-29,2023,4,14,0.0,48692.5,-8435.0,0
2023-01-30,2023,4,14,0.0,48692.5,-8435.0,0
2023-01-31,2023,4,14,0.0,48692.5,-8435.0,0
2023-02-01,2023,4,14,0.0,48692.5,-8435.0,0
2023-02-02,2023,4,14,0.0,48692.5,-8435.0,0
2023-02-03,2023,4,14,0.0,48692.5,-8435.0,0
2023-02-05,2023,4,14,0.0,48692.5,-8435.0,0
2023-02-06,2023,4,14,0.0,48692.5,-8435.0,0
2023-02-07,2023,4,14,0.0,48692.5,-8435.0,0
2023-02-08,2023,4,14,0.0,48692.5,-8435.0,0
2023-02-09,2023,4,14,0.0,48692.5,-8435.0,0
2023-02-10,2023,4,14,0.0,48692.5,-8435.0,0
2023-02-12,2023,4,14,0.0,48692.5,-8435.0,0
2023-02-13,2023,4,14,0.0,48692.5,-8435.0,0
2023-02-14,2023,4,14,0.0,48692.5,-8435.0,0
2023-02-15,2023,4,14,0.0,48692.5,-8435.0,0
2023-02-16,2023,4,14,0.0,48692.5,-8435.0,0
2023-02-17,2023,4,14,0.0,48692.5,-8435.0,0
2023-02-19,2023,4,14,0.0,48692.5,-8435.0,0
2023-02-20,2023,4,14,0.0,48692.5,-8435.0,0
2023-02-21,2023,4,14,0.0,48692.5,-8435.0,0
2023-02-22,2023,4,14,0.0,48692.5,-8435.0,0
2023-02-23,2023,4,14,0.0,48692.5,-8435.0,0
2023-02-24,2023,4,14,0.0,48692.5,-8435.0,0
2023-02-26,2023,4,14,0.0,48692.5,-8435.0,0
2023-02-27,2023,4,14,0.0,48692.5,-8435.0,0
2023-02-28,2023,4,14,0.0,48692.5,-8435.0,0
2023-03-01,2023,4,14,0.0,48692.5,-8435.0,0
2023-03-02,2023,4,14,0.0,48692.5,-8435.0,0
2023-03-03,2023,4,14,0.0,48692.5,-8435.0,0
2023-03-05,2023,4,14,0.0,48692.5,-8435.0,0
2023-03-06,2023,4,14,0.0,48692.5,-8435.0,0
2023-03-07,2023,4,14,0.0,48692.5,-8435.0,0
2023-03-08,2023,4,14,0.0,48692.5,-8435.0,0
2023-03-09,2023,4,14,0.0,48692.5,-8435.0,0
2023-03-10,2023,4,14,0.0,48692.5,-8435.0,0
2023-03-12,2023,4,14,0.0,48692.5,-8435.0,0
2023-03-13,2023,4,14,0.0,48692.5,-8435.0,0
2023-03-14,2023,4,14,0.0,48692.5,-8435.0,0
2023-03-15,2023,4,14,0.0,48692.5,-8435.0,0
2023-03-16,2023,4,14,0.0,48692.5,-8435.0,0
2023-03-17,2023,4,14,0.0,48692.5,-8435.0,0
2023-03-19,2023,4,14,0.0,48692.5,-8435.0,0
2023-03-20,2023,4,14,0.0,48692.5,-8435.0,0
2023-03-21,2023,4,14,0.0,48692.5,-8435.0,0
2023-03-22,2023,4,14,0.0,48692.5,-8435.0,0
2023-03-23,2023,4,14,0.0,48692.5,-8435.0,0
2023-03-24,2023,4,14,0.0,48692.5,-8435.0,0
2023-03-26,2023,4,14,0.0,48692.5,-8435.0,0
2023-03-27,2023,4,14,0.0,48692.5,-8435.0,0
2023-03-28,2023,4,14,0.0,48692.5,-8435.0,0
2023-03-29,2023,4,14,0.0,48692.5,-8435.0,0
2023-03-30,2023,4,14,0.0,48692.5,-8435.0,0
2023-03-31,2023,4,14,0.0,48692.5,-8435.0,0
2023-04-02,2023,4,14,30.0,48722.5,-8405.0,5
2023-04-03,2023,4,14,822.5,49545.0,-7582.5,5
2023-04-04,2023,4,14,-460.0,49085.0,-8042.5,5
2023-04-05,2023,4,14,0.0,49085.0,-8042.5,5
2023-04-06,2023,4,14,42.5,49127.5,-8000.0,5
2023-04-07,2023,4,14,252.5,49380.0,-7747.5,5
2023-04-09,2023,4,14,-100.0,49280.0,-7847.5,5
2023-04-10,2023,4,14,290.0,49570.0,-7557.5,5
2023-04-11,2023,4,14,190.0,49760.0,-7367.5,5
2023-04-12,2023,4,14,-167.5,49592.5,-7535.0,5
2023-04-13,2023,4,14,850.0,50442.5,-6685.0,5
2023-04-14,2023,4,14,10.0,50452.5,-6675.0,10
2023-04-16,2023,4,14,10.0,50462.5,-6665.0,10
2023-04-17,2023,4,14,130.0,50592.5,-6535.0,10
2023-04-18,2023,4,14,-255.0,50337.5,-6790.0,10
2023-04-19,2023,4,14,-255.0,50082.5,-7045.0,10
2023-04-20,2023,4,14,-580.0,49502.5,-7625.0,10
2023-04-21,2023,4,14,125.0,49627.5,-7500.0,10
2023-04-23,2023,4,14,-435.0,49192.5,-7935.0,10
2023-04-24,2023,4,14,545.0,49737.5,-7390.0,10
2023-04-25,2023,4,14,-1320.0,48417.5,-8710.0,10
2023-04-26,2023,4,14,-1185.0,47232.5,-9895.0,10
2023-04-27,2023,4,14,2175.0,49407.5,-7720.0,10
2023-04-28,2023,4,14,1824.0,51231.5,-5896.0,14
2023-04-30,2023,4,14,-28.0,51203.5,-5924.0,14
2023-05-01,2023,4,14,-441.0,50762.5,-6365.0,14
2023-05-02,2023,4,14,-2261.0,48501.5,-8626.0,14
2023-05-03,2023,4,14,-2086.0,46415.5,-10712.0,14
2023-05-04,2023,4,14,0.0,46415.5,-10712.0,0
2023-05-05,2023,4,14,0.0,46415.5,-10712.0,0
2023-05-07,2023,4,14,0.0,46415.5,-10712.0,0
2023-05-08,2023,4,14,0.0,46415.5,-10712.0,0
2023-05-09,2023,4,14,0.0,46415.5,-10712.0,0
2023-05-10,2023,4,14,0.0,46415.5,-10712.0,0
2023-05-11,2023,4,14,0.0,46415.5,-10712.0,0
2023-05-12,2023,4,14,0.0,46415.5,-10712.0,0
2023-05-14,2023,4,14,0.0,46415.5,-10712.0,0
2023-05-15,2023,4,14,0.0,46415.5,-10712.0,0
2023-05-16,2023,4,14,0.0,46415.5,-10712.0,0
2023-05-17,2023,4,14,0.0,46415.5,-10712.0,0
2023-05-18,2023,4,14,0.0,46415.5,-10712.0,0
2023-05-19,2023,4,14,0.0,46415.5,-10712.0,0
2023-05-21,2023,4,14,0.0,46415.5,-10712.0,0
2023-05-22,2023,4,14,0.0,46415.5,-10712.0,0
2023-05-23,2023,4,14,0.0,46415.5,-10712.0,0
2023-05-24,2023,4,14,0.0,46415.5,-10712.0,0
2023-05-25,2023,4,14,0.0,46415.5,-10712.0,0
2023-05-26,2023,4,14,0.0,46415.5,-10712.0,0
2023-05-28,2023,4,14,0.0,46415.5,-10712.0,0
2023-05-29,2023,4,14,0.0,46415.5,-10712.0,0
2023-05-30,2023,4,14,0.0,46415.5,-10712.0,0
2023-05-31,2023,4,14,0.0,46415.5,-10712.0,0
2023-06-01,2023,4,14,0.0,46415.5,-10712.0,0
2023-06-02,2023,4,14,0.0,46415.5,-10712.0,0
2023-06-04,2023,4,14,37.5,46453.0,-10674.5,5
2023-06-05,2023,4,14,-542.5,45910.5,-11217.0,5
2023-06-06,2023,4,14,0.0,45910.5,-11217.0,0
2023-06-07,2023,4,14,0.0,45910.5,-11217.0,0
2023-06-08,2023,4,14,0.0,45910.5,-11217.0,0
2023-06-09,2023,4,14,165.0,46075.5,-11052.0,5
2023-06-11,2023,4,14,50.0,46125.5,-11002.0,5
2023-06-12,2023,4,14,1250.0,47375.5,-9752.0,5
2023-06-13,2023,4,14,97.5,47473.0,-9654.5,5
2023-06-14,2023,4,14,-455.0,47018.0,-10109.5,5
2023-06-15,2023,4,14,1077.5,48095.5,-9032.0,5
2023-06-16,2023,4,14,-257.5,47838.0,-9289.5,5
2023-06-18,2023,4,14,-130.0,47708.0,-9419.5,5
2023-06-19,2023,4,14,-162.5,47545.5,-9582.0,5
2023-06-20,2023,4,14,-322.5,47223.0,-9904.5,5
2023-06-21,2023,4,14,-305.0,46918.0,-10209.5,5
2023-06-22,2023,4,14,-392.5,46525.5,-10602.0,5
2023-06-23,2023,4,14,-380.0,46145.5,-10982.0,10
2023-06-25,2023,4,14,410.0,46555.5,-10572.0,10
2023-06-26,2023,4,14,-105.0,46450.5,-10677.0,10
2023-06-27,2023,4,14,730.0,47180.5,-9947.0,10
2023-06-28,2023,4,14,-235.0,46945.5,-10182.0,10
2023-06-29,2023,4,14,1055.0,48000.5,-9127.0,10
2023-06-30,2023,4,14,1360.0,49360.5,-7767.0,10
2023-07-02,2023,4,14,145.0,49505.5,-7622.0,10
2023-07-03,2023,4,14,10.0,49515.5,-7612.0,10
2023-07-04,2023,4,14,-215.0,49300.5,-7827.0,10
2023-07-05,2023,4,14,-990.0,48310.5,-8817.0,10
2023-07-06,2023,4,14,-1345.0,46965.5,-10162.0,10
2023-07-07,2023,4,14,-807.0,46158.5,-10969.0,14
2023-07-09,2023,4,14,-553.0,45605.5,-11522.0,14
2023-07-10,2023,4,14,1869.0,47474.5,-9653.0,14
2023-07-11,2023,4,14,2016.0,49490.5,-7637.0,14
2023-07-12,2023,4,14,1190.0,50680.5,-6447.0,14
2023-07-13,2023,4,14,-539.0,50141.5,-6986.0,14
2023-07-14,2023,4,14,840.0,50981.5,-6146.0,14
2023-07-16,2023,4,14,-21.0,50960.5,-6167.0,14
2023-07-17,2023,4,14,679.0,51639.5,-5488.0,14
2023-07-18,2023,4,14,2835.0,54474.5,-2653.0,14
2023-07-19,2023,4,14,665.0,55139.5,-1988.0,14
2023-07-20,2023,4,14,1372.0,56511.5,-616.0,14
2023-07-21,2023,4,14,-462.0,56049.5,-1078.0,14
2023-07-23,2023,4,14,-21.0,56028.5,-1099.0,14
2023-07-24,2023,4,14,1316.0,57344.5,0.0,14
2023-07-25,2023,4,14,35.0,57379.5,0.0,14
2023-07-26,2023,4,14,847.0,58226.5,0.0,14
2023-07-27,2023,4,14,-1743.0,56483.5,-1743.0,14
2023-07-28,2023,4,14,931.0,57414.5,-812.0,14
2023-07-30,2023,4,14,-350.0,57064.5,-1162.0,14
2023-07-31,2023,4,14,1169.0,58233.5,0.0,14
2023-08-01,2023,4,14,-371.0,57862.5,-371.0,14
2023-08-02,2023,4,14,-1218.0,56644.5,-1589.0,14
2023-08-03,2023,4,14,-672.0,55972.5,-2261.0,14
2023-08-04,2023,4,14,-1582.0,54390.5,-3843.0,14
2023-08-06,2023,4,14,763.0,55153.5,-3080.0,14
2023-08-07,2023,4,14,1673.0,56826.5,-1407.0,14
2023-08-08,2023,4,14,-777.0,56049.5,-2184.0,14
2023-08-09,2023,4,14,-315.0,55734.5,-2499.0,14
2023-08-10,2023,4,14,-588.0,55146.5,-3087.0,14
2023-08-11,2023,4,14,805.0,55951.5,-2282.0,14
2023-08-13,2023,4,14,-623.0,55328.5,-2905.0,14
2023-08-14,2023,4,14,777.0,56105.5,-2128.0,14
2023-08-15,2023,4,14,-2611.0,53494.5,-4739.0,14
2023-08-16,2023,4,14,7.0,53501.5,-4732.0,0
2023-08-17,2023,4,14,0.0,53501.5,-4732.0,0
2023-08-18,2023,4,14,0.0,53501.5,-4732.0,0
2023-08-20,2023,4,14,0.0,53501.5,-4732.0,0
2023-08-21,2023,4,14,0.0,53501.5,-4732.0,0
2023-08-22,2023,4,14,0.0,53501.5,-4732.0,0
2023-08-23,2023,4,14,0.0,53501.5,-4732.0,0
2023-08-24,2023,4,14,0.0,53501.5,-4732.0,0
2023-08-25,2023,4,14,0.0,53501.5,-4732.0,0
2023-08-27,2023,4,14,0.0,53501.5,-4732.0,0
2023-08-28,2023,4,14,0.0,53501.5,-4732.0,0
2023-08-29,2023,4,14,0.0,53501.5,-4732.0,0
2023-08-30,2023,4,14,0.0,53501.5,-4732.0,0
2023-08-31,2023,4,14,0.0,53501.5,-4732.0,0
2023-09-01,2023,4,14,0.0,53501.5,-4732.0,0
2023-09-03,2023,4,14,0.0,53501.5,-4732.0,0
2023-09-04,2023,4,14,0.0,53501.5,-4732.0,0
2023-09-05,2023,4,14,0.0,53501.5,-4732.0,0
2023-09-06,2023,4,14,0.0,53501.5,-4732.0,0
2023-09-07,2023,4,14,0.0,53501.5,-4732.0,0
2023-09-08,2023,4,14,0.0,53501.5,-4732.0,0
2023-09-10,2023,4,14,0.0,53501.5,-4732.0,0
2023-09-11,2023,4,14,0.0,53501.5,-4732.0,0
2023-09-12,2023,4,14,0.0,53501.5,-4732.0,0
2023-09-13,2023,4,14,0.0,53501.5,-4732.0,0
2023-09-14,2023,4,14,0.0,53501.5,-4732.0,0
2023-09-15,2023,4,14,-980.0,52521.5,-5712.0,5
2023-09-17,2023,4,14,-5.0,52516.5,-5717.0,0
2023-09-18,2023,4,14,0.0,52516.5,-5717.0,0
2023-09-19,2023,4,14,0.0,52516.5,-5717.0,0
2023-09-20,2023,4,14,0.0,52516.5,-5717.0,0
2023-09-21,2023,4,14,0.0,52516.5,-5717.0,0
2023-09-22,2023,4,14,0.0,52516.5,-5717.0,0
2023-09-24,2023,4,14,0.0,52516.5,-5717.0,0
2023-09-25,2023,4,14,0.0,52516.5,-5717.0,0
2023-09-26,2023,4,14,0.0,52516.5,-5717.0,0
2023-09-27,2023,4,14,0.0,52516.5,-5717.0,0
2023-09-28,2023,4,14,0.0,52516.5,-5717.0,0
2023-09-29,2023,4,14,0.0,52516.5,-5717.0,0
2023-10-01,2023,4,14,0.0,52516.5,-5717.0,0
2023-10-02,2023,4,14,0.0,52516.5,-5717.0,0
2023-10-03,2023,4,14,0.0,52516.5,-5717.0,0
2023-10-04,2023,4,14,0.0,52516.5,-5717.0,0
2023-10-05,2023,4,14,0.0,52516.5,-5717.0,0
2023-10-06,2023,4,14,0.0,52516.5,-5717.0,0
2023-10-08,2023,4,14,0.0,52516.5,-5717.0,0
2023-10-09,2023,4,14,0.0,52516.5,-5717.0,0
2023-10-10,2023,4,14,0.0,52516.5,-5717.0,0
2023-10-11,2023,4,14,0.0,52516.5,-5717.0,0
2023-10-12,2023,4,14,0.0,52516.5,-5717.0,0
2023-10-13,2023,4,14,0.0,52516.5,-5717.0,0
2023-10-15,2023,4,14,0.0,52516.5,-5717.0,0
2023-10-16,2023,4,14,0.0,52516.5,-5717.0,0
2023-10-17,2023,4,14,0.0,52516.5,-5717.0,0
2023-10-18,2023,4,14,0.0,52516.5,-5717.0,0
2023-10-19,2023,4,14,0.0,52516.5,-5717.0,0
2023-10-20,2023,4,14,0.0,52516.5,-5717.0,0
2023-10-22,2023,4,14,0.0,52516.5,-5717.0,0
2023-10-23,2023,4,14,0.0,52516.5,-5717.0,0
2023-10-24,2023,4,14,0.0,52516.5,-5717.0,0
2023-10-25,2023,4,14,0.0,52516.5,-5717.0,0
2023-10-26,2023,4,14,0.0,52516.5,-5717.0,0
2023-10-27,2023,4,14,0.0,52516.5,-5717.0,0
2023-10-29,2023,4,14,0.0,52516.5,-5717.0,0
2023-10-30,2023,4,14,0.0,52516.5,-5717.0,0
2023-10-31,2023,4,14,0.0,52516.5,-5717.0,0
2023-11-01,2023,4,14,0.0,52516.5,-5717.0,0
2023-11-02,2023,4,14,0.0,52516.5,-5717.0,0
2023-11-03,2023,4,14,537.5,53054.0,-5179.5,5
2023-11-05,2023,4,14,-12.5,53041.5,-5192.0,5
2023-11-06,2023,4,14,-200.0,52841.5,-5392.0,5
2023-11-07,2023,4,14,285.0,53126.5,-5107.0,5
2023-11-08,2023,4,14,-47.5,53079.0,-5154.5,5
2023-11-09,2023,4,14,-447.5,52631.5,-5602.0,5
2023-11-10,2023,4,14,760.0,53391.5,-4842.0,5
2023-11-12,2023,4,14,-215.0,53176.5,-5057.0,5
2023-11-13,2023,4,14,432.5,53609.0,-4624.5,5
2023-11-14,2023,4,14,1385.0,54994.0,-3239.5,5
2023-11-15,2023,4,14,185.0,55179.0,-3054.5,5
2023-11-16,2023,4,14,110.0,55289.0,-2944.5,5
2023-11-17,2023,4,14,-160.0,55129.0,-3104.5,10
2023-11-19,2023,4,14,60.0,55189.0,-3044.5,10
2023-11-20,2023,4,14,1140.0,56329.0,-1904.5,10
2023-11-21,2023,4,14,-255.0,56074.0,-2159.5,10
2023-11-22,2023,4,14,610.0,56684.0,-1549.5,10
2023-11-23,2023,4,14,190.0,56874.0,-1359.5,10
2023-11-24,2023,4,14,490.0,57364.0,-869.5,10
2023-11-26,2023,4,14,-425.0,56939.0,-1294.5,10
2023-11-27,2023,4,14,155.0,57094.0,-1139.5,10
2023-11-28,2023,4,14,595.0,57689.0,-544.5,10
2023-11-29,2023,4,14,585.0,58274.0,0.0,10
2023-11-30,2023,4,14,2075.0,60349.0,0.0,10
2023-12-01,2023,4,14,1515.0,61864.0,0.0,14
2023-12-03,2023,4,14,-147.0,61717.0,-147.0,14
2023-12-04,2023,4,14,-693.0,61024.0,-840.0,14
2023-12-05,2023,4,14,364.0,61388.0,-476.0,14
2023-12-06,2023,4,14,-1211.0,60177.0,-1687.0,14
2023-12-07,2023,4,14,686.0,60863.0,-1001.0,14
2023-12-08,2023,4,14,714.0,61577.0,-287.0,14
2023-12-10,2023,4,14,2478.0,64055.0,0.0,14
2023-12-11,2023,4,14,1260.0,65315.0,0.0,14
2023-12-12,2023,4,14,1337.0,66652.0,0.0,14
2023-12-13,2023,4,14,4074.0,70726.0,0.0,14
2023-12-14,2023,4,14,700.0,71426.0,0.0,14
2023-12-15,2023,4,14,-189.0,71237.0,-189.0,14
2023-12-17,2023,4,14,511.0,71748.0,0.0,14
2023-12-18,2023,4,14,-483.0,71265.0,-483.0,14
2023-12-19,2023,4,14,1848.0,73113.0,0.0,14
2023-12-20,2023,4,14,-2807.0,70306.0,-2807.0,14
2023-12-21,2023,4,14,686.0,70992.0,-2121.0,14
2023-12-22,2023,4,14,504.0,71496.0,-1617.0,14
2023-12-25,2023,4,14,553.0,72049.0,-1064.0,14
2023-12-26,2023,4,14,749.0,72798.0,-315.0,14
2023-12-27,2023,4,14,847.0,73645.0,0.0,14
2023-12-28,2023,4,14,245.0,73890.0,0.0,14
2023-12-29,2023,4,14,-567.0,73323.0,-567.0,14
2024-01-01,2024,10,20,710.0,74033.0,0.0,20
2024-01-02,2024,10,20,-640.0,73393.0,-640.0,20
2024-01-03,2024,10,20,-2470.0,70923.0,-3110.0,20
2024-01-04,2024,10,20,130.0,71053.0,-2980.0,20
2024-01-05,2024,10,20,-280.0,70773.0,-3260.0,20
2024-01-07,2024,10,20,-1210.0,69563.0,-4470.0,20
2024-01-08,2024,10,20,2930.0,72493.0,-1540.0,20
2024-01-09,2024,10,20,-1660.0,70833.0,-3200.0,20
2024-01-10,2024,10,20,2750.0,73583.0,-450.0,20
2024-01-11,2024,10,20,-1000.0,72583.0,-1450.0,20
2024-01-12,2024,10,20,-1350.0,71233.0,-2800.0,20
2024-01-14,2024,10,20,640.0,71873.0,-2160.0,20
2024-01-15,2024,10,20,-1430.0,70443.0,-3590.0,20
2024-01-16,2024,10,20,-1820.0,68623.0,-5410.0,20
2024-01-17,2024,10,20,-760.0,67863.0,-6170.0,20
2024-01-18,2024,10,20,2080.0,69943.0,-4090.0,20
2024-01-19,2024,10,20,4220.0,74163.0,0.0,20
2024-01-21,2024,10,20,550.0,74713.0,0.0,20
2024-01-22,2024,10,20,770.0,75483.0,0.0,20
2024-01-23,2024,10,20,-770.0,74713.0,-770.0,20
2024-01-24,2024,10,20,-560.0,74153.0,-1330.0,20
2024-01-25,2024,10,20,250.0,74403.0,-1080.0,20
2024-01-26,2024,10,20,1720.0,76123.0,0.0,20
2024-01-28,2024,10,20,-490.0,75633.0,-490.0,20
2024-01-29,2024,10,20,2390.0,78023.0,0.0,20
2024-01-30,2024,10,20,1970.0,79993.0,0.0,20
2024-01-31,2024,10,20,-2960.0,77033.0,-2960.0,20
2024-02-01,2024,10,20,2940.0,79973.0,-20.0,20
2024-02-02,2024,10,20,1100.0,81073.0,0.0,20
2024-02-04,2024,10,20,-620.0,80453.0,-620.0,20
2024-02-05,2024,10,20,-2130.0,78323.0,-2750.0,20
2024-02-06,2024,10,20,1590.0,79913.0,-1160.0,20
2024-02-07,2024,10,20,1570.0,81483.0,0.0,20
2024-02-08,2024,10,20,80.0,81563.0,0.0,20
2024-02-09,2024,10,20,-720.0,80843.0,-720.0,20
2024-02-11,2024,10,20,210.0,81053.0,-510.0,20
2024-02-12,2024,10,20,900.0,81953.0,0.0,20
2024-02-13,2024,10,20,-5120.0,76833.0,-5120.0,20
2024-02-14,2024,10,20,1790.0,78623.0,-3330.0,20
2024-02-15,2024,10,20,3020.0,81643.0,-310.0,20
2024-02-16,2024,10,20,-1380.0,80263.0,-1690.0,20
2024-02-18,2024,10,20,600.0,80863.0,-1090.0,20
2024-02-19,2024,10,20,-1340.0,79523.0,-2430.0,20
2024-02-20,2024,10,20,170.0,79693.0,-2260.0,20
2024-02-21,2024,10,20,1230.0,80923.0,-1030.0,20
2024-02-22,2024,10,20,4460.0,85383.0,0.0,20
2024-02-23,2024,10,20,-200.0,85183.0,-200.0,20
2024-02-25,2024,10,20,-110.0,85073.0,-310.0,20
2024-02-26,2024,10,20,-410.0,84663.0,-720.0,20
2024-02-27,2024,10,20,-1120.0,83543.0,-1840.0,20
2024-02-28,2024,10,20,120.0,83663.0,-1720.0,20
2024-02-29,2024,10,20,650.0,84313.0,-1070.0,20
2024-03-01,2024,10,20,160.0,84473.0,-910.0,20
2024-03-03,2024,10,20,40.0,84513.0,-870.0,20
2024-03-04,2024,10,20,-1210.0,83303.0,-2080.0,20
2024-03-05,2024,10,20,-3580.0,79723.0,-5660.0,20
2024-03-06,2024,10,20,550.0,80273.0,-5110.0,20
2024-03-07,2024,10,20,1490.0,81763.0,-3620.0,20
2024-03-08,2024,10,20,-300.0,81463.0,-3920.0,20
2024-03-10,2024,10,20,3540.0,85003.0,-380.0,20
2024-03-11,2024,10,20,1420.0,86423.0,0.0,20
2024-03-12,2024,10,20,1750.0,88173.0,0.0,20
2024-03-13,2024,10,20,950.0,89123.0,0.0,20
2024-03-14,2024,10,20,-2040.0,87083.0,-2040.0,20
2024-03-15,2024,10,20,-2010.0,85073.0,-4050.0,20
2024-03-17,2024,10,20,260.0,85333.0,-3790.0,20
2024-03-18,2024,10,20,380.0,85713.0,-3410.0,20
2024-03-19,2024,10,20,3200.0,88913.0,-210.0,20
2024-03-20,2024,10,20,5300.0,94213.0,0.0,20
2024-03-21,2024,10,20,1670.0,95883.0,0.0,20
2024-03-22,2024,10,20,-3960.0,91923.0,-3960.0,20
2024-03-24,2024,10,20,-180.0,91743.0,-4140.0,20
2024-03-25,2024,10,20,-870.0,90873.0,-5010.0,20
2024-03-26,2024,10,20,690.0,91563.0,-4320.0,20
2024-03-27,2024,10,20,3220.0,94783.0,-1100.0,20
2024-03-28,2024,10,20,300.0,95083.0,-800.0,20
2024-03-31,2024,10,20,1760.0,96843.0,0.0,20
2024-04-01,2024,10,20,-5520.0,91323.0,-5520.0,20
2024-04-02,2024,10,20,-3060.0,88263.0,-8580.0,20
2024-04-03,2024,10,20,770.0,89033.0,-7810.0,20
2024-04-04,2024,10,20,20.0,89053.0,-7790.0,0
2024-04-05,2024,10,20,0.0,89053.0,-7790.0,0
2024-04-07,2024,10,20,0.0,89053.0,-7790.0,0
2024-04-08,2024,10,20,0.0,89053.0,-7790.0,0
2024-04-09,2024,10,20,0.0,89053.0,-7790.0,0
2024-04-10,2024,10,20,0.0,89053.0,-7790.0,0
2024-04-11,2024,10,20,0.0,89053.0,-7790.0,0
2024-04-12,2024,10,20,0.0,89053.0,-7790.0,0
2024-04-14,2024,10,20,0.0,89053.0,-7790.0,0
2024-04-15,2024,10,20,0.0,89053.0,-7790.0,0
2024-04-16,2024,10,20,0.0,89053.0,-7790.0,0
2024-04-17,2024,10,20,0.0,89053.0,-7790.0,0
2024-04-18,2024,10,20,0.0,89053.0,-7790.0,0
2024-04-19,2024,10,20,0.0,89053.0,-7790.0,0
2024-04-21,2024,10,20,0.0,89053.0,-7790.0,0
2024-04-22,2024,10,20,0.0,89053.0,-7790.0,0
2024-04-23,2024,10,20,0.0,89053.0,-7790.0,0
2024-04-24,2024,10,20,0.0,89053.0,-7790.0,0
2024-04-25,2024,10,20,0.0,89053.0,-7790.0,0
2024-04-26,2024,10,20,0.0,89053.0,-7790.0,0
2024-04-28,2024,10,20,0.0,89053.0,-7790.0,0
2024-04-29,2024,10,20,0.0,89053.0,-7790.0,0
2024-04-30,2024,10,20,0.0,89053.0,-7790.0,0
2024-05-01,2024,10,20,0.0,89053.0,-7790.0,0
2024-05-02,2024,10,20,0.0,89053.0,-7790.0,0
2024-05-03,2024,10,20,0.0,89053.0,-7790.0,0
2024-05-05,2024,10,20,0.0,89053.0,-7790.0,0
2024-05-06,2024,10,20,0.0,89053.0,-7790.0,0
2024-05-07,2024,10,20,0.0,89053.0,-7790.0,0
2024-05-08,2024,10,20,0.0,89053.0,-7790.0,0
2024-05-09,2024,10,20,0.0,89053.0,-7790.0,0
2024-05-10,2024,10,20,264.0,89317.0,-7526.0,11
2024-05-12,2024,10,20,126.5,89443.5,-7399.5,11
2024-05-13,2024,10,20,-489.5,88954.0,-7889.0,11
2024-05-14,2024,10,20,-11.0,88943.0,-7900.0,0
2024-05-15,2024,10,20,2233.0,91176.0,-5667.0,11
2024-05-16,2024,10,20,-748.0,90428.0,-6415.0,11
2024-05-17,2024,10,20,808.5,91236.5,-5606.5,11
2024-05-19,2024,10,20,209.0,91445.5,-5397.5,11
2024-05-20,2024,10,20,-1243.0,90202.5,-6640.5,11
2024-05-21,2024,10,20,374.0,90576.5,-6266.5,11
2024-05-22,2024,10,20,-891.0,89685.5,-7157.5,11
2024-05-23,2024,10,20,0.0,89685.5,-7157.5,0
2024-05-24,2024,10,20,0.0,89685.5,-7157.5,0
2024-05-26,2024,10,20,0.0,89685.5,-7157.5,0
2024-05-27,2024,10,20,0.0,89685.5,-7157.5,0
2024-05-28,2024,10,20,0.0,89685.5,-7157.5,0
2024-05-29,2024,10,20,0.0,89685.5,-7157.5,0
2024-05-30,2024,10,20,0.0,89685.5,-7157.5,0
2024-05-31,2024,10,20,0.0,89685.5,-7157.5,0
2024-06-02,2024,10,20,0.0,89685.5,-7157.5,0
2024-06-03,2024,10,20,0.0,89685.5,-7157.5,0
2024-06-04,2024,10,20,0.0,89685.5,-7157.5,0
2024-06-05,2024,10,20,0.0,89685.5,-7157.5,0
2024-06-06,2024,10,20,0.0,89685.5,-7157.5,0
2024-06-07,2024,10,20,0.0,89685.5,-7157.5,0
2024-06-09,2024,10,20,0.0,89685.5,-7157.5,0
2024-06-10,2024,10,20,0.0,89685.5,-7157.5,0
2024-06-11,2024,10,20,0.0,89685.5,-7157.5,0
2024-06-12,2024,10,20,0.0,89685.5,-7157.5,0
2024-06-13,2024,10,20,0.0,89685.5,-7157.5,0
2024-06-14,2024,10,20,0.0,89685.5,-7157.5,0
2024-06-16,2024,10,20,0.0,89685.5,-7157.5,0
2024-06-17,2024,10,20,0.0,89685.5,-7157.5,0
2024-06-18,2024,10,20,-49.5,89636.0,-7207.0,11
2024-06-19,2024,10,20,11.0,89647.0,-7196.0,0
2024-06-20,2024,10,20,0.0,89647.0,-7196.0,0
2024-06-21,2024,10,20,33.0,89680.0,-7163.0,11
2024-06-23,2024,10,20,-451.0,89229.0,-7614.0,11
2024-06-24,2024,10,20,2271.5,91500.5,-5342.5,11
2024-06-25,2024,10,20,-2205.5,89295.0,-7548.0,11
2024-06-26,2024,10,20,-522.5,88772.5,-8070.5,11
2024-06-27,2024,10,20,737.0,89509.5,-7333.5,11
2024-06-28,2024,10,20,-143.0,89366.5,-7476.5,11
2024-06-30,2024,10,20,-33.0,89333.5,-7509.5,11
2024-07-01,2024,10,20,-401.5,88932.0,-7911.0,11
2024-07-02,2024,10,20,1061.5,89993.5,-6849.5,11
2024-07-03,2024,10,20,-49.5,89944.0,-6899.0,11
2024-07-04,2024,10,20,264.0,90208.0,-6635.0,11
2024-07-05,2024,10,20,-291.0,89917.0,-6926.0,20
2024-07-07,2024,10,20,-220.0,89697.0,-7146.0,20
2024-07-08,2024,10,20,910.0,90607.0,-6236.0,20
2024-07-09,2024,10,20,-1450.0,89157.0,-7686.0,20
2024-07-10,2024,10,20,4590.0,93747.0,-3096.0,20
2024-07-11,2024,10,20,700.0,94447.0,-2396.0,20
2024-07-12,2024,10,20,2170.0,96617.0,-226.0,20
2024-07-14,2024,10,20,420.0,97037.0,0.0,20
2024-07-15,2024,10,20,2010.0,99047.0,0.0,20
2024-07-16,2024,10,20,7190.0,106237.0,0.0,20
2024-07-17,2024,10,20,3060.0,109297.0,0.0,20
2024-07-18,2024,10,20,-6140.0,103157.0,-6140.0,20
2024-07-19,2024,10,20,-4330.0,98827.0,-10470.0,20
2024-07-21,2024,10,20,320.0,99147.0,-10150.0,20
2024-07-22,2024,10,20,700.0,99847.0,-9450.0,20
2024-07-23,2024,10,20,-1290.0,98557.0,-10740.0,20
2024-07-24,2024,10,20,30.0,98587.0,-10710.0,0
2024-07-25,2024,10,20,0.0,98587.0,-10710.0,0
2024-07-26,2024,10,20,0.0,98587.0,-10710.0,0
2024-07-28,2024,10,20,0.0,98587.0,-10710.0,0
2024-07-29,2024,10,20,0.0,98587.0,-10710.0,0
2024-07-30,2024,10,20,0.0,98587.0,-10710.0,0
2024-07-31,2024,10,20,0.0,98587.0,-10710.0,0
2024-08-01,2024,10,20,0.0,98587.0,-10710.0,0
2024-08-02,2024,10,20,0.0,98587.0,-10710.0,0
2024-08-04,2024,10,20,0.0,98587.0,-10710.0,0
2024-08-05,2024,10,20,0.0,98587.0,-10710.0,0
2024-08-06,2024,10,20,0.0,98587.0,-10710.0,0
2024-08-07,2024,10,20,0.0,98587.0,-10710.0,0
2024-08-08,2024,10,20,0.0,98587.0,-10710.0,0
2024-08-09,2024,10,20,0.0,98587.0,-10710.0,0
2024-08-11,2024,10,20,0.0,98587.0,-10710.0,0
2024-08-12,2024,10,20,0.0,98587.0,-10710.0,0
2024-08-13,2024,10,20,0.0,98587.0,-10710.0,0
2024-08-14,2024,10,20,0.0,98587.0,-10710.0,0
2024-08-15,2024,10,20,0.0,98587.0,-10710.0,0
2024-08-16,2024,10,20,319.0,98906.0,-10391.0,11
2024-08-18,2024,10,20,38.5,98944.5,-10352.5,11
2024-08-19,2024,10,20,1050.5,99995.0,-9302.0,11
2024-08-20,2024,10,20,11.0,100006.0,-9291.0,11
2024-08-21,2024,10,20,-187.0,99819.0,-9478.0,11
2024-08-22,2024,10,20,-390.5,99428.5,-9868.5,11
2024-08-23,2024,10,20,2046.0,101474.5,-7822.5,11
2024-08-25,2024,10,20,-192.5,101282.0,-8015.0,11
2024-08-26,2024,10,20,418.0,101700.0,-7597.0,11
2024-08-27,2024,10,20,236.5,101936.5,-7360.5,11
2024-08-28,2024,10,20,-456.5,101480.0,-7817.0,11
2024-08-29,2024,10,20,962.5,102442.5,-6854.5,11
2024-08-30,2024,10,20,1496.0,103938.5,-5358.5,20
2024-09-01,2024,10,20,-190.0,103748.5,-5548.5,20
2024-09-02,2024,10,20,-410.0,103338.5,-5958.5,20
2024-09-03,2024,10,20,-6900.0,96438.5,-12858.5,20
2024-09-04,2024,10,20,1270.0,97708.5,-11588.5,20
2024-09-05,2024,10,20,-1640.0,96068.5,-13228.5,20
2024-09-06,2024,10,20,-30.0,96038.5,-13258.5,0
2024-09-08,2024,10,20,0.0,96038.5,-13258.5,0
2024-09-09,2024,10,20,0.0,96038.5,-13258.5,0
2024-09-10,2024,10,20,0.0,96038.5,-13258.5,0
2024-09-11,2024,10,20,0.0,96038.5,-13258.5,0
2024-09-12,2024,10,20,0.0,96038.5,-13258.5,0
2024-09-13,2024,10,20,0.0,96038.5,-13258.5,0
2024-09-15,2024,10,20,0.0,96038.5,-13258.5,0
2024-09-16,2024,10,20,0.0,96038.5,-13258.5,0
2024-09-17,2024,10,20,275.0,96313.5,-12983.5,11
2024-09-18,2024,10,20,599.5,96913.0,-12384.0,11
2024-09-19,2024,10,20,1386.0,98299.0,-10998.0,11
2024-09-20,2024,10,20,5.5,98304.5,-10992.5,11
2024-09-22,2024,10,20,390.5,98695.0,-10602.0,11
2024-09-23,2024,10,20,-456.5,98238.5,-11058.5,11
2024-09-24,2024,10,20,462.0,98700.5,-10596.5,11
2024-09-25,2024,10,20,-737.0,97963.5,-11333.5,11
2024-09-26,2024,10,20,891.0,98854.5,-10442.5,11
2024-09-27,2024,10,20,212.0,99066.5,-10230.5,20
2024-09-29,2024,10,20,530.0,99596.5,-9700.5,20
2024-09-30,2024,10,20,-440.0,99156.5,-10140.5,20
2024-10-01,2024,10,20,-2130.0,97026.5,-12270.5,20
2024-10-02,2024,10,20,430.0,97456.5,-11840.5,20
2024-10-03,2024,10,20,-1500.0,95956.5,-13340.5,20
2024-10-04,2024,10,20,3200.0,99156.5,-10140.5,20
2024-10-06,2024,10,20,40.0,99196.5,-10100.5,20
2024-10-07,2024,10,20,-4220.0,94976.5,-14320.5,20
2024-10-08,2024,10,20,1200.0,96176.5,-13120.5,20
2024-10-09,2024,10,20,5000.0,101176.5,-8120.5,20
2024-10-10,2024,10,20,-760.0,100416.5,-8880.5,20
2024-10-11,2024,10,20,3460.0,103876.5,-5420.5,20
2024-10-13,2024,10,20,400.0,104276.5,-5020.5,20
2024-10-14,2024,10,20,2760.0,107036.5,-2260.5,20
2024-10-15,2024,10,20,-4050.0,102986.5,-6310.5,20
2024-10-16,2024,10,20,2680.0,105666.5,-3630.5,20
2024-10-17,2024,10,20,1970.0,107636.5,-1660.5,20
2024-10-18,2024,10,20,540.0,108176.5,-1120.5,20
2024-10-20,2024,10,20,120.0,108296.5,-1000.5,20
2024-10-21,2024,10,20,-4330.0,103966.5,-5330.5,20
2024-10-22,2024,10,20,-780.0,103186.5,-6110.5,20
2024-10-23,2024,10,20,-3620.0,99566.5,-9730.5,20
2024-10-24,2024,10,20,-890.0,98676.5,-10620.5,20
2024-10-25,2024,10,20,30.0,98706.5,-10590.5,0
2024-10-27,2024,10,20,0.0,98706.5,-10590.5,0
2024-10-28,2024,10,20,0.0,98706.5,-10590.5,0
2024-10-29,2024,10,20,0.0,98706.5,-10590.5,0
2024-10-30,2024,10,20,0.0,98706.5,-10590.5,0
2024-10-31,2024,10,20,0.0,98706.5,-10590.5,0
2024-11-01,2024,10,20,0.0,98706.5,-10590.5,0
2024-11-03,2024,10,20,0.0,98706.5,-10590.5,0
2024-11-04,2024,10,20,0.0,98706.5,-10590.5,0
2024-11-05,2024,10,20,0.0,98706.5,-10590.5,0
2024-11-06,2024,10,20,0.0,98706.5,-10590.5,0
2024-11-07,2024,10,20,-616.0,98090.5,-11206.5,11
2024-11-08,2024,10,20,0.0,98090.5,-11206.5,0
2024-11-10,2024,10,20,121.0,98211.5,-11085.5,11
2024-11-11,2024,10,20,1188.0,99399.5,-9897.5,11
2024-11-12,2024,10,20,-2057.0,97342.5,-11954.5,11
2024-11-13,2024,10,20,357.5,97700.0,-11597.0,11
2024-11-14,2024,10,20,-1567.5,96132.5,-13164.5,11
2024-11-15,2024,10,20,5.5,96138.0,-13159.0,0
2024-11-17,2024,10,20,0.0,96138.0,-13159.0,0
2024-11-18,2024,10,20,0.0,96138.0,-13159.0,0
2024-11-19,2024,10,20,0.0,96138.0,-13159.0,0
2024-11-20,2024,10,20,0.0,96138.0,-13159.0,0
2024-11-21,2024,10,20,0.0,96138.0,-13159.0,0
2024-11-22,2024,10,20,0.0,96138.0,-13159.0,0
2024-11-24,2024,10,20,825.0,96963.0,-12334.0,11
2024-11-25,2024,10,20,1034.0,97997.0,-11300.0,11
2024-11-26,2024,10,20,781.0,98778.0,-10519.0,11
2024-11-27,2024,10,20,-511.5,98266.5,-11030.5,11
2024-11-28,2024,10,20,451.0,98717.5,-10579.5,11
2024-11-29,2024,10,20,495.0,99212.5,-10084.5,11
2024-12-01,2024,10,20,-440.0,98772.5,-10524.5,11
2024-12-02,2024,10,20,-429.0,98343.5,-10953.5,11
2024-12-03,2024,10,20,247.5,98591.0,-10706.0,11
2024-12-04,2024,10,20,797.5,99388.5,-9908.5,11
2024-12-05,2024,10,20,-1441.0,97947.5,-11349.5,11
2024-12-06,2024,10,20,-818.0,97129.5,-12167.5,20
2024-12-08,2024,10,20,-210.0,96919.5,-12377.5,20
2024-12-09,2024,10,20,-2100.0,94819.5,-14477.5,20
2024-12-10,2024,10,20,-1380.0,93439.5,-15857.5,20
2024-12-11,2024,10,20,-1900.0,91539.5,-17757.5,20
2024-12-12,2024,10,20,-1490.0,90049.5,-19247.5,20
2024-12-13,2024,10,20,10.0,90059.5,-19237.5,0
2024-12-15,2024,10,20,0.0,90059.5,-19237.5,0
2024-12-16,2024,10,20,0.0,90059.5,-19237.5,0
2024-12-17,2024,10,20,0.0,90059.5,-19237.5,0
2024-12-18,2024,10,20,0.0,90059.5,-19237.5,0
2024-12-19,2024,10,20,0.0,90059.5,-19237.5,0
2024-12-20,2024,10,20,0.0,90059.5,-19237.5,0
2024-12-22,2024,10,20,0.0,90059.5,-19237.5,0
2024-12-23,2024,10,20,0.0,90059.5,-19237.5,0
2024-12-24,2024,10,20,0.0,90059.5,-19237.5,0
2024-12-25,2024,10,20,0.0,90059.5,-19237.5,0
2024-12-26,2024,10,20,0.0,90059.5,-19237.5,0
2024-12-27,2024,10,20,0.0,90059.5,-19237.5,0
2024-12-29,2024,10,20,0.0,90059.5,-19237.5,0
2024-12-30,2024,10,20,0.0,90059.5,-19237.5,0
2024-12-31,2024,10,20,0.0,90059.5,-19237.5,0
2025-01-01,2025,13,23,0.0,90059.5,-19237.5,0
2025-01-02,2025,13,23,0.0,90059.5,-19237.5,0
2025-01-03,2025,13,23,0.0,90059.5,-19237.5,0
2025-01-05,2025,13,23,0.0,90059.5,-19237.5,0
2025-01-06,2025,13,23,0.0,90059.5,-19237.5,0
2025-01-07,2025,13,23,0.0,90059.5,-19237.5,0
2025-01-08,2025,13,23,0.0,90059.5,-19237.5,0
2025-01-09,2025,13,23,0.0,90059.5,-19237.5,0
2025-01-10,2025,13,23,0.0,90059.5,-19237.5,0
2025-01-12,2025,13,23,0.0,90059.5,-19237.5,0
2025-01-13,2025,13,23,0.0,90059.5,-19237.5,0
2025-01-14,2025,13,23,0.0,90059.5,-19237.5,0
2025-01-15,2025,13,23,0.0,90059.5,-19237.5,0
2025-01-16,2025,13,23,-497.0,89562.5,-19734.5,14
2025-01-17,2025,13,23,35.0,89597.5,-19699.5,0
2025-01-19,2025,13,23,182.0,89779.5,-19517.5,14
2025-01-20,2025,13,23,763.0,90542.5,-18754.5,14
2025-01-21,2025,13,23,3129.0,93671.5,-15625.5,14
2025-01-22,2025,13,23,539.0,94210.5,-15086.5,14
2025-01-23,2025,13,23,2674.0,96884.5,-12412.5,14
2025-01-24,2025,13,23,-945.0,95939.5,-13357.5,14
2025-01-26,2025,13,23,-1113.0,94826.5,-14470.5,14
2025-01-27,2025,13,23,2800.0,97626.5,-11670.5,14
2025-01-28,2025,13,23,1358.0,98984.5,-10312.5,14
2025-01-29,2025,13,23,-301.0,98683.5,-10613.5,14
2025-01-30,2025,13,23,798.0,99481.5,-9815.5,14
2025-01-31,2025,13,23,-3022.0,96459.5,-12837.5,23
2025-02-02,2025,13,23,-7820.0,88639.5,-20657.5,23
2025-02-03,2025,13,23,6578.0,95217.5,-14079.5,23
2025-02-04,2025,13,23,34.5,95252.0,-14045.0,23
2025-02-05,2025,13,23,5681.0,100933.0,-8364.0,23
2025-02-06,2025,13,23,-2967.0,97966.0,-11331.0,23
2025-02-07,2025,13,23,-4738.0,93228.0,-16069.0,23
2025-02-09,2025,13,23,816.5,94044.5,-15252.5,23
2025-02-10,2025,13,23,253.0,94297.5,-14999.5,23
2025-02-11,2025,13,23,1978.0,96275.5,-13021.5,23
2025-02-12,2025,13,23,-1610.0,94665.5,-14631.5,23
2025-02-13,2025,13,23,3691.5,98357.0,-10940.0,23
2025-02-14,2025,13,23,-2587.5,95769.5,-13527.5,23
2025-02-16,2025,13,23,448.5,96218.0,-13079.0,23
2025-02-17,2025,13,23,57.5,96275.5,-13021.5,23
2025-02-18,2025,13,23,34.5,96310.0,-12987.0,23
2025-02-19,2025,13,23,-816.5,95493.5,-13803.5,23
2025-02-20,2025,13,23,-4048.0,91445.5,-17851.5,23
2025-02-21,2025,13,23,23.0,91468.5,-17828.5,0
2025-02-23,2025,13,23,0.0,91468.5,-17828.5,0
2025-02-24,2025,13,23,0.0,91468.5,-17828.5,0
2025-02-25,2025,13,23,0.0,91468.5,-17828.5,0
2025-02-26,2025,13,23,0.0,91468.5,-17828.5,0
2025-02-27,2025,13,23,0.0,91468.5,-17828.5,0
2025-02-28,2025,13,23,0.0,91468.5,-17828.5,0
2025-03-02,2025,13,23,0.0,91468.5,-17828.5,0
2025-03-03,2025,13,23,0.0,91468.5,-17828.5,0
2025-03-04,2025,13,23,0.0,91468.5,-17828.5,0
2025-03-05,2025,13,23,0.0,91468.5,-17828.5,0
2025-03-06,2025,13,23,0.0,91468.5,-17828.5,0
2025-03-07,2025,13,23,0.0,91468.5,-17828.5,0
2025-03-09,2025,13,23,0.0,91468.5,-17828.5,0
2025-03-10,2025,13,23,0.0,91468.5,-17828.5,0
2025-03-11,2025,13,23,0.0,91468.5,-17828.5,0
2025-03-12,2025,13,23,0.0,91468.5,-17828.5,0
2025-03-13,2025,13,23,0.0,91468.5,-17828.5,0
2025-03-14,2025,13,23,0.0,91468.5,-17828.5,0
2025-03-16,2025,13,23,0.0,91468.5,-17828.5,0
2025-03-17,2025,13,23,0.0,91468.5,-17828.5,0
2025-03-18,2025,13,23,0.0,91468.5,-17828.5,0
2025-03-19,2025,13,23,0.0,91468.5,-17828.5,0
2025-03-20,2025,13,23,0.0,91468.5,-17828.5,0
2025-03-21,2025,13,23,0.0,91468.5,-17828.5,0
2025-03-23,2025,13,23,0.0,91468.5,-17828.5,0
2025-03-24,2025,13,23,0.0,91468.5,-17828.5,0
2025-03-25,2025,13,23,0.0,91468.5,-17828.5,0
2025-03-26,2025,13,23,0.0,91468.5,-17828.5,0
2025-03-27,2025,13,23,0.0,91468.5,-17828.5,0
2025-03-28,2025,13,23,0.0,91468.5,-17828.5,0
2025-03-30,2025,13,23,0.0,91468.5,-17828.5,0
2025-03-31,2025,13,23,0.0,91468.5,-17828.5,0
2025-04-01,2025,13,23,0.0,91468.5,-17828.5,0
2025-04-02,2025,13,23,0.0,91468.5,-17828.5,0
2025-04-03,2025,13,23,0.0,91468.5,-17828.5,0
2025-04-04,2025,13,23,0.0,91468.5,-17828.5,0
2025-04-06,2025,13,23,0.0,91468.5,-17828.5,0
2025-04-07,2025,13,23,0.0,91468.5,-17828.5,0
2025-04-08,2025,13,23,0.0,91468.5,-17828.5,0
2025-04-09,2025,13,23,0.0,91468.5,-17828.5,0
2025-04-10,2025,13,23,-7322.0,84146.5,-25150.5,14
2025-04-11,2025,13,23,21.0,84167.5,-25129.5,0
2025-04-13,2025,13,23,0.0,84167.5,-25129.5,0
2025-04-14,2025,13,23,0.0,84167.5,-25129.5,0
2025-04-15,2025,13,23,0.0,84167.5,-25129.5,0
2025-04-16,2025,13,23,0.0,84167.5,-25129.5,0
2025-04-17,2025,13,23,0.0,84167.5,-25129.5,0
2025-04-20,2025,13,23,0.0,84167.5,-25129.5,0
2025-04-21,2025,13,23,0.0,84167.5,-25129.5,0
2025-04-22,2025,13,23,0.0,84167.5,-25129.5,0
2025-04-23,2025,13,23,0.0,84167.5,-25129.5,0
2025-04-24,2025,13,23,0.0,84167.5,-25129.5,0
2025-04-25,2025,13,23,0.0,84167.5,-25129.5,0
2025-04-27,2025,13,23,0.0,84167.5,-25129.5,0
2025-04-28,2025,13,23,0.0,84167.5,-25129.5,0
2025-04-29,2025,13,23,0.0,84167.5,-25129.5,0
2025-04-30,2025,13,23,0.0,84167.5,-25129.5,0
2025-05-01,2025,13,23,1372.0,85539.5,-23757.5,14
2025-05-02,2025,13,23,1638.0,87177.5,-22119.5,14
2025-05-04,2025,13,23,-1967.0,85210.5,-24086.5,14
2025-05-05,2025,13,23,966.0,86176.5,-23120.5,14
2025-05-06,2025,13,23,-1071.0,85105.5,-24191.5,14
2025-05-07,2025,13,23,2100.0,87205.5,-22091.5,14
2025-05-08,2025,13,23,245.0,87450.5,-21846.5,14
2025-05-09,2025,13,23,-558.0,86892.5,-22404.5,23
2025-05-11,2025,13,23,4772.5,91665.0,-17632.0,23
2025-05-12,2025,13,23,6831.0,98496.0,-10801.0,23
2025-05-13,2025,13,23,-1656.0,96840.0,-12457.0,23
2025-05-14,2025,13,23,-3231.5,93608.5,-15688.5,23
2025-05-15,2025,13,23,5025.5,98634.0,-10663.0,23
2025-05-16,2025,13,23,1725.0,100359.0,-8938.0,23
2025-05-18,2025,13,23,-1575.5,98783.5,-10513.5,23
2025-05-19,2025,13,23,4887.5,103671.0,-5626.0,23
2025-05-20,2025,13,23,-2012.5,101658.5,-7638.5,23
2025-05-21,2025,13,23,-8165.0,93493.5,-15803.5,23
2025-05-22,2025,13,23,149.5,93643.0,-15654.0,23
2025-05-23,2025,13,23,-3323.5,90319.5,-18977.5,23
2025-05-25,2025,13,23,4266.5,94586.0,-14711.0,23
2025-05-26,2025,13,23,-506.0,94080.0,-15217.0,23
2025-05-27,2025,13,23,4462.0,98542.0,-10755.0,23
2025-05-28,2025,13,23,3611.0,102153.0,-7144.0,23
2025-05-29,2025,13,23,-5543.0,96610.0,-12687.0,23
2025-05-30,2025,13,23,655.5,97265.5,-12031.5,23
2025-06-01,2025,13,23,-1564.0,95701.5,-13595.5,23
2025-06-02,2025,13,23,954.5,96656.0,-12641.0,23
2025-06-03,2025,13,23,3979.0,100635.0,-8662.0,23
2025-06-04,2025,13,23,-1035.0,99600.0,-9697.0,23
2025-06-05,2025,13,23,115.0,99715.0,-9582.0,23
2025-06-06,2025,13,23,3933.0,103648.0,-5649.0,23
2025-06-08,2025,13,23,-1012.0,102636.0,-6661.0,23
2025-06-09,2025,13,23,2035.5,104671.5,-4625.5,23
2025-06-10,2025,13,23,-1230.5,103441.0,-5856.0,23
2025-06-11,2025,13,23,-655.5,102785.5,-6511.5,23
2025-06-12,2025,13,23,-3956.0,98829.5,-10467.5,23
2025-06-13,2025,13,23,-2714.0,96115.5,-13181.5,23
2025-06-15,2025,13,23,4255.0,100370.5,-8926.5,23
2025-06-16,2025,13,23,2093.0,102463.5,-6833.5,23
2025-06-17,2025,13,23,-1966.5,100497.0,-8800.0,23
2025-06-18,2025,13,23,-1127.0,99370.0,-9927.0,23
2025-06-19,2025,13,23,-724.5,98645.5,-10651.5,23
2025-06-20,2025,13,23,2012.5,100658.0,-8639.0,23
2025-06-22,2025,13,23,-2150.5,98507.5,-10789.5,23
2025-06-23,2025,13,23,8498.5,107006.0,-2291.0,23
2025-06-24,2025,13,23,3415.5,110421.5,0.0,23
2025-06-25,2025,13,23,-920.0,109501.5,-920.0,23
2025-06-26,2025,13,23,5244.0,114745.5,0.0,23
2025-06-27,2025,13,23,5175.0,119920.5,0.0,23
2025-06-29,2025,13,23,1426.0,121346.5,0.0,23
2025-06-30,2025,13,23,-207.0,121139.5,-207.0,23
2025-07-01,2025,13,23,5934.0,127073.5,0.0,23
2025-07-02,2025,13,23,-747.5,126326.0,-747.5,23
2025-07-03,2025,13,23,2116.0,128442.0,0.0,23
2025-07-04,2025,13,23,-1690.5,126751.5,-1690.5,23
2025-07-06,2025,13,23,1541.0,128292.5,-149.5,23
2025-07-07,2025,13,23,-3967.5,124325.0,-4117.0,23
2025-07-08,2025,13,23,-1897.5,122427.5,-6014.5,23
2025-07-09,2025,13,23,1690.5,124118.0,-4324.0,23
2025-07-10,2025,13,23,1828.5,125946.5,-2495.5,23
2025-07-11,2025,13,23,-2438.0,123508.5,-4933.5,23
2025-07-13,2025,13,23,-1771.0,121737.5,-6704.5,23
2025-07-14,2025,13,23,2909.5,124647.0,-3795.0,23
2025-07-15,2025,13,23,-5612.0,119035.0,-9407.0,23
2025-07-16,2025,13,23,2484.0,121519.0,-6923.0,23
2025-07-17,2025,13,23,4726.5,126245.5,-2196.5,23
2025-07-18,2025,13,23,-3013.0,123232.5,-5209.5,23
2025-07-20,2025,13,23,414.0,123646.5,-4795.5,23
2025-07-21,2025,13,23,218.5,123865.0,-4577.0,23
2025-07-22,2025,13,23,2668.0,126533.0,-1909.0,23
2025-07-23,2025,13,23,2990.0,129523.0,0.0,23
2025-07-24,2025,13,23,-632.5,128890.5,-632.5,23
2025-07-25,2025,13,23,655.5,129546.0,0.0,23
2025-07-27,2025,13,23,1989.5,131535.5,0.0,23
2025-07-28,2025,13,23,-2380.5,129155.0,-2380.5,23
2025-07-29,2025,13,23,-2334.5,126820.5,-4715.0,23
2025-07-30,2025,13,23,-1081.0,125739.5,-5796.0,23
2025-07-31,2025,13,23,-5876.5,119863.0,-11672.5,23
2025-08-01,2025,13,23,-34.5,119828.5,-11707.0,0
2025-08-03,2025,13,23,0.0,119828.5,-11707.0,0
2025-08-04,2025,13,23,0.0,119828.5,-11707.0,0
2025-08-05,2025,13,23,0.0,119828.5,-11707.0,0
2025-08-06,2025,13,23,0.0,119828.5,-11707.0,0
2025-08-07,2025,13,23,0.0,119828.5,-11707.0,0
2025-08-08,2025,13,23,0.0,119828.5,-11707.0,0
2025-08-10,2025,13,23,0.0,119828.5,-11707.0,0
2025-08-11,2025,13,23,0.0,119828.5,-11707.0,0
2025-08-12,2025,13,23,0.0,119828.5,-11707.0,0
2025-08-13,2025,13,23,0.0,119828.5,-11707.0,0
2025-08-14,2025,13,23,0.0,119828.5,-11707.0,0
2025-08-15,2025,13,23,-1925.0,117903.5,-13632.0,14
2025-08-17,2025,13,23,42.0,117945.5,-13590.0,0
2025-08-18,2025,13,23,0.0,117945.5,-13590.0,0
2025-08-19,2025,13,23,0.0,117945.5,-13590.0,0
2025-08-20,2025,13,23,0.0,117945.5,-13590.0,0
2025-08-21,2025,13,23,0.0,117945.5,-13590.0,0
2025-08-22,2025,13,23,0.0,117945.5,-13590.0,0
2025-08-24,2025,13,23,-427.0,117518.5,-14017.0,14
2025-08-25,2025,13,23,-2597.0,114921.5,-16614.0,14
2025-08-26,2025,13,23,1666.0,116587.5,-14948.0,14
2025-08-27,2025,13,23,1358.0,117945.5,-13590.0,14
2025-08-28,2025,13,23,-602.0,117343.5,-14192.0,14
2025-08-29,2025,13,23,-56.0,117287.5,-14248.0,14
2025-08-31,2025,13,23,-217.0,117070.5,-14465.0,14
2025-09-01,2025,13,23,-63.0,117007.5,-14528.0,14
2025-09-02,2025,13,23,-2667.0,114340.5,-17195.0,14
2025-09-03,2025,13,23,-14.0,114326.5,-17209.0,0
2025-09-04,2025,13,23,0.0,114326.5,-17209.0,0
2025-09-05,2025,13,23,-1652.0,112674.5,-18861.0,14
2025-09-07,2025,13,23,287.0,112961.5,-18574.0,14
2025-09-08,2025,13,23,826.0,113787.5,-17748.0,14
2025-09-09,2025,13,23,609.0,114396.5,-17139.0,14
2025-09-10,2025,13,23,-973.0,113423.5,-18112.0,14
2025-09-11,2025,13,23,4046.0,117469.5,-14066.0,14
2025-09-12,2025,13,23,-2058.0,115411.5,-16124.0,14
2025-09-14,2025,13,23,2513.0,117924.5,-13611.0,14
2025-09-15,2025,13,23,497.0,118421.5,-13114.0,14
2025-09-16,2025,13,23,-1379.0,117042.5,-14493.0,14
2025-09-17,2025,13,23,2891.0,119933.5,-11602.0,14
2025-09-18,2025,13,23,427.0,120360.5,-11175.0,14
2025-09-19,2025,13,23,-26.5,120334.0,-11201.5,23
2025-09-21,2025,13,23,-92.0,120242.0,-11293.5,23
2025-09-22,2025,13,23,1403.0,121645.0,-9890.5,23
2025-09-23,2025,13,23,-460.0,121185.0,-10350.5,23
2025-09-24,2025,13,23,-1736.5,119448.5,-12087.0,23
2025-09-25,2025,13,23,-2955.5,116493.0,-15042.5,23
2025-09-26,2025,13,23,3254.5,119747.5,-11788.0,23
2025-09-28,2025,13,23,1311.0,121058.5,-10477.0,23
2025-09-29,2025,13,23,-793.5,120265.0,-11270.5,23
2025-09-30,2025,13,23,-1207.5,119057.5,-12478.0,23
2025-10-01,2025,13,23,2461.0,121518.5,-10017.0,23
2025-10-02,2025,13,23,2001.0,123519.5,-8016.0,23
2025-10-03,2025,13,23,1771.0,125290.5,-6245.0,23
2025-10-05,2025,13,23,1012.0,126302.5,-5233.0,23
2025-10-06,2025,13,23,-3024.5,123278.0,-8257.5,23
2025-10-07,2025,13,23,471.5,123749.5,-7786.0,23
2025-10-08,2025,13,23,-1058.0,122691.5,-8844.0,23
2025-10-09,2025,13,23,-1966.5,120725.0,-10810.5,23
2025-10-10,2025,13,23,11.5,120736.5,-10799.0,0
2025-10-12,2025,13,23,0.0,120736.5,-10799.0,0
2025-10-13,2025,13,23,0.0,120736.5,-10799.0,0
2025-10-14,2025,13,23,0.0,120736.5,-10799.0,0
2025-10-15,2025,13,23,0.0,120736.5,-10799.0,0
2025-10-16,2025,13,23,0.0,120736.5,-10799.0,0
2025-10-17,2025,13,23,0.0,120736.5,-10799.0,0
2025-10-19,2025,13,23,0.0,120736.5,-10799.0,0
2025-10-20,2025,13,23,0.0,120736.5,-10799.0,0
2025-10-21,2025,13,23,0.0,120736.5,-10799.0,0
2025-10-22,2025,13,23,0.0,120736.5,-10799.0,0
2025-10-23,2025,13,23,0.0,120736.5,-10799.0,0
2025-10-24,2025,13,23,0.0,120736.5,-10799.0,0
2025-10-26,2025,13,23,-77.0,120659.5,-10876.0,14
2025-10-27,2025,13,23,7.0,120666.5,-10869.0,0
2025-10-28,2025,13,23,910.0,121576.5,-9959.0,14
2025-10-29,2025,13,23,252.0,121828.5,-9707.0,14
2025-10-30,2025,13,23,-1246.0,120582.5,-10953.0,14
2025-10-31,2025,13,23,196.0,120778.5,-10757.0,14
2025-11-02,2025,13,23,301.0,121079.5,-10456.0,14
2025-11-03,2025,13,23,-3276.0,117803.5,-13732.0,14
2025-11-04,2025,13,23,21.0,117824.5,-13711.0,0
2025-11-05,2025,13,23,0.0,117824.5,-13711.0,0
2025-11-06,2025,13,23,0.0,117824.5,-13711.0,0
2025-11-07,2025,13,23,0.0,117824.5,-13711.0,0
2025-11-09,2025,13,23,0.0,117824.5,-13711.0,0
2025-11-10,2025,13,23,0.0,117824.5,-13711.0,0
2025-11-11,2025,13,23,0.0,117824.5,-13711.0,0
2025-11-12,2025,13,23,2863.0,120687.5,-10848.0,14
2025-11-13,2025,13,23,-6489.0,114198.5,-17337.0,14
2025-11-14,2025,13,23,21.0,114219.5,-17316.0,0
2025-11-16,2025,13,23,0.0,114219.5,-17316.0,0
2025-11-17,2025,13,23,0.0,114219.5,-17316.0,0
2025-11-18,2025,13,23,0.0,114219.5,-17316.0,0
2025-11-19,2025,13,23,0.0,114219.5,-17316.0,0
2025-11-20,2025,13,23,0.0,114219.5,-17316.0,0
2025-11-21,2025,13,23,0.0,114219.5,-17316.0,0
2025-11-23,2025,13,23,0.0,114219.5,-17316.0,0
2025-11-24,2025,13,23,0.0,114219.5,-17316.0,0
2025-11-25,2025,13,23,0.0,114219.5,-17316.0,0
2025-11-26,2025,13,23,0.0,114219.5,-17316.0,0
2025-11-27,2025,13,23,0.0,114219.5,-17316.0,0
2025-11-28,2025,13,23,0.0,114219.5,-17316.0,0
2025-11-30,2025,13,23,0.0,114219.5,-17316.0,0
2025-12-01,2025,13,23,0.0,114219.5,-17316.0,0
2025-12-02,2025,13,23,0.0,114219.5,-17316.0,0
2025-12-03,2025,13,23,0.0,114219.5,-17316.0,0
2025-12-04,2025,13,23,-553.0,113666.5,-17869.0,14
2025-12-05,2025,13,23,7.0,113673.5,-17862.0,0
2025-12-07,2025,13,23,0.0,113673.5,-17862.0,0
2025-12-08,2025,13,23,0.0,113673.5,-17862.0,0
2025-12-09,2025,13,23,0.0,113673.5,-17862.0,0
2025-12-10,2025,13,23,0.0,113673.5,-17862.0,0
2025-12-11,2025,13,23,0.0,113673.5,-17862.0,0
2025-12-12,2025,13,23,-2296.0,111377.5,-20158.0,14
2025-12-14,2025,13,23,3542.0,114919.5,-16616.0,14
2025-12-15,2025,13,23,-2093.0,112826.5,-18709.0,14
2025-12-16,2025,13,23,-2149.0,110677.5,-20858.0,14
2025-12-17,2025,13,23,-1428.0,109249.5,-22286.0,14
2025-12-18,2025,13,23,133.0,109382.5,-22153.0,14
2025-12-19,2025,13,23,1799.0,111181.5,-20354.0,14
2025-12-21,2025,13,23,70.0,111251.5,-20284.0,14
2025-12-22,2025,13,23,1001.0,112252.5,-19283.0,14
2025-12-23,2025,13,23,560.0,112812.5,-18723.0,14
2025-12-24,2025,13,23,2079.0,114891.5,-16644.0,14
2025-12-25,2025,13,23,105.0,114996.5,-16539.0,14
2025-12-26,2025,13,23,-111.0,114885.5,-16650.0,23
2025-12-28,2025,13,23,-115.0,114770.5,-16765.0,23
2025-12-29,2025,13,23,-2760.0,112010.5,-19525.0,23
2025-12-30,2025,13,23,-1460.5,110550.0,-20985.5,23
2025-12-31,2025,13,23,-3277.5,107272.5,-24263.0,23
2026-01-01,2026,17,27,1444.5,108717.0,-22818.5,27
2026-01-02,2026,17,27,1998.0,110715.0,-20820.5,27
2026-01-04,2026,17,27,445.5,111160.5,-20375.0,27
2026-01-05,2026,17,27,8289.0,119449.5,-12086.0,27
2026-01-06,2026,17,27,7438.5,126888.0,-4647.5,27
2026-01-07,2026,17,27,-8653.5,118234.5,-13301.0,27
2026-01-08,2026,17,27,4644.0,122878.5,-8657.0,27
2026-01-09,2026,17,27,3145.5,126024.0,-5511.5,27
2026-01-11,2026,17,27,-3442.5,122581.5,-8954.0,27
2026-01-12,2026,17,27,4333.5,126915.0,-4620.5,27
2026-01-13,2026,17,27,-7060.5,119854.5,-11681.0,27
2026-01-14,2026,17,27,351.0,120205.5,-11330.0,27
2026-01-15,2026,17,27,5994.0,126199.5,-5336.0,27
2026-01-16,2026,17,27,-2578.5,123621.0,-7914.5,27
2026-01-18,2026,17,27,-5116.5,118504.5,-13031.0,27
2026-01-19,2026,17,27,-1296.0,117208.5,-14327.0,27
2026-01-20,2026,17,27,-4266.0,112942.5,-18593.0,27
2026-01-21,2026,17,27,7992.0,120934.5,-10601.0,27
2026-01-22,2026,17,27,3240.0,124174.5,-7361.0,27
2026-01-23,2026,17,27,-5629.5,118545.0,-12990.5,27
2026-01-25,2026,17,27,-594.0,117951.0,-13584.5,27
2026-01-26,2026,17,27,5157.0,123108.0,-8427.5,27
2026-01-27,2026,17,27,-5022.0,118086.0,-13449.5,27
2026-01-28,2026,17,27,-283.5,117802.5,-13733.0,27
2026-01-29,2026,17,27,-1971.0,115831.5,-15704.0,27
2026-01-30,2026,17,27,40.5,115872.0,-15663.5,27
2026-02-01,2026,17,27,-4482.0,111390.0,-20145.5,27
2026-02-02,2026,17,27,12393.0,123783.0,-7752.5,27
2026-02-03,2026,17,27,-2227.5,121555.5,-9980.0,27
2026-02-04,2026,17,27,1755.0,123310.5,-8225.0,27
2026-02-05,2026,17,27,-8883.0,114427.5,-17108.0,27
2026-02-06,2026,17,27,17914.5,132342.0,0.0,27
2026-02-08,2026,17,27,1080.0,133422.0,0.0,27
2026-02-09,2026,17,27,-607.5,132814.5,-607.5,27
2026-02-10,2026,17,27,2106.0,134920.5,0.0,27
2026-02-11,2026,17,27,-567.0,134353.5,-567.0,27
2026-02-12,2026,17,27,-11515.5,122838.0,-12082.5,27
2026-02-13,2026,17,27,364.5,123202.5,-11718.0,27
2026-02-15,2026,17,27,1566.0,124768.5,-10152.0,27
2026-02-16,2026,17,27,-2889.0,121879.5,-13041.0,27
2026-02-17,2026,17,27,2997.0,124876.5,-10044.0,27
2026-02-18,2026,17,27,675.0,125551.5,-9369.0,27
2026-02-19,2026,17,27,-2430.0,123121.5,-11799.0,27
2026-02-20,2026,17,27,2173.5,125295.0,-9625.5,27
2026-02-22,2026,17,27,-4360.5,120934.5,-13986.0,27
2026-02-23,2026,17,27,-5697.0,115237.5,-19683.0,27
2026-02-24,2026,17,27,4009.5,119247.0,-15673.5,27
2026-02-25,2026,17,27,2875.5,122122.5,-12798.0,27
2026-02-26,2026,17,27,-2052.0,120070.5,-14850.0,27
2026-02-27,2026,17,27,-5211.0,114859.5,-20061.0,27
2026-03-01,2026,17,27,-5278.5,109581.0,-25339.5,0
2026-03-02,2026,17,27,0.0,109581.0,-25339.5,0
2026-03-03,2026,17,27,0.0,109581.0,-25339.5,0
2026-03-04,2026,17,27,0.0,109581.0,-25339.5,0
2026-03-05,2026,17,27,0.0,109581.0,-25339.5,0
2026-03-06,2026,17,27,0.0,109581.0,-25339.5,0
2026-03-08,2026,17,27,0.0,109581.0,-25339.5,0
