date,realized_points,open_unrealized_points,total_equity_points,open_units,direction
2019-05-05,0.0,0.0,0.0,0,
2019-05-06,0.0,0.0,0.0,0,
2019-05-07,0.0,0.0,0.0,0,
2019-05-08,0.0,0.0,0.0,0,
2019-05-09,0.0,0.0,0.0,0,
2019-05-10,0.0,0.0,0.0,0,
2019-05-12,0.0,0.0,0.0,0,
2019-05-13,0.0,0.0,0.0,0,
2019-05-14,0.0,0.0,0.0,0,
2019-05-15,0.0,0.0,0.0,0,
2019-05-16,0.0,0.0,0.0,0,
2019-05-17,0.0,0.0,0.0,0,
2019-05-19,0.0,0.0,0.0,0,
2019-05-20,0.0,0.0,0.0,0,
2019-05-21,0.0,0.0,0.0,0,
2019-05-22,0.0,0.0,0.0,0,
2019-05-23,0.0,0.0,0.0,0,
2019-05-24,0.0,0.0,0.0,0,
2019-05-26,0.0,0.0,0.0,0,
2019-05-27,0.0,0.0,0.0,0,
2019-05-28,0.0,0.0,0.0,0,
2019-05-29,0.0,0.0,0.0,0,
2019-05-30,0.0,0.0,0.0,0,
2019-05-31,0.0,0.0,0.0,0,
2019-06-02,0.0,0.0,0.0,0,
2019-06-03,0.0,0.0,0.0,0,
2019-06-04,0.0,0.0,0.0,0,
2019-06-05,0.0,0.0,0.0,0,
2019-06-06,0.0,0.0,0.0,0,
2019-06-07,0.0,0.0,0.0,0,
2019-06-09,0.0,-5.25,-5.25,1,Long
2019-06-10,0.0,46.5,46.5,1,Long
2019-06-11,0.0,53.0,53.0,1,Long
2019-06-12,0.0,28.75,28.75,1,Long
2019-06-13,0.0,34.5,34.5,1,Long
2019-06-14,0.0,23.0,23.0,1,Long
2019-06-16,0.0,65.0,65.0,1,Long
2019-06-17,0.0,101.75,101.75,1,Long
2019-06-18,0.0,224.0,224.0,1,Long
2019-06-19,0.0,266.25,266.25,1,Long
2019-06-20,0.0,302.75,302.75,1,Long
2019-06-21,0.0,285.25,285.25,2,Long
2019-06-23,0.0,332.75,332.75,2,Long
2019-06-24,0.0,310.25,310.25,2,Long
2019-06-25,0.0,44.75,44.75,2,Long
2019-06-26,0.0,99.75,99.75,2,Long
2019-06-27,0.0,183.75,183.75,2,Long
2019-06-28,0.0,240.25,240.25,2,Long
2019-06-30,0.0,397.25,397.25,2,Long
2019-07-01,0.0,347.25,347.25,2,Long
2019-07-02,0.0,463.25,463.25,2,Long
2019-07-03,0.0,572.25,572.25,2,Long
2019-07-04,0.0,600.75,600.75,2,Long
2019-07-05,0.0,501.75,501.75,3,Long
2019-07-07,0.0,465.75,465.75,3,Long
2019-07-08,0.0,319.5,319.5,3,Long
2019-07-09,0.0,478.5,478.5,3,Long
2019-07-10,0.0,719.25,719.25,3,Long
2019-07-11,0.0,702.75,702.75,3,Long
2019-07-12,0.0,811.5,811.5,3,Long
2019-07-14,0.0,793.5,793.5,3,Long
2019-07-15,0.0,921.0,921.0,3,Long
2019-07-16,0.0,762.0,762.0,3,Long
2019-07-17,0.0,556.5,556.5,3,Long
2019-07-18,0.0,774.75,774.75,3,Long
2019-07-19,0.0,394.5,394.5,4,Long
2019-07-21,0.0,522.5,522.5,4,Long
2019-07-22,0.0,833.5,833.5,4,Long
2019-07-23,0.0,932.5,932.5,4,Long
2019-07-24,0.0,1185.5,1185.5,4,Long
2019-07-25,0.0,1089.5,1089.5,4,Long
2019-07-26,0.0,1178.5,1178.5,4,Long
2019-07-28,0.0,1190.5,1190.5,4,Long
2019-07-29,0.0,1158.5,1158.5,4,Long
2019-07-30,0.0,1076.5,1076.5,4,Long
2019-07-31,0.0,468.5,468.5,4,Long
2019-08-01,0.0,261.5,261.5,4,Long
2019-08-02,0.0,-48.5,-48.5,4,Long
2019-08-04,-57.5,0.0,-57.5,0,
2019-08-05,-57.5,0.0,-57.5,0,
2019-08-06,-57.5,0.0,-57.5,0,
2019-08-07,-57.5,0.0,-57.5,0,
2019-08-08,-57.5,0.0,-57.5,0,
2019-08-09,-57.5,0.0,-57.5,0,
2019-08-11,-57.5,0.0,-57.5,0,
2019-08-12,-57.5,0.0,-57.5,0,
2019-08-13,-57.5,0.0,-57.5,0,
2019-08-14,-57.5,0.0,-57.5,0,
2019-08-15,-57.5,0.0,-57.5,0,
2019-08-16,-57.5,0.0,-57.5,0,
2019-08-18,-57.5,0.0,-57.5,0,
2019-08-19,-57.5,0.0,-57.5,0,
2019-08-20,-57.5,0.0,-57.5,0,
2019-08-21,-57.5,0.0,-57.5,0,
2019-08-22,-57.5,0.0,-57.5,0,
2019-08-23,-57.5,0.0,-57.5,0,
2019-08-25,-57.5,0.0,-57.5,0,
2019-08-26,-57.5,0.0,-57.5,0,
2019-08-27,-57.5,0.0,-57.5,0,
2019-08-28,-57.5,0.0,-57.5,0,
2019-08-29,-57.5,0.0,-57.5,0,
2019-08-30,-57.5,0.0,-57.5,0,
2019-09-01,-57.5,0.0,-57.5,0,
2019-09-02,-57.5,0.0,-57.5,0,
2019-09-03,-57.5,0.0,-57.5,0,
2019-09-04,-57.5,0.0,-57.5,0,
2019-09-05,-57.5,0.0,-57.5,0,
2019-09-06,-57.5,-8.0,-65.5,1,Long
2019-09-08,-57.5,-9.25,-66.75,1,Long
2019-09-09,-57.5,-30.25,-87.75,1,Long
2019-09-10,-57.5,-62.25,-119.75,1,Long
2019-09-11,-121.25,0.0,-121.25,0,
2019-09-12,-121.25,0.0,-121.25,0,
2019-09-13,-121.25,0.0,-121.25,0,
2019-09-15,-121.25,0.0,-121.25,0,
2019-09-16,-121.25,0.0,-121.25,0,
2019-09-17,-121.25,0.0,-121.25,0,
2019-09-18,-121.25,0.0,-121.25,0,
2019-09-19,-121.25,0.0,-121.25,0,
2019-09-20,-121.25,0.0,-121.25,1,Long
2019-09-22,-121.25,44.25,-77.0,1,Long
2019-09-23,-121.25,53.0,-68.25,1,Long
2019-09-24,-121.25,-79.5,-200.75,1,Long
2019-09-25,-200.75,0.0,-200.75,0,
2019-09-26,-200.75,0.0,-200.75,0,
2019-09-27,-200.75,0.0,-200.75,0,
2019-09-29,-200.75,0.0,-200.75,0,
2019-09-30,-200.75,0.0,-200.75,0,
2019-10-01,-200.75,0.0,-200.75,0,
2019-10-02,-200.75,0.0,-200.75,0,
2019-10-03,-200.75,0.0,-200.75,0,
2019-10-04,-200.75,0.0,-200.75,0,
2019-10-06,-200.75,0.0,-200.75,0,
2019-10-07,-200.75,0.0,-200.75,0,
2019-10-08,-200.75,0.0,-200.75,0,
2019-10-09,-200.75,0.0,-200.75,0,
2019-10-10,-200.75,0.0,-200.75,0,
2019-10-11,-200.75,0.0,-200.75,0,
2019-10-13,-200.75,0.0,-200.75,0,
2019-10-14,-200.75,0.0,-200.75,0,
2019-10-15,-200.75,0.0,-200.75,0,
2019-10-16,-200.75,0.0,-200.75,0,
2019-10-17,-200.75,0.0,-200.75,0,
2019-10-18,-200.75,0.0,-200.75,0,
2019-10-20,-200.75,0.0,-200.75,0,
2019-10-21,-200.75,0.0,-200.75,0,
2019-10-22,-200.75,0.0,-200.75,0,
2019-10-23,-200.75,0.0,-200.75,0,
2019-10-24,-200.75,0.0,-200.75,0,
2019-10-25,-200.75,0.0,-200.75,0,
2019-10-27,-200.75,9.0,-191.75,1,Long
2019-10-28,-200.75,64.75,-136.0,1,Long
2019-10-29,-200.75,11.0,-189.75,1,Long
2019-10-30,-200.75,75.25,-125.5,1,Long
2019-10-31,-200.75,41.5,-159.25,1,Long
2019-11-01,-200.75,115.0,-85.75,1,Long
2019-11-03,-200.75,128.75,-72.0,1,Long
2019-11-04,-200.75,191.75,-9.0,1,Long
2019-11-05,-200.75,165.25,-35.5,1,Long
2019-11-06,-200.75,155.25,-45.5,1,Long
2019-11-07,-200.75,189.25,-11.5,1,Long
2019-11-08,-200.75,212.0,11.25,2,Long
2019-11-10,-200.75,196.5,-4.25,2,Long
2019-11-11,-200.75,180.0,-20.75,2,Long
2019-11-12,-200.75,221.0,20.25,2,Long
2019-11-13,-200.75,220.5,19.75,2,Long
2019-11-14,-200.75,235.0,34.25,2,Long
2019-11-15,-200.75,339.5,138.75,2,Long
2019-11-17,-200.75,312.5,111.75,2,Long
2019-11-18,-200.75,347.5,146.75,2,Long
2019-11-19,-200.75,327.5,126.75,2,Long
2019-11-20,-200.75,232.5,31.75,2,Long
2019-11-21,-200.75,232.0,31.25,2,Long
2019-11-22,-200.75,256.0,55.25,3,Long
2019-11-24,-200.75,330.25,129.5,3,Long
2019-11-25,-200.75,536.5,335.75,3,Long
2019-11-26,-200.75,614.5,413.75,3,Long
2019-11-27,-200.75,686.5,485.75,3,Long
2019-11-28,-200.75,757.75,557.0,3,Long
2019-11-29,-200.75,673.75,473.0,3,Long
2019-12-01,-200.75,703.0,502.25,3,Long
2019-12-02,-200.75,322.75,122.0,3,Long
2019-12-03,-200.75,195.25,-5.5,3,Long
2019-12-04,-200.75,282.25,81.5,3,Long
2019-12-05,-200.75,354.25,153.5,3,Long
2019-12-06,-200.75,619.75,419.0,4,Long
2019-12-08,-200.75,624.75,424.0,4,Long
2019-12-09,-200.75,439.75,239.0,4,Long
2019-12-10,-200.75,450.75,250.0,4,Long
2019-12-11,-200.75,665.75,465.0,4,Long
2019-12-12,-200.75,1014.75,814.0,4,Long
2019-12-13,-200.75,1095.75,895.0,4,Long
2019-12-15,-200.75,1148.75,948.0,4,Long
2019-12-16,-200.75,1401.75,1201.0,4,Long
2019-12-17,-200.75,1419.75,1219.0,4,Long
2019-12-18,-200.75,1494.75,1294.0,4,Long
2019-12-19,-200.75,1726.75,1526.0,4,Long
2019-12-20,-200.75,1847.75,1647.0,5,Long
2019-12-22,-200.75,1907.75,1707.0,5,Long
2019-12-23,-200.75,1942.75,1742.0,5,Long
2019-12-24,-200.75,1946.5,1745.75,5,Long
2019-12-25,-200.75,1947.75,1747.0,5,Long
2019-12-26,-200.75,2336.5,2135.75,5,Long
2019-12-27,-200.75,2190.25,1989.5,5,Long
2019-12-29,-200.75,2285.25,2084.5,5,Long
2019-12-30,-200.75,1971.5,1770.75,5,Long
2019-12-31,-200.75,2154.0,1953.25,5,Long
2020-01-01,-200.75,2176.5,1975.75,5,Long
2020-01-02,-200.75,2790.25,2589.5,5,Long
2020-01-03,-200.75,2347.75,2147.0,5,Long
2020-01-05,-200.75,2186.5,1985.75,5,Long
2020-01-06,-200.75,2541.5,2340.75,5,Long
2020-01-07,-200.75,2056.5,1855.75,5,Long
2020-01-08,-200.75,3056.5,2855.75,5,Long
2020-01-09,-200.75,3374.0,3173.25,5,Long
2020-01-10,-200.75,3187.75,2987.0,5,Long
2020-01-12,-200.75,3234.0,3033.25,5,Long
2020-01-13,-200.75,3821.5,3620.75,5,Long
2020-01-14,-200.75,3451.5,3250.75,5,Long
2020-01-15,-200.75,3667.75,3467.0,5,Long
2020-01-16,-200.75,4025.25,3824.5,5,Long
2020-01-17,-200.75,4152.75,3952.0,5,Long
2020-01-19,-200.75,4220.25,4019.5,5,Long
2020-01-20,-200.75,4146.5,3945.75,5,Long
2020-01-21,-200.75,4187.75,3987.0,5,Long
2020-01-22,-200.75,4209.0,4008.25,5,Long
2020-01-23,-200.75,4646.5,4445.75,5,Long
2020-01-24,-200.75,3982.75,3782.0,5,Long
2020-01-26,-200.75,3369.0,3168.25,5,Long
2020-01-27,-200.75,3190.25,2989.5,5,Long
2020-01-28,-200.75,3796.5,3595.75,5,Long
2020-01-29,-200.75,3905.25,3704.5,5,Long
2020-01-30,-200.75,4386.5,4185.75,5,Long
2020-01-31,-200.75,3359.0,3158.25,5,Long
2020-02-02,-200.75,3397.75,3197.0,5,Long
2020-02-03,-200.75,3745.25,3544.5,5,Long
2020-02-04,-200.75,4986.5,4785.75,5,Long
2020-02-05,-200.75,5201.5,5000.75,5,Long
2020-02-06,-200.75,5630.25,5429.5,5,Long
2020-02-07,-200.75,5296.5,5095.75,5,Long
2020-02-09,-200.75,5077.75,4877.0,5,Long
2020-02-10,-200.75,5922.75,5722.0,5,Long
2020-02-11,-200.75,6002.75,5802.0,5,Long
2020-02-12,-200.75,6179.0,5978.25,5,Long
2020-02-13,-200.75,6345.25,6144.5,5,Long
2020-02-14,-200.75,6450.25,6249.5,5,Long
2020-02-16,-200.75,6616.5,6415.75,5,Long
2020-02-17,-200.75,6310.25,6109.5,5,Long
2020-02-18,-200.75,6617.75,6417.0,5,Long
2020-02-19,-200.75,7021.5,6820.75,5,Long
2020-02-20,-200.75,6160.25,5959.5,5,Long
2020-02-21,-200.75,5577.75,5377.0,5,Long
2020-02-23,-200.75,4845.25,4644.5,5,Long
2020-02-24,4645.75,0.0,4645.75,0,
2020-02-25,4645.75,0.0,4645.75,0,
2020-02-26,4645.75,0.0,4645.75,0,
2020-02-27,4645.75,0.0,4645.75,0,
2020-02-28,4645.75,0.0,4645.75,0,
2020-03-01,4645.75,0.0,4645.75,0,
2020-03-02,4645.75,0.0,4645.75,0,
2020-03-03,4645.75,0.0,4645.75,0,
2020-03-04,4645.75,0.0,4645.75,0,
2020-03-05,4645.75,0.0,4645.75,0,
2020-03-06,4645.75,0.0,4645.75,0,
2020-03-08,4645.75,0.0,4645.75,0,
2020-03-09,4645.75,0.0,4645.75,0,
2020-03-10,4645.75,0.0,4645.75,0,
2020-03-11,4645.75,0.0,4645.75,0,
2020-03-12,4645.75,0.0,4645.75,0,
2020-03-13,4645.75,0.0,4645.75,0,
2020-03-15,4645.75,0.0,4645.75,0,
2020-03-16,4645.75,0.0,4645.75,0,
2020-03-17,4645.75,0.0,4645.75,0,
2020-03-18,4645.75,0.0,4645.75,0,
2020-03-19,4645.75,0.0,4645.75,0,
2020-03-20,4645.75,0.0,4645.75,0,
2020-03-22,4645.75,0.0,4645.75,0,
2020-03-23,4645.75,0.0,4645.75,0,
2020-03-24,4645.75,0.0,4645.75,0,
2020-03-25,4645.75,0.0,4645.75,0,
2020-03-26,4645.75,0.0,4645.75,0,
2020-03-27,4645.75,0.0,4645.75,0,
2020-03-29,4645.75,0.0,4645.75,0,
2020-03-30,4645.75,0.0,4645.75,0,
2020-03-31,4645.75,0.0,4645.75,0,
2020-04-01,4645.75,0.0,4645.75,0,
2020-04-02,4645.75,0.0,4645.75,0,
2020-04-03,4645.75,0.0,4645.75,0,
2020-04-05,4645.75,0.0,4645.75,0,
2020-04-06,4645.75,0.0,4645.75,0,
2020-04-07,4645.75,0.0,4645.75,0,
2020-04-08,4645.75,0.0,4645.75,0,
2020-04-09,4645.75,13.25,4659.0,1,Long
2020-04-12,4645.75,-108.25,4537.5,1,Long
2020-04-13,4537.5,0.0,4537.5,0,
2020-04-14,4537.5,0.0,4537.5,0,
2020-04-15,4537.5,0.0,4537.5,0,
2020-04-16,4537.5,0.0,4537.5,0,
2020-04-17,4537.5,0.0,4537.5,0,
2020-04-19,4537.5,0.0,4537.5,0,
2020-04-20,4537.5,0.0,4537.5,0,
2020-04-21,4537.5,0.0,4537.5,0,
2020-04-22,4537.5,0.0,4537.5,0,
2020-04-23,4537.5,0.0,4537.5,0,
2020-04-24,4537.5,0.0,4537.5,1,Long
2020-04-26,4537.5,-13.75,4523.75,1,Long
2020-04-27,4537.5,56.25,4593.75,1,Long
2020-04-28,4537.5,0.5,4538.0,1,Long
2020-04-29,4537.5,323.75,4861.25,1,Long
2020-04-30,4537.5,71.0,4608.5,1,Long
2020-05-01,4537.5,-65.25,4472.25,1,Long
2020-05-03,4537.5,-184.25,4353.25,1,Long
2020-05-04,4537.5,56.5,4594.0,1,Long
2020-05-05,4537.5,189.0,4726.5,1,Long
2020-05-06,4537.5,197.5,4735.0,1,Long
2020-05-07,4537.5,374.0,4911.5,1,Long
2020-05-08,4537.5,454.0,4991.5,2,Long
2020-05-10,4537.5,518.5,5056.0,2,Long
2020-05-11,4537.5,566.0,5103.5,2,Long
2020-05-12,4537.5,40.0,4577.5,2,Long
2020-05-13,4537.5,34.5,4572.0,2,Long
2020-05-14,4537.5,227.0,4764.5,2,Long
2020-05-15,4537.5,251.0,4788.5,2,Long
2020-05-17,4537.5,341.0,4878.5,2,Long
2020-05-18,4537.5,700.0,5237.5,2,Long
2020-05-19,4537.5,648.0,5185.5,2,Long
2020-05-20,4537.5,983.0,5520.5,2,Long
2020-05-21,4537.5,817.0,5354.5,2,Long
2020-05-22,4537.5,857.0,5394.5,3,Long
2020-05-24,4537.5,956.75,5494.25,3,Long
2020-05-25,4537.5,1119.5,5657.0,3,Long
2020-05-26,4537.5,772.25,5309.75,3,Long
2020-05-27,4537.5,915.5,5453.0,3,Long
2020-05-28,4537.5,843.5,5381.0,3,Long
2020-05-29,4537.5,1355.75,5893.25,3,Long
2020-05-31,4537.5,1110.5,5648.0,3,Long
2020-06-01,4537.5,1286.0,5823.5,3,Long
2020-06-02,4537.5,1613.75,6151.25,3,Long
2020-06-03,4537.5,1679.0,6216.5,3,Long
2020-06-04,4537.5,1445.0,5982.5,3,Long
2020-06-05,4537.5,2011.25,6548.75,4,Long
2020-06-07,4537.5,2264.25,6801.75,4,Long
2020-06-08,4537.5,2301.25,6838.75,4,Long
2020-06-09,4537.5,2738.25,7275.75,4,Long
2020-06-10,4537.5,2955.25,7492.75,4,Long
2020-06-11,4537.5,1496.25,6033.75,4,Long
2020-06-12,4537.5,1350.25,5887.75,4,Long
2020-06-14,4537.5,934.25,5471.75,4,Long
2020-06-15,4537.5,2242.25,6779.75,4,Long
2020-06-16,4537.5,2717.25,7254.75,4,Long
2020-06-17,4537.5,2579.25,7116.75,4,Long
2020-06-18,4537.5,2864.25,7401.75,4,Long
2020-06-19,4537.5,2479.25,7016.75,5,Long
2020-06-21,4537.5,2381.75,6919.25,5,Long
2020-06-22,4537.5,3605.5,8143.0,5,Long
2020-06-23,4537.5,3760.5,8298.0,5,Long
2020-06-24,4537.5,2724.25,7261.75,5,Long
2020-06-25,4537.5,3388.0,7925.5,5,Long
2020-06-26,4537.5,2076.75,6614.25,5,Long
2020-06-28,4537.5,1991.75,6529.25,5,Long
2020-06-29,4537.5,2820.5,7358.0,5,Long
2020-06-30,4537.5,3030.5,7568.0,5,Long
2020-07-01,4537.5,4204.25,8741.75,5,Long
2020-07-02,4537.5,4606.75,9144.25,5,Long
2020-07-03,4537.5,4483.0,9020.5,5,Long
2020-07-05,4537.5,4821.75,9359.25,5,Long
2020-07-06,4537.5,6056.75,10594.25,5,Long
2020-07-07,4537.5,5608.0,10145.5,5,Long
2020-07-08,4537.5,6269.25,10806.75,5,Long
2020-07-09,4537.5,6628.0,11165.5,5,Long
2020-07-10,4537.5,7070.5,11608.0,5,Long
2020-07-12,4537.5,7240.5,11778.0,5,Long
2020-07-13,4537.5,6084.25,10621.75,5,Long
2020-07-14,4537.5,6444.25,10981.75,5,Long
2020-07-15,4537.5,6093.0,10630.5,5,Long
2020-07-16,4537.5,5690.5,10228.0,5,Long
2020-07-17,4537.5,5974.25,10511.75,5,Long
2020-07-19,4537.5,6094.25,10631.75,5,Long
2020-07-20,4537.5,7605.5,12143.0,5,Long
2020-07-21,4537.5,7223.0,11760.5,5,Long
2020-07-22,4537.5,6971.75,11509.25,5,Long
2020-07-23,4537.5,5770.5,10308.0,5,Long
2020-07-24,4537.5,5171.75,9709.25,5,Long
2020-07-26,4537.5,5051.75,9589.25,5,Long
2020-07-27,4537.5,6349.25,10886.75,5,Long
2020-07-28,4537.5,5676.75,10214.25,5,Long
2020-07-29,4537.5,6254.25,10791.75,5,Long
2020-07-30,4537.5,7384.25,11921.75,5,Long
2020-07-31,4537.5,7434.25,11971.75,5,Long
2020-08-02,4537.5,7415.5,11953.0,5,Long
2020-08-03,4537.5,8039.25,12576.75,5,Long
2020-08-04,4537.5,8225.5,12763.0,5,Long
2020-08-05,4537.5,8303.0,12840.5,5,Long
2020-08-06,4537.5,9119.25,13656.75,5,Long
2020-08-07,4537.5,8511.75,13049.25,5,Long
2020-08-09,4537.5,8393.0,12930.5,5,Long
2020-08-10,4537.5,8226.75,12764.25,5,Long
2020-08-11,4537.5,7470.5,12008.0,5,Long
2020-08-12,4537.5,8515.5,13053.0,5,Long
2020-08-13,4537.5,8883.0,13420.5,5,Long
2020-08-14,4537.5,8585.5,13123.0,5,Long
2020-08-16,4537.5,8664.25,13201.75,5,Long
2020-08-17,4537.5,9381.75,13919.25,5,Long
2020-08-18,4537.5,9939.25,14476.75,5,Long
2020-08-19,4537.5,9309.25,13846.75,5,Long
2020-08-20,4537.5,10354.25,14891.75,5,Long
2020-08-21,4537.5,10671.75,15209.25,5,Long
2020-08-23,4537.5,10774.25,15311.75,5,Long
2020-08-24,4537.5,11090.5,15628.0,5,Long
2020-08-25,4537.5,11590.5,16128.0,5,Long
2020-08-26,4537.5,12695.5,17233.0,5,Long
2020-08-27,4537.5,12703.0,17240.5,5,Long
2020-08-28,4537.5,12875.5,17413.0,5,Long
2020-08-30,4537.5,13095.5,17633.0,5,Long
2020-08-31,4537.5,13483.0,18020.5,5,Long
2020-09-01,4537.5,14659.25,19196.75,5,Long
2020-09-02,4537.5,14965.5,19503.0,5,Long
2020-09-03,4537.5,10861.75,15399.25,5,Long
2020-09-04,15400.5,0.0,15400.5,0,
2020-09-06,15400.5,0.0,15400.5,0,
2020-09-07,15400.5,0.0,15400.5,0,
2020-09-08,15400.5,0.0,15400.5,0,
2020-09-09,15400.5,0.0,15400.5,0,
2020-09-10,15400.5,0.0,15400.5,0,
2020-09-11,15400.5,0.0,15400.5,0,
2020-09-13,15400.5,0.0,15400.5,0,
2020-09-14,15400.5,0.0,15400.5,0,
2020-09-15,15400.5,0.0,15400.5,0,
2020-09-16,15400.5,0.0,15400.5,0,
2020-09-17,15400.5,0.0,15400.5,0,
2020-09-18,15400.5,0.0,15400.5,0,
2020-09-20,15400.5,0.0,15400.5,0,
2020-09-21,15400.5,0.0,15400.5,0,
2020-09-22,15400.5,0.0,15400.5,0,
2020-09-23,15400.5,0.0,15400.5,0,
2020-09-24,15400.5,0.0,15400.5,0,
2020-09-25,15400.5,0.0,15400.5,0,
2020-09-27,15400.5,0.0,15400.5,0,
2020-09-28,15400.5,0.0,15400.5,0,
2020-09-29,15400.5,0.0,15400.5,0,
2020-09-30,15400.5,0.0,15400.5,0,
2020-10-01,15400.5,0.0,15400.5,0,
2020-10-02,15400.5,0.0,15400.5,0,
2020-10-04,15400.5,0.0,15400.5,0,
2020-10-05,15400.5,0.0,15400.5,0,
2020-10-06,15400.5,0.0,15400.5,0,
2020-10-07,15400.5,0.0,15400.5,0,
2020-10-08,15400.5,0.0,15400.5,0,
2020-10-09,15400.5,0.0,15400.5,0,
2020-10-11,15400.5,0.0,15400.5,0,
2020-10-12,15400.5,365.75,15766.25,1,Long
2020-10-13,15400.5,371.25,15771.75,1,Long
2020-10-14,15400.5,217.5,15618.0,1,Long
2020-10-15,15400.5,172.0,15572.5,1,Long
2020-10-16,15400.5,49.75,15450.25,1,Long
2020-10-18,15400.5,129.5,15530.0,1,Long
2020-10-19,15400.5,-28.5,15372.0,1,Long
2020-10-20,15372.25,0.0,15372.25,0,
2020-10-21,15372.25,0.0,15372.25,0,
2020-10-22,15372.25,0.0,15372.25,0,
2020-10-23,15372.25,0.0,15372.25,0,
2020-10-25,15372.25,0.0,15372.25,0,
2020-10-26,15372.25,0.0,15372.25,0,
2020-10-27,15372.25,0.0,15372.25,0,
2020-10-28,15372.25,0.0,15372.25,0,
2020-10-29,15372.25,0.0,15372.25,0,
2020-10-30,15372.25,0.0,15372.25,0,
2020-11-01,15372.25,0.0,15372.25,0,
2020-11-02,15372.25,0.0,15372.25,0,
2020-11-03,15372.25,0.0,15372.25,0,
2020-11-04,15372.25,0.0,15372.25,0,
2020-11-05,15372.25,272.25,15644.5,1,Long
2020-11-06,15372.25,300.25,15672.5,1,Long
2020-11-08,15372.25,438.0,15810.25,1,Long
2020-11-09,15372.25,59.75,15432.0,1,Long
2020-11-10,15372.25,-197.0,15175.25,1,Long
2020-11-11,15174.75,0.0,15174.75,0,
2020-11-12,15174.75,0.0,15174.75,0,
2020-11-13,15174.75,0.0,15174.75,0,
2020-11-15,15174.75,0.0,15174.75,0,
2020-11-16,15174.75,0.0,15174.75,0,
2020-11-17,15174.75,0.0,15174.75,0,
2020-11-18,15174.75,0.0,15174.75,0,
2020-11-19,15174.75,0.0,15174.75,0,
2020-11-20,15174.75,0.0,15174.75,1,Long
2020-11-22,15174.75,20.25,15195.0,1,Long
2020-11-23,15174.75,40.75,15215.5,1,Long
2020-11-24,15174.75,215.0,15389.75,1,Long
2020-11-25,15174.75,268.5,15443.25,1,Long
2020-11-26,15174.75,243.5,15418.25,1,Long
2020-11-27,15174.75,362.5,15537.25,1,Long
2020-11-29,15174.75,405.75,15580.5,1,Long
2020-11-30,15174.75,437.75,15612.5,1,Long
2020-12-01,15174.75,539.75,15714.5,1,Long
2020-12-02,15174.75,555.0,15729.75,1,Long
2020-12-03,15174.75,574.0,15748.75,1,Long
2020-12-04,15174.75,599.0,15773.75,2,Long
2020-12-06,15174.75,668.0,15842.75,2,Long
2020-12-07,15174.75,729.0,15903.75,2,Long
2020-12-08,15174.75,873.0,16047.75,2,Long
2020-12-09,15174.75,305.0,15479.75,2,Long
2020-12-10,15174.75,385.0,15559.75,2,Long
2020-12-11,15174.75,311.5,15486.25,2,Long
2020-12-13,15174.75,411.5,15586.25,2,Long
2020-12-14,15174.75,537.5,15712.25,2,Long
2020-12-15,15174.75,768.5,15943.25,2,Long
2020-12-16,15174.75,944.0,16118.75,2,Long
2020-12-17,15174.75,1078.5,16253.25,2,Long
2020-12-18,15174.75,1075.0,16249.75,3,Long
2020-12-20,15174.75,1077.25,16252.0,3,Long
2020-12-21,15174.75,934.0,16108.75,3,Long
2020-12-22,15174.75,991.0,16165.75,3,Long
2020-12-23,15174.75,794.5,15969.25,3,Long
2020-12-24,15174.75,942.25,16117.0,3,Long
2020-12-27,15174.75,1033.0,16207.75,3,Long
2020-12-28,15174.75,1385.5,16560.25,3,Long
2020-12-29,15174.75,1363.75,16538.5,3,Long
2020-12-30,15174.75,1375.75,16550.5,3,Long
2020-12-31,15174.75,1483.0,16657.75,3,Long
2021-01-03,15174.75,1421.5,16596.25,3,Long
2021-01-04,15174.75,854.5,16029.25,3,Long
2021-01-05,15174.75,1214.5,16389.25,3,Long
2021-01-06,15174.75,848.5,16023.25,3,Long
2021-01-07,15174.75,1645.0,16819.75,3,Long
2021-01-08,15174.75,2203.75,17378.5,3,Long
2021-01-10,15174.75,2077.75,17252.5,3,Long
2021-01-11,15174.75,1596.25,16771.0,3,Long
2021-01-12,15174.75,1520.5,16695.25,3,Long
2021-01-13,15174.75,1740.25,16915.0,3,Long
2021-01-14,15174.75,1581.25,16756.0,3,Long
2021-01-15,15174.75,1121.5,16296.25,4,Long
2021-01-17,15174.75,1050.5,16225.25,4,Long
2021-01-18,15174.75,1392.5,16567.25,4,Long
2021-01-19,15174.75,2265.5,17440.25,4,Long
2021-01-20,15174.75,3324.5,18499.25,4,Long
2021-01-21,15174.75,3601.5,18776.25,4,Long
2021-01-22,15174.75,3473.5,18648.25,4,Long
2021-01-24,15174.75,3658.5,18833.25,4,Long
2021-01-25,15174.75,3914.5,19089.25,4,Long
2021-01-26,15174.75,4303.5,19478.25,4,Long
2021-01-27,15174.75,1978.5,17153.25,4,Long
2021-01-28,15174.75,2613.5,17788.25,4,Long
2021-01-29,15174.75,1549.5,16724.25,4,Long
2021-01-31,16638.25,0.0,16638.25,0,
2021-02-01,16638.25,0.0,16638.25,0,
2021-02-02,16638.25,0.0,16638.25,0,
2021-02-03,16638.25,0.0,16638.25,0,
2021-02-04,16638.25,0.0,16638.25,0,
2021-02-05,16638.25,50.75,16689.0,1,Long
2021-02-07,16638.25,85.75,16724.0,1,Long
2021-02-08,16638.25,128.5,16766.75,1,Long
2021-02-09,16638.25,134.5,16772.75,1,Long
2021-02-10,16638.25,100.75,16739.0,1,Long
2021-02-11,16638.25,178.0,16816.25,1,Long
2021-02-12,16638.25,268.75,16907.0,1,Long
2021-02-14,16638.25,272.75,16911.0,1,Long
2021-02-15,16638.25,305.0,16943.25,1,Long
2021-02-16,16638.25,178.5,16816.75,1,Long
2021-02-17,16638.25,150.0,16788.25,1,Long
2021-02-18,16638.25,62.5,16700.75,1,Long
2021-02-19,16638.25,19.0,16657.25,2,Long
2021-02-21,16638.25,59.0,16697.25,2,Long
2021-02-22,16638.25,-668.0,15970.25,2,Long
2021-02-23,15970.25,0.0,15970.25,0,
2021-02-24,15970.25,0.0,15970.25,0,
2021-02-25,15970.25,0.0,15970.25,0,
2021-02-26,15970.25,0.0,15970.25,0,
2021-02-28,15970.25,0.0,15970.25,0,
2021-03-01,15970.25,0.0,15970.25,0,
2021-03-02,15970.25,0.0,15970.25,0,
2021-03-03,15970.25,0.0,15970.25,0,
2021-03-04,15970.25,0.0,15970.25,0,
2021-03-05,15970.25,0.0,15970.25,0,
2021-03-07,15970.25,0.0,15970.25,0,
2021-03-08,15970.25,0.0,15970.25,0,
2021-03-09,15970.25,0.0,15970.25,0,
2021-03-10,15970.25,0.0,15970.25,0,
2021-03-11,15970.25,0.0,15970.25,0,
2021-03-12,15970.25,0.0,15970.25,0,
2021-03-14,15970.25,0.0,15970.25,0,
2021-03-15,15970.25,0.0,15970.25,0,
2021-03-16,15970.25,0.0,15970.25,0,
2021-03-17,15970.25,0.0,15970.25,0,
2021-03-18,15970.25,0.0,15970.25,0,
2021-03-19,15970.25,0.0,15970.25,0,
2021-03-21,15970.25,0.0,15970.25,0,
2021-03-22,15970.25,0.0,15970.25,0,
2021-03-23,15970.25,0.0,15970.25,0,
2021-03-24,15970.25,0.0,15970.25,0,
2021-03-25,15970.25,0.0,15970.25,0,
2021-03-26,15970.25,0.0,15970.25,0,
2021-03-28,15970.25,0.0,15970.25,0,
2021-03-29,15970.25,0.0,15970.25,0,
2021-03-30,15970.25,0.0,15970.25,0,
2021-03-31,15970.25,0.0,15970.25,0,
2021-04-01,15970.25,0.0,15970.25,0,
2021-04-02,15970.25,0.0,15970.25,0,
2021-04-04,15970.25,0.0,15970.25,0,
2021-04-05,15970.25,0.0,15970.25,0,
2021-04-06,15970.25,-21.5,15948.75,1,Long
2021-04-07,15970.25,22.25,15992.5,1,Long
2021-04-08,15970.25,186.25,16156.5,1,Long
2021-04-09,15970.25,193.0,16163.25,1,Long
2021-04-11,15970.25,163.0,16133.25,1,Long
2021-04-12,15970.25,201.5,16171.75,1,Long
2021-04-13,15970.25,351.0,16321.25,1,Long
2021-04-14,15970.25,195.75,16166.0,1,Long
2021-04-15,15970.25,394.5,16364.75,1,Long
2021-04-16,15970.25,402.5,16372.75,2,Long
2021-04-18,15970.25,340.0,16310.25,2,Long
2021-04-19,15970.25,192.5,16162.75,2,Long
2021-04-20,15970.25,-150.0,15820.25,2,Long
2021-04-21,15970.25,124.5,16094.75,2,Long
2021-04-22,15970.25,-123.0,15847.25,2,Long
2021-04-23,15970.25,169.0,16139.25,2,Long
2021-04-25,15970.25,178.5,16148.75,2,Long
2021-04-26,15970.25,413.0,16383.25,2,Long
2021-04-27,15970.25,284.0,16254.25,2,Long
2021-04-28,15970.25,302.0,16272.25,2,Long
2021-04-29,15970.25,189.5,16159.75,2,Long
2021-04-30,15970.25,98.0,16068.25,3,Long
2021-05-02,15970.25,140.75,16111.0,3,Long
2021-05-03,15970.25,-191.5,15778.75,3,Long
2021-05-04,15970.25,-925.0,15045.25,3,Long
2021-05-05,15970.25,-997.75,14972.5,3,Long
2021-05-06,15970.25,-663.25,15307.0,3,Long
2021-05-07,15970.25,-346.75,15623.5,3,Long
2021-05-09,15970.25,-283.0,15687.25,3,Long
2021-05-10,15970.25,-1495.75,14474.5,3,Long
2021-05-11,14472.25,0.0,14472.25,0,
2021-05-12,14472.25,0.0,14472.25,0,
2021-05-13,14472.25,0.0,14472.25,0,
2021-05-14,14472.25,0.0,14472.25,0,
2021-05-16,14472.25,0.0,14472.25,0,
2021-05-17,14472.25,0.0,14472.25,0,
2021-05-18,14472.25,0.0,14472.25,0,
2021-05-19,14472.25,0.0,14472.25,0,
2021-05-20,14472.25,0.0,14472.25,0,
2021-05-21,14472.25,0.0,14472.25,0,
2021-05-23,14472.25,0.0,14472.25,0,
2021-05-24,14472.25,0.0,14472.25,0,
2021-05-25,14472.25,0.0,14472.25,0,
2021-05-26,14472.25,0.0,14472.25,0,
2021-05-27,14472.25,0.0,14472.25,0,
2021-05-28,14472.25,0.0,14472.25,0,
2021-05-30,14472.25,0.0,14472.25,0,
2021-05-31,14472.25,0.0,14472.25,0,
2021-06-01,14472.25,0.0,14472.25,0,
2021-06-02,14472.25,0.0,14472.25,0,
2021-06-03,14472.25,0.0,14472.25,0,
2021-06-04,14472.25,0.0,14472.25,0,
2021-06-06,14472.25,-4.5,14467.75,1,Long
2021-06-07,14472.25,50.75,14523.0,1,Long
2021-06-08,14472.25,45.0,14517.25,1,Long
2021-06-09,14472.25,43.0,14515.25,1,Long
2021-06-10,14472.25,195.75,14668.0,1,Long
2021-06-11,14472.25,212.75,14685.0,1,Long
2021-06-13,14472.25,237.5,14709.75,1,Long
2021-06-14,14472.25,334.25,14806.5,1,Long
2021-06-15,14472.25,259.25,14731.5,1,Long
2021-06-16,14472.25,114.5,14586.75,1,Long
2021-06-17,14472.25,403.5,14875.75,1,Long
2021-06-18,14472.25,201.5,14673.75,2,Long
2021-06-20,14472.25,242.0,14714.25,2,Long
2021-06-21,14472.25,435.5,14907.75,2,Long
2021-06-22,14472.25,710.5,15182.75,2,Long
2021-06-23,14472.25,738.0,15210.25,2,Long
2021-06-24,14472.25,858.5,15330.75,2,Long
2021-06-25,14472.25,828.0,15300.25,2,Long
2021-06-27,14472.25,875.0,15347.25,2,Long
2021-06-28,14472.25,1149.0,15621.25,2,Long
2021-06-29,14472.25,1341.0,15813.25,2,Long
2021-06-30,14472.25,1286.5,15758.75,2,Long
2021-07-01,14472.25,1231.5,15703.75,2,Long
2021-07-02,14472.25,1551.5,16023.75,3,Long
2021-07-04,14472.25,1593.5,16065.75,3,Long
2021-07-05,14472.25,1592.75,16065.0,3,Long
2021-07-06,14472.25,1744.25,16216.5,3,Long
2021-07-07,14472.25,1880.75,16353.0,3,Long
2021-07-08,14472.25,1526.0,15998.25,3,Long
2021-07-09,14472.25,1893.5,16365.75,3,Long
2021-07-11,14472.25,1938.5,16410.75,3,Long
2021-07-12,14472.25,2089.25,16561.5,3,Long
2021-07-13,14472.25,1985.0,16457.25,3,Long
2021-07-14,14472.25,2162.75,16635.0,3,Long
2021-07-15,14472.25,1721.0,16193.25,3,Long
2021-07-16,14472.25,1471.0,15943.25,4,Long
2021-07-18,14472.25,1361.0,15833.25,4,Long
2021-07-19,14472.25,1148.0,15620.25,4,Long
2021-07-20,14472.25,1762.0,16234.25,4,Long
2021-07-21,14472.25,2132.0,16604.25,4,Long
2021-07-22,14472.25,2673.0,17145.25,4,Long
2021-07-23,14472.25,3160.0,17632.25,4,Long
2021-07-25,14472.25,3274.0,17746.25,4,Long
2021-07-26,14472.25,3236.0,17708.25,4,Long
2021-07-27,14472.25,2471.0,16943.25,4,Long
2021-07-28,14472.25,2743.0,17215.25,4,Long
2021-07-29,14472.25,2270.0,16742.25,4,Long
2021-07-30,14472.25,2680.0,17152.25,5,Long
2021-08-01,14472.25,2852.5,17324.75,5,Long
2021-08-02,14472.25,2650.0,17122.25,5,Long
2021-08-03,14472.25,2998.75,17471.0,5,Long
2021-08-04,14472.25,3262.5,17734.75,5,Long
2021-08-05,14472.25,3646.25,18118.5,5,Long
2021-08-06,14472.25,3307.5,17779.75,5,Long
2021-08-08,14472.25,2953.75,17426.0,5,Long
2021-08-09,14472.25,3437.5,17909.75,5,Long
2021-08-10,14472.25,3021.25,17493.5,5,Long
2021-08-11,14472.25,2822.5,17294.75,5,Long
2021-08-12,14472.25,3182.5,17654.75,5,Long
2021-08-13,14472.25,3462.5,17934.75,5,Long
2021-08-15,14472.25,3413.75,17886.0,5,Long
2021-08-16,14472.25,3496.25,17968.5,5,Long
2021-08-17,14472.25,2628.75,17101.0,5,Long
2021-08-18,14472.25,2071.25,16543.5,5,Long
2021-08-19,14472.25,2427.5,16899.75,5,Long
2021-08-20,14472.25,3318.75,17791.0,5,Long
2021-08-22,14472.25,3380.0,17852.25,5,Long
2021-08-23,14472.25,4491.25,18963.5,5,Long
2021-08-24,14472.25,4632.5,19104.75,5,Long
2021-08-25,14472.25,4652.5,19124.75,5,Long
2021-08-26,14472.25,4235.0,18707.25,5,Long
2021-08-27,14472.25,4983.75,19456.0,5,Long
2021-08-29,14472.25,5106.25,19578.5,5,Long
2021-08-30,14472.25,5835.0,20307.25,5,Long
2021-08-31,14472.25,5828.75,20301.0,5,Long
2021-09-01,14472.25,5936.25,20408.5,5,Long
2021-09-02,14472.25,5828.75,20301.0,5,Long
2021-09-03,14472.25,6111.25,20583.5,5,Long
2021-09-05,14472.25,6095.0,20567.25,5,Long
2021-09-06,14472.25,6290.0,20762.25,5,Long
2021-09-07,14472.25,6153.75,20626.0,5,Long
2021-09-08,14472.25,5843.75,20316.0,5,Long
2021-09-09,14472.25,5663.75,20136.0,5,Long
2021-09-10,14472.25,5032.5,19504.75,5,Long
2021-09-12,14472.25,5266.25,19738.5,5,Long
2021-09-13,14472.25,5070.0,19542.25,5,Long
2021-09-14,14472.25,4878.75,19351.0,5,Long
2021-09-15,14472.25,5352.5,19824.75,5,Long
2021-09-16,14472.25,5251.25,19723.5,5,Long
2021-09-17,14472.25,4268.75,18741.0,5,Long
2021-09-19,18741.0,0.0,18741.0,0,
2021-09-20,18741.0,0.0,18741.0,0,
2021-09-21,18741.0,0.0,18741.0,0,
2021-09-22,18741.0,0.0,18741.0,0,
2021-09-23,18741.0,0.0,18741.0,0,
2021-09-24,18741.0,0.0,18741.0,0,
2021-09-26,18741.0,0.0,18741.0,0,
2021-09-27,18741.0,0.0,18741.0,0,
2021-09-28,18741.0,0.0,18741.0,0,
2021-09-29,18741.0,0.0,18741.0,0,
2021-09-30,18741.0,0.0,18741.0,0,
2021-10-01,18741.0,0.0,18741.0,0,
2021-10-03,18741.0,0.0,18741.0,0,
2021-10-04,18741.0,0.0,18741.0,0,
2021-10-05,18741.0,0.0,18741.0,0,
2021-10-06,18741.0,0.0,18741.0,0,
2021-10-07,18741.0,0.0,18741.0,0,
2021-10-08,18741.0,0.0,18741.0,0,
2021-10-10,18741.0,0.0,18741.0,0,
2021-10-11,18741.0,0.0,18741.0,0,
2021-10-12,18741.0,0.0,18741.0,0,
2021-10-13,18741.0,0.0,18741.0,0,
2021-10-14,18741.0,0.0,18741.0,0,
2021-10-15,18741.0,0.0,18741.0,0,
2021-10-17,18741.0,0.0,18741.0,0,
2021-10-18,18741.0,0.0,18741.0,0,
2021-10-19,18741.0,117.0,18858.0,1,Long
2021-10-20,18741.0,43.0,18784.0,1,Long
2021-10-21,18741.0,99.5,18840.5,1,Long
2021-10-22,18741.0,31.75,18772.75,1,Long
2021-10-24,18741.0,14.0,18755.0,1,Long
2021-10-25,18741.0,246.75,18987.75,1,Long
2021-10-26,18741.0,267.75,19008.75,1,Long
2021-10-27,18741.0,334.0,19075.0,1,Long
2021-10-28,18741.0,380.0,19121.0,1,Long
2021-10-29,18741.0,644.5,19385.5,2,Long
2021-10-31,18741.0,667.5,19408.5,2,Long
2021-11-01,18741.0,659.0,19400.0,2,Long
2021-11-02,18741.0,792.0,19533.0,2,Long
2021-11-03,18741.0,1278.5,20019.5,2,Long
2021-11-04,18741.0,1587.0,20328.0,2,Long
2021-11-05,18741.0,1593.0,20334.0,2,Long
2021-11-07,18741.0,1531.0,20272.0,2,Long
2021-11-08,18741.0,1528.0,20269.0,2,Long
2021-11-09,18741.0,1278.0,20019.0,2,Long
2021-11-10,18741.0,887.5,19628.5,2,Long
2021-11-11,18741.0,1035.5,19776.5,2,Long
2021-11-12,18741.0,1330.5,20071.5,3,Long
2021-11-14,18741.0,1404.0,20145.0,3,Long
2021-11-15,18741.0,1294.5,20035.5,3,Long
2021-11-16,18741.0,1641.0,20382.0,3,Long
2021-11-17,18741.0,1713.75,20454.75,3,Long
2021-11-18,18741.0,2213.25,20954.25,3,Long
2021-11-19,18741.0,2490.0,21231.0,3,Long
2021-11-21,18741.0,2491.5,21232.5,3,Long
2021-11-22,18741.0,1915.5,20656.5,3,Long
2021-11-23,18741.0,1584.75,20325.75,3,Long
2021-11-24,18741.0,1798.5,20539.5,3,Long
2021-11-25,18741.0,1838.25,20579.25,3,Long
2021-11-26,18741.0,859.5,19600.5,3,Long
2021-11-28,19605.0,0.0,19605.0,0,
2021-11-29,19605.0,0.0,19605.0,0,
2021-11-30,19605.0,0.0,19605.0,0,
2021-12-01,19605.0,0.0,19605.0,0,
2021-12-02,19605.0,0.0,19605.0,0,
2021-12-03,19605.0,0.0,19605.0,0,
2021-12-05,19605.0,0.0,19605.0,0,
2021-12-06,19605.0,0.0,19605.0,0,
2021-12-07,19605.0,0.0,19605.0,0,
2021-12-08,19605.0,0.0,19605.0,0,
2021-12-09,19605.0,0.0,19605.0,0,
2021-12-10,19605.0,0.0,19605.0,0,
2021-12-12,19605.0,0.0,19605.0,0,
2021-12-13,19605.0,0.0,19605.0,0,
2021-12-14,19605.0,0.0,19605.0,0,
2021-12-15,19605.0,0.0,19605.0,0,
2021-12-16,19605.0,0.0,19605.0,0,
2021-12-17,19605.0,0.0,19605.0,0,
2021-12-19,19605.0,0.0,19605.0,0,
2021-12-20,19605.0,0.0,19605.0,0,
2021-12-21,19605.0,0.0,19605.0,0,
2021-12-22,19605.0,0.0,19605.0,0,
2021-12-23,19605.0,0.0,19605.0,0,
2021-12-26,19605.0,0.0,19605.0,0,
2021-12-27,19605.0,0.0,19605.0,0,
2021-12-28,19605.0,-15.75,19589.25,1,Long
2021-12-29,19605.0,-91.75,19513.25,1,Long
2021-12-30,19512.75,0.0,19512.75,0,
2021-12-31,19512.75,0.0,19512.75,0,
2022-01-02,19512.75,0.0,19512.75,0,
2022-01-03,19512.75,0.0,19512.75,0,
2022-01-04,19512.75,0.0,19512.75,0,
2022-01-05,19512.75,0.0,19512.75,0,
2022-01-06,19512.75,0.0,19512.75,0,
2022-01-07,19512.75,0.0,19512.75,0,
2022-01-09,19512.75,0.0,19512.75,0,
2022-01-10,19512.75,0.0,19512.75,0,
2022-01-11,19512.75,0.0,19512.75,0,
2022-01-12,19512.75,0.0,19512.75,0,
2022-01-13,19512.75,0.0,19512.75,0,
2022-01-14,19512.75,0.0,19512.75,0,
2022-01-16,19512.75,0.0,19512.75,0,
2022-01-17,19512.75,0.0,19512.75,0,
2022-01-18,19512.75,0.0,19512.75,0,
2022-01-19,19512.75,0.0,19512.75,0,
2022-01-20,19512.75,0.0,19512.75,0,
2022-01-21,19512.75,0.0,19512.75,0,
2022-01-23,19512.75,0.0,19512.75,0,
2022-01-24,19512.75,0.0,19512.75,0,
2022-01-25,19512.75,0.0,19512.75,0,
2022-01-26,19512.75,0.0,19512.75,0,
2022-01-27,19512.75,0.0,19512.75,0,
2022-01-28,19512.75,0.0,19512.75,0,
2022-01-30,19512.75,0.0,19512.75,0,
2022-01-31,19512.75,0.0,19512.75,0,
2022-02-01,19512.75,0.0,19512.75,0,
2022-02-02,19512.75,0.0,19512.75,0,
2022-02-03,19512.75,0.0,19512.75,0,
2022-02-04,19512.75,0.0,19512.75,0,
2022-02-06,19512.75,0.0,19512.75,0,
2022-02-07,19512.75,0.0,19512.75,0,
2022-02-08,19512.75,0.0,19512.75,0,
2022-02-09,19512.75,0.0,19512.75,0,
2022-02-10,19512.75,0.0,19512.75,0,
2022-02-11,19512.75,0.0,19512.75,0,
2022-02-13,19512.75,0.0,19512.75,0,
2022-02-14,19512.75,0.0,19512.75,0,
2022-02-15,19512.75,0.0,19512.75,0,
2022-02-16,19512.75,0.0,19512.75,0,
2022-02-17,19512.75,0.0,19512.75,0,
2022-02-18,19512.75,0.0,19512.75,0,
2022-02-20,19512.75,0.0,19512.75,0,
2022-02-21,19512.75,0.0,19512.75,0,
2022-02-22,19512.75,0.0,19512.75,0,
2022-02-23,19512.75,0.0,19512.75,0,
2022-02-24,19512.75,0.0,19512.75,0,
2022-02-25,19512.75,0.0,19512.75,0,
2022-02-27,19512.75,0.0,19512.75,0,
2022-02-28,19512.75,0.0,19512.75,0,
2022-03-01,19512.75,0.0,19512.75,0,
2022-03-02,19512.75,0.0,19512.75,0,
2022-03-03,19512.75,0.0,19512.75,0,
2022-03-04,19512.75,0.0,19512.75,0,
2022-03-06,19512.75,0.0,19512.75,0,
2022-03-07,19512.75,0.0,19512.75,0,
2022-03-08,19512.75,0.0,19512.75,0,
2022-03-09,19512.75,0.0,19512.75,0,
2022-03-10,19512.75,0.0,19512.75,0,
2022-03-11,19512.75,0.0,19512.75,0,
2022-03-13,19512.75,0.0,19512.75,0,
2022-03-14,19512.75,0.0,19512.75,0,
2022-03-15,19512.75,0.0,19512.75,0,
2022-03-16,19512.75,0.0,19512.75,0,
2022-03-17,19512.75,0.0,19512.75,0,
2022-03-18,19512.75,0.0,19512.75,0,
2022-03-20,19512.75,0.0,19512.75,0,
2022-03-21,19512.75,0.0,19512.75,0,
2022-03-22,19512.75,0.0,19512.75,0,
2022-03-23,19512.75,-192.0,19320.75,1,Long
2022-03-24,19321.25,0.0,19321.25,0,
2022-03-25,19321.25,0.0,19321.25,0,
2022-03-27,19321.25,0.0,19321.25,0,
2022-03-28,19321.25,0.0,19321.25,0,
2022-03-29,19321.25,0.0,19321.25,0,
2022-03-30,19321.25,0.0,19321.25,0,
2022-03-31,19321.25,0.0,19321.25,0,
2022-04-01,19321.25,75.25,19396.5,1,Long
2022-04-03,19321.25,40.75,19362.0,1,Long
2022-04-04,19321.25,374.0,19695.25,1,Long
2022-04-05,19321.25,56.75,19378.0,1,Long
2022-04-06,19321.25,-329.5,18991.75,1,Long
2022-04-07,18991.5,0.0,18991.5,0,
2022-04-08,18991.5,0.0,18991.5,0,
2022-04-10,18991.5,0.0,18991.5,0,
2022-04-11,18991.5,0.0,18991.5,0,
2022-04-12,18991.5,0.0,18991.5,0,
2022-04-13,18991.5,0.0,18991.5,0,
2022-04-14,18991.5,0.0,18991.5,0,
2022-04-17,18991.5,0.0,18991.5,0,
2022-04-18,18991.5,0.0,18991.5,0,
2022-04-19,18991.5,0.0,18991.5,0,
2022-04-20,18991.5,0.0,18991.5,0,
2022-04-21,18991.5,0.0,18991.5,0,
2022-04-22,18991.5,0.0,18991.5,0,
2022-04-24,18991.5,0.0,18991.5,0,
2022-04-25,18991.5,0.0,18991.5,0,
2022-04-26,18991.5,0.0,18991.5,0,
2022-04-27,18991.5,0.0,18991.5,0,
2022-04-28,18991.5,0.0,18991.5,0,
2022-04-29,18991.5,0.0,18991.5,0,
2022-05-01,18991.5,0.0,18991.5,0,
2022-05-02,18991.5,0.0,18991.5,0,
2022-05-03,18991.5,0.0,18991.5,0,
2022-05-04,18991.5,0.0,18991.5,0,
2022-05-05,18991.5,0.0,18991.5,0,
2022-05-06,18991.5,0.0,18991.5,0,
2022-05-08,18991.5,0.0,18991.5,0,
2022-05-09,18991.5,0.0,18991.5,0,
2022-05-10,18991.5,0.0,18991.5,0,
2022-05-11,18991.5,0.0,18991.5,0,
2022-05-12,18991.5,0.0,18991.5,0,
2022-05-13,18991.5,0.0,18991.5,0,
2022-05-15,18991.5,0.0,18991.5,0,
2022-05-16,18991.5,0.0,18991.5,0,
2022-05-17,18991.5,0.0,18991.5,0,
2022-05-18,18991.5,0.0,18991.5,0,
2022-05-19,18991.5,0.0,18991.5,0,
2022-05-20,18991.5,0.0,18991.5,0,
2022-05-22,18991.5,0.0,18991.5,0,
2022-05-23,18991.5,0.0,18991.5,0,
2022-05-24,18991.5,0.0,18991.5,0,
2022-05-25,18991.5,0.0,18991.5,0,
2022-05-26,18991.5,0.0,18991.5,0,
2022-05-27,18991.5,0.0,18991.5,0,
2022-05-29,18991.5,0.0,18991.5,0,
2022-05-30,18991.5,0.0,18991.5,0,
2022-05-31,18991.5,0.0,18991.5,0,
2022-06-01,18991.5,0.0,18991.5,0,
2022-06-02,18991.5,0.0,18991.5,0,
2022-06-03,18991.5,-371.5,18620.0,1,Long
2022-06-05,18618.0,0.0,18618.0,0,
2022-06-06,18618.0,0.0,18618.0,0,
2022-06-07,18618.0,0.0,18618.0,0,
2022-06-08,18618.0,0.0,18618.0,0,
2022-06-09,18618.0,0.0,18618.0,0,
2022-06-10,18618.0,0.0,18618.0,0,
2022-06-12,18618.0,0.0,18618.0,0,
2022-06-13,18618.0,0.0,18618.0,0,
2022-06-14,18618.0,0.0,18618.0,0,
2022-06-15,18618.0,0.0,18618.0,0,
2022-06-16,18618.0,0.0,18618.0,0,
2022-06-17,18618.0,0.0,18618.0,0,
2022-06-19,18618.0,0.0,18618.0,0,
2022-06-20,18618.0,0.0,18618.0,0,
2022-06-21,18618.0,0.0,18618.0,0,
2022-06-22,18618.0,0.0,18618.0,0,
2022-06-23,18618.0,0.0,18618.0,0,
2022-06-24,18618.0,0.0,18618.0,0,
2022-06-26,18618.0,0.0,18618.0,0,
2022-06-27,18618.0,0.0,18618.0,0,
2022-06-28,18618.0,0.0,18618.0,0,
2022-06-29,18618.0,0.0,18618.0,0,
2022-06-30,18618.0,0.0,18618.0,0,
2022-07-01,18618.0,0.0,18618.0,0,
2022-07-03,18618.0,0.0,18618.0,0,
2022-07-04,18618.0,0.0,18618.0,0,
2022-07-05,18618.0,0.0,18618.0,0,
2022-07-06,18618.0,0.0,18618.0,0,
2022-07-07,18618.0,0.0,18618.0,0,
2022-07-08,18618.0,0.0,18618.0,0,
2022-07-10,18618.0,0.0,18618.0,0,
2022-07-11,18618.0,0.0,18618.0,0,
2022-07-12,18618.0,0.0,18618.0,0,
2022-07-13,18618.0,0.0,18618.0,0,
2022-07-14,18618.0,0.0,18618.0,0,
2022-07-15,18618.0,0.0,18618.0,0,
2022-07-17,18618.0,0.0,18618.0,0,
2022-07-18,18618.0,0.0,18618.0,0,
2022-07-19,18618.0,0.0,18618.0,0,
2022-07-20,18618.0,0.0,18618.0,0,
2022-07-21,18618.0,112.25,18730.25,1,Long
2022-07-22,18618.0,-8.5,18609.5,1,Long
2022-07-24,18618.0,-32.5,18585.5,1,Long
2022-07-25,18618.0,-137.25,18480.75,1,Long
2022-07-26,18481.0,0.0,18481.0,0,
2022-07-27,18481.0,0.0,18481.0,0,
2022-07-28,18481.0,0.0,18481.0,0,
2022-07-29,18481.0,0.0,18481.0,0,
2022-07-31,18481.0,0.0,18481.0,0,
2022-08-01,18481.0,0.0,18481.0,0,
2022-08-02,18481.0,0.0,18481.0,0,
2022-08-03,18481.0,0.0,18481.0,0,
2022-08-04,18481.0,0.0,18481.0,0,
2022-08-05,18481.0,-5.75,18475.25,1,Long
2022-08-07,18481.0,-42.75,18438.25,1,Long
2022-08-08,18481.0,0.25,18481.25,1,Long
2022-08-09,18481.0,-167.75,18313.25,1,Long
2022-08-10,18481.0,178.5,18659.5,1,Long
2022-08-11,18481.0,115.25,18596.25,1,Long
2022-08-12,18481.0,360.0,18841.0,1,Long
2022-08-14,18481.0,319.75,18800.75,1,Long
2022-08-15,18481.0,460.75,18941.75,1,Long
2022-08-16,18481.0,431.5,18912.5,1,Long
2022-08-17,18481.0,235.0,18716.0,1,Long
2022-08-18,18481.0,306.75,18787.75,1,Long
2022-08-19,18481.0,12.25,18493.25,2,Long
2022-08-21,18481.0,-112.25,18368.75,2,Long
2022-08-22,18481.0,-575.75,17905.25,2,Long
2022-08-23,18481.0,-696.25,17784.75,2,Long
2022-08-24,18481.0,-618.25,17862.75,2,Long
2022-08-25,18481.0,-198.25,18282.75,2,Long
2022-08-26,18481.0,-1370.75,17110.25,2,Long
2022-08-28,16962.25,0.0,16962.25,0,
2022-08-29,16962.25,0.0,16962.25,0,
2022-08-30,16962.25,0.0,16962.25,0,
2022-08-31,16962.25,0.0,16962.25,0,
2022-09-01,16962.25,0.0,16962.25,0,
2022-09-02,16962.25,0.0,16962.25,0,
2022-09-04,16962.25,0.0,16962.25,0,
2022-09-05,16962.25,0.0,16962.25,0,
2022-09-06,16962.25,0.0,16962.25,0,
2022-09-07,16962.25,0.0,16962.25,0,
2022-09-08,16962.25,0.0,16962.25,0,
2022-09-09,16962.25,0.0,16962.25,0,
2022-09-11,16962.25,0.0,16962.25,0,
2022-09-12,16962.25,0.0,16962.25,0,
2022-09-13,16962.25,0.0,16962.25,0,
2022-09-14,16962.25,0.0,16962.25,0,
2022-09-15,16962.25,0.0,16962.25,0,
2022-09-16,16962.25,0.0,16962.25,0,
2022-09-18,16962.25,0.0,16962.25,0,
2022-09-19,16962.25,0.0,16962.25,0,
2022-09-20,16962.25,0.0,16962.25,0,
2022-09-21,16962.25,0.0,16962.25,0,
2022-09-22,16962.25,0.0,16962.25,0,
2022-09-23,16962.25,0.0,16962.25,0,
2022-09-25,16962.25,0.0,16962.25,0,
2022-09-26,16962.25,0.0,16962.25,0,
2022-09-27,16962.25,0.0,16962.25,0,
2022-09-28,16962.25,0.0,16962.25,0,
2022-09-29,16962.25,0.0,16962.25,0,
2022-09-30,16962.25,0.0,16962.25,0,
2022-10-02,16962.25,0.0,16962.25,0,
2022-10-03,16962.25,0.0,16962.25,0,
2022-10-04,16962.25,0.0,16962.25,0,
2022-10-05,16962.25,0.0,16962.25,0,
2022-10-06,16962.25,0.0,16962.25,0,
2022-10-07,16962.25,0.0,16962.25,0,
2022-10-09,16962.25,0.0,16962.25,0,
2022-10-10,16962.25,0.0,16962.25,0,
2022-10-11,16962.25,0.0,16962.25,0,
2022-10-12,16962.25,0.0,16962.25,0,
2022-10-13,16962.25,0.0,16962.25,0,
2022-10-14,16962.25,0.0,16962.25,0,
2022-10-16,16962.25,0.0,16962.25,0,
2022-10-17,16962.25,0.0,16962.25,0,
2022-10-18,16962.25,0.0,16962.25,0,
2022-10-19,16962.25,0.0,16962.25,0,
2022-10-20,16962.25,0.0,16962.25,0,
2022-10-21,16962.25,0.0,16962.25,0,
2022-10-23,16962.25,0.0,16962.25,0,
2022-10-24,16962.25,0.0,16962.25,0,
2022-10-25,16962.25,0.0,16962.25,0,
2022-10-26,16962.25,0.0,16962.25,0,
2022-10-27,16962.25,0.0,16962.25,0,
2022-10-28,16962.25,0.0,16962.25,0,
2022-10-30,16962.25,0.0,16962.25,0,
2022-10-31,16962.25,0.0,16962.25,0,
2022-11-01,16962.25,0.0,16962.25,0,
2022-11-02,16962.25,0.0,16962.25,0,
2022-11-03,16962.25,0.0,16962.25,0,
2022-11-04,16962.25,0.0,16962.25,0,
2022-11-06,16962.25,0.0,16962.25,0,
2022-11-07,16962.25,0.0,16962.25,0,
2022-11-08,16962.25,0.0,16962.25,0,
2022-11-09,16962.25,0.0,16962.25,0,
2022-11-10,16962.25,0.0,16962.25,0,
2022-11-11,16962.25,0.0,16962.25,0,
2022-11-13,16962.25,15.25,16977.5,1,Long
2022-11-14,16962.25,-29.0,16933.25,1,Long
2022-11-15,16962.25,102.75,17065.0,1,Long
2022-11-16,16962.25,-16.0,16946.25,1,Long
2022-11-17,16962.25,-76.25,16886.0,1,Long
2022-11-18,16962.25,-86.5,16875.75,1,Long
2022-11-20,16886.25,0.0,16886.25,0,
2022-11-21,16886.25,0.0,16886.25,0,
2022-11-22,16886.25,0.0,16886.25,0,
2022-11-23,16886.25,0.0,16886.25,0,
2022-11-24,16886.25,0.0,16886.25,0,
2022-11-25,16886.25,0.0,16886.25,0,
2022-11-27,16886.25,0.0,16886.25,0,
2022-11-28,16886.25,0.0,16886.25,0,
2022-11-29,16886.25,0.0,16886.25,0,
2022-11-30,16886.25,0.0,16886.25,0,
2022-12-01,16886.25,0.0,16886.25,0,
2022-12-02,16886.25,2.0,16888.25,1,Long
2022-12-04,16886.25,23.75,16910.0,1,Long
2022-12-05,16886.25,-158.5,16727.75,1,Long
2022-12-06,16886.25,-399.5,16486.75,1,Long
2022-12-07,16487.25,0.0,16487.25,0,
2022-12-08,16487.25,0.0,16487.25,0,
2022-12-09,16487.25,0.0,16487.25,0,
2022-12-11,16487.25,0.0,16487.25,0,
2022-12-12,16487.25,0.0,16487.25,0,
2022-12-13,16487.25,0.0,16487.25,0,
2022-12-14,16487.25,0.0,16487.25,0,
2022-12-15,16487.25,0.0,16487.25,0,
2022-12-16,16487.25,0.0,16487.25,0,
2022-12-18,16487.25,0.0,16487.25,0,
2022-12-19,16487.25,0.0,16487.25,0,
2022-12-20,16487.25,0.0,16487.25,0,
2022-12-21,16487.25,0.0,16487.25,0,
2022-12-22,16487.25,0.0,16487.25,0,
2022-12-23,16487.25,0.0,16487.25,0,
2022-12-26,16487.25,0.0,16487.25,0,
2022-12-27,16487.25,0.0,16487.25,0,
2022-12-28,16487.25,0.0,16487.25,0,
2022-12-29,16487.25,0.0,16487.25,0,
2022-12-30,16487.25,0.0,16487.25,0,
2023-01-02,16487.25,0.0,16487.25,0,
2023-01-03,16487.25,0.0,16487.25,0,
2023-01-04,16487.25,0.0,16487.25,0,
2023-01-05,16487.25,0.0,16487.25,0,
2023-01-06,16487.25,0.0,16487.25,0,
2023-01-08,16487.25,0.0,16487.25,0,
2023-01-09,16487.25,0.0,16487.25,0,
2023-01-10,16487.25,0.0,16487.25,0,
2023-01-11,16487.25,0.0,16487.25,0,
2023-01-12,16487.25,0.0,16487.25,0,
2023-01-13,16487.25,0.0,16487.25,0,
2023-01-15,16487.25,0.0,16487.25,0,
2023-01-16,16487.25,0.0,16487.25,0,
2023-01-17,16487.25,0.0,16487.25,0,
2023-01-18,16487.25,0.0,16487.25,0,
2023-01-19,16487.25,0.0,16487.25,0,
2023-01-20,16487.25,0.0,16487.25,0,
2023-01-22,16487.25,-19.5,16467.75,1,Long
2023-01-23,16487.25,240.75,16728.0,1,Long
2023-01-24,16487.25,162.25,16649.5,1,Long
2023-01-25,16487.25,229.5,16716.75,1,Long
2023-01-26,16487.25,362.0,16849.25,1,Long
2023-01-27,16487.25,542.0,17029.25,1,Long
2023-01-29,16487.25,527.75,17015.0,1,Long
2023-01-30,16487.25,324.5,16811.75,1,Long
2023-01-31,16487.25,425.5,16912.75,1,Long
2023-02-01,16487.25,867.5,17354.75,1,Long
2023-02-02,16487.25,985.75,17473.0,1,Long
2023-02-03,16487.25,947.0,17434.25,2,Long
2023-02-05,16487.25,895.5,17382.75,2,Long
2023-02-06,16487.25,786.0,17273.25,2,Long
2023-02-07,16487.25,1214.0,17701.25,2,Long
2023-02-08,16487.25,836.0,17323.25,2,Long
2023-02-09,16487.25,583.5,17070.75,2,Long
2023-02-10,16487.25,387.0,16874.25,2,Long
2023-02-12,16487.25,327.5,16814.75,2,Long
2023-02-13,16487.25,791.5,17278.75,2,Long
2023-02-14,16487.25,929.5,17416.75,2,Long
2023-02-15,16487.25,1207.0,17694.25,2,Long
2023-02-16,16487.25,569.0,17056.25,2,Long
2023-02-17,16487.25,495.0,16982.25,3,Long
2023-02-19,16487.25,423.75,16911.0,3,Long
2023-02-20,16487.25,481.5,16968.75,3,Long
2023-02-21,16487.25,-312.0,16175.25,3,Long
2023-02-22,16487.25,-152.25,16335.0,3,Long
2023-02-23,16487.25,-133.5,16353.75,3,Long
2023-02-24,16487.25,-658.5,15828.75,3,Long
2023-02-26,16487.25,-603.0,15884.25,3,Long
2023-02-27,16487.25,-375.0,16112.25,3,Long
2023-02-28,16487.25,-588.75,15898.5,3,Long
2023-03-01,16487.25,-741.0,15746.25,3,Long
2023-03-02,16487.25,-543.75,15943.5,3,Long
2023-03-03,16487.25,354.5,16841.75,4,Long
2023-03-05,16487.25,217.5,16704.75,4,Long
2023-03-06,16487.25,370.5,16857.75,4,Long
2023-03-07,16487.25,-245.5,16241.75,4,Long
2023-03-08,16487.25,-51.5,16435.75,4,Long
2023-03-09,16487.25,-1008.5,15478.75,4,Long
2023-03-10,16487.25,-1410.5,15076.75,4,Long
2023-03-12,15570.75,0.0,15570.75,0,
2023-03-13,15570.75,0.0,15570.75,0,
2023-03-14,15570.75,0.0,15570.75,0,
2023-03-15,15570.75,0.0,15570.75,0,
2023-03-16,15570.75,0.0,15570.75,0,
2023-03-17,15570.75,-73.25,15497.5,1,Long
2023-03-19,15570.75,-17.0,15553.75,1,Long
2023-03-20,15570.75,-30.0,15540.75,1,Long
2023-03-21,15570.75,145.5,15716.25,1,Long
2023-03-22,15570.75,-4.25,15566.5,1,Long
2023-03-23,15570.75,142.0,15712.75,1,Long
2023-03-24,15570.75,201.25,15772.0,1,Long
2023-03-26,15570.75,224.75,15795.5,1,Long
2023-03-27,15570.75,99.5,15670.25,1,Long
2023-03-28,15570.75,36.5,15607.25,1,Long
2023-03-29,15570.75,220.0,15790.75,1,Long
2023-03-30,15570.75,373.0,15943.75,1,Long
2023-03-31,15570.75,628.25,16199.0,2,Long
2023-04-02,15570.75,491.25,16062.0,2,Long
2023-04-03,15570.75,505.25,16076.0,2,Long
2023-04-04,15570.75,492.75,16063.5,2,Long
2023-04-05,15570.75,125.25,15696.0,2,Long
2023-04-06,15570.75,330.25,15901.0,2,Long
2023-04-07,15570.75,372.75,15943.5,2,Long
2023-04-09,15570.75,323.75,15894.5,2,Long
2023-04-10,15570.75,355.75,15926.5,2,Long
2023-04-11,15570.75,190.25,15761.0,2,Long
2023-04-12,15570.75,-125.75,15445.0,2,Long
2023-04-13,15570.75,394.75,15965.5,2,Long
2023-04-14,15570.75,427.0,15997.75,3,Long
2023-04-16,15570.75,388.75,15959.5,3,Long
2023-04-17,15570.75,365.5,15936.25,3,Long
2023-04-18,15570.75,354.25,15925.0,3,Long
2023-04-19,15570.75,213.25,15784.0,3,Long
2023-04-20,15570.75,76.0,15646.75,3,Long
2023-04-21,15570.75,55.0,15625.75,3,Long
2023-04-23,15570.75,34.0,15604.75,3,Long
2023-04-24,15570.75,-22.25,15548.5,3,Long
2023-04-25,15570.75,-290.75,15280.0,3,Long
2023-04-26,15570.75,-299.75,15271.0,3,Long
2023-04-27,15570.75,460.0,16030.75,3,Long
2023-04-28,15570.75,846.5,16417.25,4,Long
2023-04-30,15570.75,767.5,16338.25,4,Long
2023-05-01,15570.75,681.5,16252.25,4,Long
2023-05-02,15570.75,267.5,15838.25,4,Long
2023-05-03,15570.75,-70.5,15500.25,4,Long
2023-05-04,15570.75,-86.5,15484.25,4,Long
2023-05-05,15570.75,780.5,16351.25,4,Long
2023-05-07,15570.75,755.5,16326.25,4,Long
2023-05-08,15570.75,886.5,16457.25,4,Long
2023-05-09,15570.75,640.5,16211.25,4,Long
2023-05-10,15570.75,1225.5,16796.25,4,Long
2023-05-11,15570.75,1357.5,16928.25,4,Long
2023-05-12,15570.75,1005.75,16576.5,5,Long
2023-05-14,15570.75,989.5,16560.25,5,Long
2023-05-15,15570.75,1449.5,17020.25,5,Long
2023-05-16,15570.75,1655.75,17226.5,5,Long
2023-05-17,15570.75,2374.5,17945.25,5,Long
2023-05-18,15570.75,3805.75,19376.5,5,Long
2023-05-19,15570.75,3365.75,18936.5,5,Long
2023-05-21,15570.75,3427.0,18997.75,5,Long
2023-05-22,15570.75,3874.5,19445.25,5,Long
2023-05-23,15570.75,2900.75,18471.5,5,Long
2023-05-24,15570.75,3394.5,18965.25,5,Long
2023-05-25,15570.75,3984.5,19555.25,5,Long
2023-05-26,15570.75,6014.5,21585.25,5,Long
2023-05-28,15570.75,6242.0,21812.75,5,Long
2023-05-29,15570.75,6089.5,21660.25,5,Long
2023-05-30,15570.75,6268.25,21839.0,5,Long
2023-05-31,15570.75,5709.5,21280.25,5,Long
2023-06-01,15570.75,6575.75,22146.5,5,Long
2023-06-02,15570.75,7092.0,22662.75,5,Long
2023-06-04,15570.75,6842.0,22412.75,5,Long
2023-06-05,15570.75,6988.25,22559.0,5,Long
2023-06-06,15570.75,7134.5,22705.25,5,Long
2023-06-07,15570.75,5810.75,21381.5,5,Long
2023-06-08,15570.75,6659.5,22230.25,5,Long
2023-06-09,15570.75,6974.5,22545.25,5,Long
2023-06-11,15570.75,7115.75,22686.5,5,Long
2023-06-12,15570.75,9173.25,24744.0,5,Long
2023-06-13,15570.75,9685.75,25256.5,5,Long
2023-06-14,15570.75,10230.75,25801.5,5,Long
2023-06-15,15570.75,10955.75,26526.5,5,Long
2023-06-16,15570.75,10665.75,26236.5,5,Long
2023-06-18,15570.75,10674.5,26245.25,5,Long
2023-06-19,15570.75,10402.0,25972.75,5,Long
2023-06-20,15570.75,10468.25,26039.0,5,Long
2023-06-21,15570.75,9363.25,24934.0,5,Long
2023-06-22,15570.75,10267.0,25837.75,5,Long
2023-06-23,15570.75,9435.75,25006.5,5,Long
2023-06-25,15570.75,9662.0,25232.75,5,Long
2023-06-26,15570.75,8623.25,24194.0,5,Long
2023-06-27,15570.75,9454.5,25025.25,5,Long
2023-06-28,15570.75,10019.5,25590.25,5,Long
2023-06-29,15570.75,9742.0,25312.75,5,Long
2023-06-30,15570.75,10745.75,26316.5,5,Long
2023-07-02,15570.75,10913.25,26484.0,5,Long
2023-07-03,15570.75,10847.0,26417.75,5,Long
2023-07-04,15570.75,10860.75,26431.5,5,Long
2023-07-05,15570.75,10948.25,26519.0,5,Long
2023-07-06,15570.75,10290.75,25861.5,5,Long
2023-07-07,15570.75,10117.0,25687.75,5,Long
2023-07-09,15570.75,10063.25,25634.0,5,Long
2023-07-10,15570.75,10120.75,25691.5,5,Long
2023-07-11,15570.75,10482.0,26052.75,5,Long
2023-07-12,15570.75,11518.25,27089.0,5,Long
2023-07-13,15570.75,12720.75,28291.5,5,Long
2023-07-14,15570.75,12620.75,28191.5,5,Long
2023-07-16,15570.75,12493.25,28064.0,5,Long
2023-07-17,15570.75,13249.5,28820.25,5,Long
2023-07-18,15570.75,13964.5,29535.25,5,Long
2023-07-19,15570.75,13443.25,29014.0,5,Long
2023-07-20,15570.75,12058.25,27629.0,5,Long
2023-07-21,15570.75,11933.25,27504.0,5,Long
2023-07-23,15570.75,11904.5,27475.25,5,Long
2023-07-24,15570.75,11995.75,27566.5,5,Long
2023-07-25,15570.75,12347.0,27917.75,5,Long
2023-07-26,15570.75,12424.5,27995.25,5,Long
2023-07-27,15570.75,12090.75,27661.5,5,Long
2023-07-28,15570.75,13385.75,28956.5,5,Long
2023-07-30,15570.75,13594.5,29165.25,5,Long
2023-07-31,15570.75,13459.5,29030.25,5,Long
2023-08-01,15570.75,12923.25,28494.0,5,Long
2023-08-02,15570.75,11618.25,27189.0,5,Long
2023-08-03,15570.75,11564.5,27135.25,5,Long
2023-08-04,15570.75,10983.25,26554.0,5,Long
2023-08-06,26577.75,0.0,26577.75,0,
2023-08-07,26577.75,0.0,26577.75,0,
2023-08-08,26577.75,0.0,26577.75,0,
2023-08-09,26577.75,0.0,26577.75,0,
2023-08-10,26577.75,0.0,26577.75,0,
2023-08-11,26577.75,0.0,26577.75,0,
2023-08-13,26577.75,0.0,26577.75,0,
2023-08-14,26577.75,0.0,26577.75,0,
2023-08-15,26577.75,0.0,26577.75,0,
2023-08-16,26577.75,0.0,26577.75,0,
2023-08-17,26577.75,0.0,26577.75,0,
2023-08-18,26577.75,0.0,26577.75,0,
2023-08-20,26577.75,0.0,26577.75,0,
2023-08-21,26577.75,0.0,26577.75,0,
2023-08-22,26577.75,0.0,26577.75,0,
2023-08-23,26577.75,0.0,26577.75,0,
2023-08-24,26577.75,0.0,26577.75,0,
2023-08-25,26577.75,0.0,26577.75,0,
2023-08-27,26577.75,0.0,26577.75,0,
2023-08-28,26577.75,0.0,26577.75,0,
2023-08-29,26577.75,0.0,26577.75,0,
2023-08-30,26577.75,68.25,26646.0,1,Long
2023-08-31,26577.75,101.75,26679.5,1,Long
2023-09-01,26577.75,77.75,26655.5,1,Long
2023-09-03,26577.75,82.0,26659.75,1,Long
2023-09-04,26577.75,91.5,26669.25,1,Long
2023-09-05,26577.75,87.25,26665.0,1,Long
2023-09-06,26577.75,-43.5,26534.25,1,Long
2023-09-07,26577.75,-154.0,26423.75,1,Long
2023-09-08,26424.0,0.0,26424.0,0,
2023-09-10,26424.0,0.0,26424.0,0,
2023-09-11,26424.0,0.0,26424.0,0,
2023-09-12,26424.0,0.0,26424.0,0,
2023-09-13,26424.0,0.0,26424.0,0,
2023-09-14,26424.0,0.0,26424.0,0,
2023-09-15,26424.0,0.0,26424.0,0,
2023-09-17,26424.0,0.0,26424.0,0,
2023-09-18,26424.0,0.0,26424.0,0,
2023-09-19,26424.0,0.0,26424.0,0,
2023-09-20,26424.0,0.0,26424.0,0,
2023-09-21,26424.0,0.0,26424.0,0,
2023-09-22,26424.0,0.0,26424.0,0,
2023-09-24,26424.0,0.0,26424.0,0,
2023-09-25,26424.0,0.0,26424.0,0,
2023-09-26,26424.0,0.0,26424.0,0,
2023-09-27,26424.0,0.0,26424.0,0,
2023-09-28,26424.0,0.0,26424.0,0,
2023-09-29,26424.0,0.0,26424.0,0,
2023-10-01,26424.0,0.0,26424.0,0,
2023-10-02,26424.0,0.0,26424.0,0,
2023-10-03,26424.0,0.0,26424.0,0,
2023-10-04,26424.0,0.0,26424.0,0,
2023-10-05,26424.0,0.0,26424.0,0,
2023-10-06,26424.0,0.0,26424.0,0,
2023-10-08,26424.0,0.0,26424.0,0,
2023-10-09,26424.0,0.0,26424.0,0,
2023-10-10,26424.0,0.0,26424.0,0,
2023-10-11,26424.0,0.0,26424.0,0,
2023-10-12,26424.0,-84.75,26339.25,1,Long
2023-10-13,26424.0,-308.0,26116.0,1,Long
2023-10-15,26129.0,0.0,26129.0,0,
2023-10-16,26129.0,0.0,26129.0,0,
2023-10-17,26129.0,0.0,26129.0,0,
2023-10-18,26129.0,0.0,26129.0,0,
2023-10-19,26129.0,0.0,26129.0,0,
2023-10-20,26129.0,0.0,26129.0,0,
2023-10-22,26129.0,0.0,26129.0,0,
2023-10-23,26129.0,0.0,26129.0,0,
2023-10-24,26129.0,0.0,26129.0,0,
2023-10-25,26129.0,0.0,26129.0,0,
2023-10-26,26129.0,0.0,26129.0,0,
2023-10-27,26129.0,0.0,26129.0,0,
2023-10-29,26129.0,0.0,26129.0,0,
2023-10-30,26129.0,0.0,26129.0,0,
2023-10-31,26129.0,0.0,26129.0,0,
2023-11-01,26129.0,0.0,26129.0,0,
2023-11-02,26129.0,0.0,26129.0,0,
2023-11-03,26129.0,0.0,26129.0,0,
2023-11-05,26129.0,-11.25,26117.75,1,Long
2023-11-06,26129.0,21.75,26150.75,1,Long
2023-11-07,26129.0,181.25,26310.25,1,Long
2023-11-08,26129.0,171.0,26300.0,1,Long
2023-11-09,26129.0,45.75,26174.75,1,Long
2023-11-10,26129.0,394.25,26523.25,1,Long
2023-11-12,26129.0,373.25,26502.25,1,Long
2023-11-13,26129.0,371.5,26500.5,1,Long
2023-11-14,26129.0,717.75,26846.75,1,Long
2023-11-15,26129.0,678.0,26807.0,1,Long
2023-11-16,26129.0,698.75,26827.75,1,Long
2023-11-17,26129.0,687.75,26816.75,2,Long
2023-11-19,26129.0,667.25,26796.25,2,Long
2023-11-20,26129.0,1141.25,27270.25,2,Long
2023-11-21,26129.0,848.25,26977.25,2,Long
2023-11-22,26129.0,1031.25,27160.25,2,Long
2023-11-23,26129.0,1068.75,27197.75,2,Long
2023-11-24,26129.0,961.25,27090.25,2,Long
2023-11-26,26129.0,912.25,27041.25,2,Long
2023-11-27,26129.0,959.25,27088.25,2,Long
2023-11-28,26129.0,1046.25,27175.25,2,Long
2023-11-29,26129.0,1033.75,27162.75,2,Long
2023-11-30,26129.0,868.75,26997.75,2,Long
2023-12-01,26129.0,1014.5,27143.5,3,Long
2023-12-03,26129.0,897.5,27026.5,3,Long
2023-12-04,26129.0,470.0,26599.0,3,Long
2023-12-05,26129.0,705.5,26834.5,3,Long
2023-12-06,26129.0,371.0,26500.0,3,Long
2023-12-07,26129.0,981.5,27110.5,3,Long
2023-12-08,26129.0,1199.0,27328.0,3,Long
2023-12-10,26129.0,1235.0,27364.0,3,Long
2023-12-11,26129.0,2285.75,28414.75,3,Long
2023-12-12,26129.0,2750.0,28879.0,3,Long
2023-12-13,26129.0,3369.5,29498.5,3,Long
2023-12-14,26129.0,3203.0,29332.0,3,Long
2023-12-15,26129.0,3350.5,29479.5,4,Long
2023-12-17,26129.0,3381.5,29510.5,4,Long
2023-12-18,26129.0,3783.5,29912.5,4,Long
2023-12-19,26129.0,4197.5,30326.5,4,Long
2023-12-20,26129.0,3333.5,29462.5,4,Long
2023-12-21,26129.0,3854.5,29983.5,4,Long
2023-12-22,26129.0,3936.5,30065.5,4,Long
2023-12-25,26129.0,4102.5,30231.5,4,Long
2023-12-26,26129.0,4444.5,30573.5,4,Long
2023-12-27,26129.0,4573.5,30702.5,4,Long
2023-12-28,26129.0,4489.5,30618.5,4,Long
2023-12-29,26129.0,4089.0,30218.0,5,Long
2024-01-01,26129.0,4217.75,30346.75,5,Long
2024-01-02,26129.0,2691.5,28820.5,5,Long
2024-01-03,26129.0,1816.5,27945.5,5,Long
2024-01-04,27945.5,0.0,27945.5,0,
2024-01-05,27945.5,0.0,27945.5,0,
2024-01-07,27945.5,0.0,27945.5,0,
2024-01-08,27945.5,0.0,27945.5,0,
2024-01-09,27945.5,0.0,27945.5,0,
2024-01-10,27945.5,0.0,27945.5,0,
2024-01-11,27945.5,0.0,27945.5,0,
2024-01-12,27945.5,0.0,27945.5,0,
2024-01-14,27945.5,0.0,27945.5,0,
2024-01-15,27945.5,0.0,27945.5,0,
2024-01-16,27945.5,0.0,27945.5,0,
2024-01-17,27945.5,-125.5,27820.0,1,Long
2024-01-18,27820.0,0.0,27820.0,0,
2024-01-19,27820.0,0.0,27820.0,0,
2024-01-21,27820.0,0.0,27820.0,0,
2024-01-22,27820.0,0.0,27820.0,0,
2024-01-23,27820.0,0.0,27820.0,0,
2024-01-24,27820.0,0.0,27820.0,0,
2024-01-25,27820.0,0.0,27820.0,0,
2024-01-26,27820.0,-26.75,27793.25,1,Long
2024-01-28,27820.0,-51.75,27768.25,1,Long
2024-01-29,27820.0,190.5,28010.5,1,Long
2024-01-30,27820.0,-83.25,27736.75,1,Long
2024-01-31,27820.0,-249.0,27571.0,1,Long
2024-02-01,27820.0,62.0,27882.0,1,Long
2024-02-02,27820.0,154.5,27974.5,1,Long
2024-02-04,27820.0,176.0,27996.0,1,Long
2024-02-05,27820.0,164.75,27984.75,1,Long
2024-02-06,27820.0,120.5,27940.5,1,Long
2024-02-07,27820.0,311.0,28131.0,1,Long
2024-02-08,27820.0,335.75,28155.75,1,Long
2024-02-09,27820.0,509.0,28329.0,2,Long
2024-02-11,27820.0,503.5,28323.5,2,Long
2024-02-12,27820.0,308.0,28128.0,2,Long
2024-02-13,27820.0,-186.0,27634.0,2,Long
2024-02-14,27820.0,191.0,28011.0,2,Long
2024-02-15,27820.0,338.5,28158.5,2,Long
2024-02-16,27820.0,-124.0,27696.0,2,Long
2024-02-18,27820.0,-11.5,27808.5,2,Long
2024-02-19,27820.0,-70.0,27750.0,2,Long
2024-02-20,27820.0,-430.0,27390.0,2,Long
2024-02-21,27820.0,-158.5,27661.5,2,Long
2024-02-22,27820.0,516.5,28336.5,2,Long
2024-02-23,27820.0,309.75,28129.75,3,Long
2024-02-25,27820.0,374.25,28194.25,3,Long
2024-02-26,27820.0,315.75,28135.75,3,Long
2024-02-27,27820.0,441.75,28261.75,3,Long
2024-02-28,27820.0,36.0,27856.0,3,Long
2024-02-29,27820.0,605.25,28425.25,3,Long
2024-03-01,27820.0,1391.25,29211.25,3,Long
2024-03-03,27820.0,1457.25,29277.25,3,Long
2024-03-04,27820.0,1096.5,28916.5,3,Long
2024-03-05,27820.0,314.25,28134.25,3,Long
2024-03-06,27820.0,482.25,28302.25,3,Long
2024-03-07,27820.0,1225.5,29045.5,3,Long
2024-03-08,27820.0,579.25,28399.25,4,Long
2024-03-10,27820.0,529.25,28349.25,4,Long
2024-03-11,27820.0,1534.25,29354.25,4,Long
2024-03-12,27820.0,2272.25,30092.25,4,Long
2024-03-13,27820.0,1850.25,29670.25,4,Long
2024-03-14,27820.0,1312.25,29132.25,4,Long
2024-03-15,27820.0,612.25,28432.25,4,Long
2024-03-17,27820.0,674.25,28494.25,4,Long
2024-03-18,27820.0,1124.25,28944.25,4,Long
2024-03-19,27820.0,1432.25,29252.25,4,Long
2024-03-20,27820.0,2673.25,30493.25,4,Long
2024-03-21,27820.0,2714.25,30534.25,4,Long
2024-03-22,27820.0,2591.25,30411.25,5,Long
2024-03-24,27820.0,2701.25,30521.25,5,Long
2024-03-25,27820.0,2473.75,30293.75,5,Long
2024-03-26,27820.0,2217.5,30037.5,5,Long
2024-03-27,27820.0,2172.5,29992.5,5,Long
2024-03-28,27820.0,2097.5,29917.5,5,Long
2024-03-31,27820.0,2813.75,30633.75,5,Long
2024-04-01,27820.0,2122.5,29942.5,5,Long
2024-04-02,27820.0,1413.75,29233.75,5,Long
2024-04-03,27820.0,2000.0,29820.0,5,Long
2024-04-04,27820.0,228.75,28048.75,5,Long
2024-04-05,27820.0,1323.75,29143.75,5,Long
2024-04-07,27820.0,1366.25,29186.25,5,Long
2024-04-08,27820.0,1280.0,29100.0,5,Long
2024-04-09,27820.0,1611.25,29431.25,5,Long
2024-04-10,27820.0,563.75,28383.75,5,Long
2024-04-11,27820.0,2222.5,30042.5,5,Long
2024-04-12,27820.0,628.75,28448.75,5,Long
2024-04-14,27820.0,960.0,28780.0,5,Long
2024-04-15,27820.0,-876.25,26943.75,5,Long
2024-04-16,26950.0,0.0,26950.0,0,
2024-04-17,26950.0,0.0,26950.0,0,
2024-04-18,26950.0,0.0,26950.0,0,
2024-04-19,26950.0,0.0,26950.0,0,
2024-04-21,26950.0,0.0,26950.0,0,
2024-04-22,26950.0,0.0,26950.0,0,
2024-04-23,26950.0,0.0,26950.0,0,
2024-04-24,26950.0,0.0,26950.0,0,
2024-04-25,26950.0,0.0,26950.0,0,
2024-04-26,26950.0,0.0,26950.0,0,
2024-04-28,26950.0,0.0,26950.0,0,
2024-04-29,26950.0,0.0,26950.0,0,
2024-04-30,26950.0,0.0,26950.0,0,
2024-05-01,26950.0,0.0,26950.0,0,
2024-05-02,26950.0,0.0,26950.0,0,
2024-05-03,26950.0,0.0,26950.0,0,
2024-05-05,26950.0,0.0,26950.0,0,
2024-05-06,26950.0,0.0,26950.0,0,
2024-05-07,26950.0,20.5,26970.5,1,Long
2024-05-08,26950.0,-22.0,26928.0,1,Long
2024-05-09,26950.0,47.5,26997.5,1,Long
2024-05-10,26950.0,55.75,27005.75,1,Long
2024-05-12,26950.0,61.75,27011.75,1,Long
2024-05-13,26950.0,100.0,27050.0,1,Long
2024-05-14,26950.0,233.25,27183.25,1,Long
2024-05-15,26950.0,537.25,27487.25,1,Long
2024-05-16,26950.0,467.5,27417.5,1,Long
2024-05-17,26950.0,463.0,27413.0,2,Long
2024-05-19,26950.0,529.5,27479.5,2,Long
2024-05-20,26950.0,699.0,27649.0,2,Long
2024-05-21,26950.0,822.5,27772.5,2,Long
2024-05-22,26950.0,945.0,27895.0,2,Long
2024-05-23,26950.0,597.5,27547.5,2,Long
2024-05-24,26950.0,938.5,27888.5,2,Long
2024-05-26,26950.0,868.0,27818.0,2,Long
2024-05-27,26950.0,1011.5,27961.5,2,Long
2024-05-28,26950.0,1055.0,28005.0,2,Long
2024-05-29,26950.0,642.0,27592.0,2,Long
2024-05-30,26950.0,313.0,27263.0,2,Long
2024-05-31,26950.0,397.5,27347.5,3,Long
2024-06-02,26950.0,458.25,27408.25,3,Long
2024-06-03,26950.0,633.75,27583.75,3,Long
2024-06-04,26950.0,895.5,27845.5,3,Long
2024-06-05,26950.0,1956.0,28906.0,3,Long
2024-06-06,26950.0,1907.25,28857.25,3,Long
2024-06-07,26950.0,1775.25,28725.25,3,Long
2024-06-09,26950.0,1763.25,28713.25,3,Long
2024-06-10,26950.0,1936.5,28886.5,3,Long
2024-06-11,26950.0,2452.5,29402.5,3,Long
2024-06-12,26950.0,3483.0,30433.0,3,Long
2024-06-13,26950.0,3537.75,30487.75,3,Long
2024-06-14,26950.0,3811.0,30761.0,4,Long
2024-06-16,26950.0,3872.0,30822.0,4,Long
2024-06-17,26950.0,5846.0,32796.0,4,Long
2024-06-18,26950.0,5919.0,32869.0,4,Long
2024-06-19,26950.0,5970.0,32920.0,4,Long
2024-06-20,26950.0,5304.0,32254.0,4,Long
2024-06-21,26950.0,5062.0,32012.0,4,Long
2024-06-23,26950.0,5059.0,32009.0,4,Long
2024-06-24,26950.0,4113.0,31063.0,4,Long
2024-06-25,26950.0,4889.0,31839.0,4,Long
2024-06-26,26950.0,4701.0,31651.0,4,Long
2024-06-27,26950.0,5408.0,32358.0,4,Long
2024-06-28,26950.0,4859.0,31809.0,5,Long
2024-06-30,26950.0,4754.0,31704.0,5,Long
2024-07-01,26950.0,5119.0,32069.0,5,Long
2024-07-02,26950.0,6212.75,33162.75,5,Long
2024-07-03,26950.0,7035.25,33985.25,5,Long
2024-07-04,26950.0,6976.5,33926.5,5,Long
2024-07-05,26950.0,7975.25,34925.25,5,Long
2024-07-07,26950.0,7976.5,34926.5,5,Long
2024-07-08,26950.0,8715.25,35665.25,5,Long
2024-07-09,26950.0,8511.5,35461.5,5,Long
2024-07-10,26950.0,9430.25,36380.25,5,Long
2024-07-11,26950.0,7096.5,34046.5,5,Long
2024-07-12,26950.0,7722.75,34672.75,5,Long
2024-07-14,26950.0,7824.0,34774.0,5,Long
2024-07-15,26950.0,8182.75,35132.75,5,Long
2024-07-16,26950.0,7850.25,34800.25,5,Long
2024-07-17,26950.0,5316.5,32266.5,5,Long
2024-07-18,32261.5,0.0,32261.5,0,
2024-07-19,32261.5,0.0,32261.5,0,
2024-07-21,32261.5,0.0,32261.5,0,
2024-07-22,32261.5,0.0,32261.5,0,
2024-07-23,32261.5,0.0,32261.5,0,
2024-07-24,32261.5,0.0,32261.5,0,
2024-07-25,32261.5,0.0,32261.5,0,
2024-07-26,32261.5,0.0,32261.5,0,
2024-07-28,32261.5,0.0,32261.5,0,
2024-07-29,32261.5,0.0,32261.5,0,
2024-07-30,32261.5,0.0,32261.5,0,
2024-07-31,32261.5,0.0,32261.5,0,
2024-08-01,32261.5,0.0,32261.5,0,
2024-08-02,32261.5,0.0,32261.5,0,
2024-08-04,32261.5,0.0,32261.5,0,
2024-08-05,32261.5,0.0,32261.5,0,
2024-08-06,32261.5,0.0,32261.5,0,
2024-08-07,32261.5,0.0,32261.5,0,
2024-08-08,32261.5,0.0,32261.5,0,
2024-08-09,32261.5,0.0,32261.5,0,
2024-08-11,32261.5,0.0,32261.5,0,
2024-08-12,32261.5,0.0,32261.5,0,
2024-08-13,32261.5,0.0,32261.5,0,
2024-08-14,32261.5,-10.0,32251.5,1,Long
2024-08-15,32261.5,497.0,32758.5,1,Long
2024-08-16,32261.5,487.5,32749.0,1,Long
2024-08-18,32261.5,531.5,32793.0,1,Long
2024-08-19,32261.5,744.0,33005.5,1,Long
2024-08-20,32261.5,673.0,32934.5,1,Long
2024-08-21,32261.5,819.5,33081.0,1,Long
2024-08-22,32261.5,521.75,32783.25,1,Long
2024-08-23,32261.5,674.5,32936.0,2,Long
2024-08-25,32261.5,645.0,32906.5,2,Long
2024-08-26,32261.5,261.5,32523.0,2,Long
2024-08-27,32261.5,293.0,32554.5,2,Long
2024-08-28,32261.5,-495.5,31766.0,2,Long
2024-08-29,32261.5,-21.0,32240.5,2,Long
2024-08-30,32261.5,307.0,32568.5,2,Long
2024-09-01,32261.5,291.0,32552.5,2,Long
2024-09-02,32261.5,280.0,32541.5,2,Long
2024-09-03,32261.5,-966.0,31295.5,2,Long
2024-09-04,31296.5,0.0,31296.5,0,
2024-09-05,31296.5,0.0,31296.5,0,
2024-09-06,31296.5,0.0,31296.5,0,
2024-09-08,31296.5,0.0,31296.5,0,
2024-09-09,31296.5,0.0,31296.5,0,
2024-09-10,31296.5,0.0,31296.5,0,
2024-09-11,31296.5,0.0,31296.5,0,
2024-09-12,31296.5,0.0,31296.5,0,
2024-09-13,31296.5,0.0,31296.5,0,
2024-09-15,31296.5,40.25,31336.75,1,Long
2024-09-16,31296.5,174.75,31471.25,1,Long
2024-09-17,31296.5,207.25,31503.75,1,Long
2024-09-18,31296.5,265.25,31561.75,1,Long
2024-09-19,31296.5,551.0,31847.5,1,Long
2024-09-20,31296.5,516.25,31812.75,1,Long
2024-09-22,31296.5,564.0,31860.5,1,Long
2024-09-23,31296.5,570.25,31866.75,1,Long
2024-09-24,31296.5,681.5,31978.0,1,Long
2024-09-25,31296.5,779.5,32076.0,1,Long
2024-09-26,31296.5,845.75,32142.25,1,Long
2024-09-27,31296.5,674.5,31971.0,2,Long
2024-09-29,31296.5,832.5,32129.0,2,Long
2024-09-30,31296.5,782.5,32079.0,2,Long
2024-10-01,31296.5,152.5,31449.0,2,Long
2024-10-02,31296.5,397.0,31693.5,2,Long
2024-10-03,31296.5,253.5,31550.0,2,Long
2024-10-04,31296.5,694.0,31990.5,2,Long
2024-10-06,31296.5,748.5,32045.0,2,Long
2024-10-07,31296.5,253.5,31550.0,2,Long
2024-10-08,31296.5,833.5,32130.0,2,Long
2024-10-09,31296.5,1188.0,32484.5,2,Long
2024-10-10,31296.5,1190.5,32487.0,2,Long
2024-10-11,31296.5,1051.5,32348.0,3,Long
2024-10-13,31296.5,1095.75,32392.25,3,Long
2024-10-14,31296.5,1710.0,33006.5,3,Long
2024-10-15,31296.5,870.0,32166.5,3,Long
2024-10-16,31296.5,756.0,32052.5,3,Long
2024-10-17,31296.5,1029.75,32326.25,3,Long
2024-10-18,31296.5,1267.5,32564.0,3,Long
2024-10-20,31296.5,1355.25,32651.75,3,Long
2024-10-21,31296.5,1362.0,32658.5,3,Long
2024-10-22,31296.5,1403.25,32699.75,3,Long
2024-10-23,31296.5,684.75,31981.25,3,Long
2024-10-24,31296.5,957.75,32254.25,3,Long
2024-10-25,31296.5,1204.0,32500.5,4,Long
2024-10-27,31296.5,1689.0,32985.5,4,Long
2024-10-28,31296.5,1327.0,32623.5,4,Long
2024-10-29,31296.5,2287.0,33583.5,4,Long
2024-10-30,31296.5,1001.0,32297.5,4,Long
2024-10-31,31296.5,-409.0,30887.5,4,Long
2024-11-01,31296.5,-27.0,31269.5,4,Long
2024-11-03,31296.5,-165.0,31131.5,4,Long
2024-11-04,31296.5,-352.0,30944.5,4,Long
2024-11-05,31296.5,671.0,31967.5,4,Long
2024-11-06,31296.5,2859.0,34155.5,4,Long
2024-11-07,31296.5,4202.0,35498.5,4,Long
2024-11-08,31296.5,4211.5,35508.0,5,Long
2024-11-10,31296.5,4596.5,35893.0,5,Long
2024-11-11,31296.5,4156.5,35453.0,5,Long
2024-11-12,31296.5,3876.5,35173.0,5,Long
2024-11-13,31296.5,3906.5,35203.0,5,Long
2024-11-14,31296.5,2824.0,34120.5,5,Long
2024-11-15,31296.5,594.0,31890.5,5,Long
2024-11-17,31296.5,917.75,32214.25,5,Long
2024-11-18,31296.5,1187.75,32484.25,5,Long
2024-11-19,31296.5,1991.5,33288.0,5,Long
2024-11-20,31296.5,1839.0,33135.5,5,Long
2024-11-21,31296.5,1944.0,33240.5,5,Long
2024-11-22,31296.5,2467.75,33764.25,5,Long
2024-11-24,31296.5,2754.0,34050.5,5,Long
2024-11-25,31296.5,2246.5,33543.0,5,Long
2024-11-26,31296.5,3004.0,34300.5,5,Long
2024-11-27,31296.5,2191.5,33488.0,5,Long
2024-11-28,31296.5,2514.0,33810.5,5,Long
2024-11-29,31296.5,3032.75,34329.25,5,Long
2024-12-01,31296.5,2897.75,34194.25,5,Long
2024-12-02,31296.5,4144.0,35440.5,5,Long
2024-12-03,31296.5,4739.0,36035.5,5,Long
2024-12-04,31296.5,5626.5,36923.0,5,Long
2024-12-05,31296.5,5354.0,36650.5,5,Long
2024-12-06,31296.5,6245.25,37541.75,5,Long
2024-12-08,31296.5,6364.0,37660.5,5,Long
2024-12-09,31296.5,5402.75,36699.25,5,Long
2024-12-10,31296.5,5217.75,36514.25,5,Long
2024-12-11,31296.5,6866.5,38163.0,5,Long
2024-12-12,31296.5,6797.75,38094.25,5,Long
2024-12-13,31296.5,6877.75,38174.25,5,Long
2024-12-15,31296.5,7021.5,38318.0,5,Long
2024-12-16,31296.5,8570.25,39866.75,5,Long
2024-12-17,31296.5,9446.5,40743.0,5,Long
2024-12-18,31296.5,5430.25,36726.75,5,Long
2024-12-19,36733.0,0.0,36733.0,0,
2024-12-20,36733.0,0.0,36733.0,0,
2024-12-22,36733.0,0.0,36733.0,0,
2024-12-23,36733.0,0.0,36733.0,0,
2024-12-24,36733.0,0.0,36733.0,0,
2024-12-25,36733.0,0.0,36733.0,0,
2024-12-26,36733.0,0.0,36733.0,0,
2024-12-27,36733.0,0.0,36733.0,0,
2024-12-29,36733.0,0.0,36733.0,0,
2024-12-30,36733.0,0.0,36733.0,0,
2024-12-31,36733.0,0.0,36733.0,0,
2025-01-01,36733.0,0.0,36733.0,0,
2025-01-02,36733.0,0.0,36733.0,0,
2025-01-03,36733.0,0.0,36733.0,0,
2025-01-05,36733.0,0.0,36733.0,0,
2025-01-06,36733.0,0.0,36733.0,0,
2025-01-07,36733.0,0.0,36733.0,0,
2025-01-08,36733.0,0.0,36733.0,0,
2025-01-09,36733.0,0.0,36733.0,0,
2025-01-10,36733.0,0.0,36733.0,0,
2025-01-12,36733.0,0.0,36733.0,0,
2025-01-13,36733.0,0.0,36733.0,0,
2025-01-14,36733.0,0.0,36733.0,0,
2025-01-15,36733.0,0.0,36733.0,0,
2025-01-16,36733.0,0.0,36733.0,0,
2025-01-17,36733.0,0.0,36733.0,0,
2025-01-19,36733.0,0.0,36733.0,0,
2025-01-20,36733.0,0.0,36733.0,0,
2025-01-21,36733.0,0.0,36733.0,0,
2025-01-22,36733.0,0.0,36733.0,0,
2025-01-23,36733.0,45.25,36778.25,1,Long
2025-01-24,36733.0,-57.0,36676.0,1,Long
2025-01-26,36733.0,-299.5,36433.5,1,Long
2025-01-27,36433.25,0.0,36433.25,0,
2025-01-28,36433.25,0.0,36433.25,0,
2025-01-29,36433.25,0.0,36433.25,0,
2025-01-30,36433.25,0.0,36433.25,0,
2025-01-31,36433.25,0.0,36433.25,0,
2025-02-02,36433.25,0.0,36433.25,0,
2025-02-03,36433.25,0.0,36433.25,0,
2025-02-04,36433.25,0.0,36433.25,0,
2025-02-05,36433.25,0.0,36433.25,0,
2025-02-06,36433.25,0.0,36433.25,0,
2025-02-07,36433.25,0.0,36433.25,0,
2025-02-09,36433.25,0.0,36433.25,0,
2025-02-10,36433.25,0.0,36433.25,0,
2025-02-11,36433.25,0.0,36433.25,0,
2025-02-12,36433.25,0.0,36433.25,0,
2025-02-13,36433.25,0.0,36433.25,0,
2025-02-14,36433.25,0.0,36433.25,0,
2025-02-16,36433.25,0.0,36433.25,0,
2025-02-17,36433.25,0.0,36433.25,0,
2025-02-18,36433.25,0.0,36433.25,0,
2025-02-19,36433.25,0.0,36433.25,0,
2025-02-20,36433.25,0.0,36433.25,0,
2025-02-21,36433.25,0.0,36433.25,0,
2025-02-23,36433.25,0.0,36433.25,0,
2025-02-24,36433.25,0.0,36433.25,0,
2025-02-25,36433.25,0.0,36433.25,0,
2025-02-26,36433.25,0.0,36433.25,0,
2025-02-27,36433.25,0.0,36433.25,0,
2025-02-28,36433.25,0.0,36433.25,0,
2025-03-02,36433.25,0.0,36433.25,0,
2025-03-03,36433.25,0.0,36433.25,0,
2025-03-04,36433.25,0.0,36433.25,0,
2025-03-05,36433.25,0.0,36433.25,0,
2025-03-06,36433.25,0.0,36433.25,0,
2025-03-07,36433.25,0.0,36433.25,0,
2025-03-09,36433.25,0.0,36433.25,0,
2025-03-10,36433.25,0.0,36433.25,0,
2025-03-11,36433.25,0.0,36433.25,0,
2025-03-12,36433.25,0.0,36433.25,0,
2025-03-13,36433.25,0.0,36433.25,0,
2025-03-14,36433.25,0.0,36433.25,0,
2025-03-16,36433.25,0.0,36433.25,0,
2025-03-17,36433.25,0.0,36433.25,0,
2025-03-18,36433.25,0.0,36433.25,0,
2025-03-19,36433.25,0.0,36433.25,0,
2025-03-20,36433.25,0.0,36433.25,0,
2025-03-21,36433.25,0.0,36433.25,0,
2025-03-23,36433.25,0.0,36433.25,0,
2025-03-24,36433.25,0.0,36433.25,0,
2025-03-25,36433.25,0.0,36433.25,0,
2025-03-26,36433.25,0.0,36433.25,0,
2025-03-27,36433.25,0.0,36433.25,0,
2025-03-28,36433.25,0.0,36433.25,0,
2025-03-30,36433.25,0.0,36433.25,0,
2025-03-31,36433.25,0.0,36433.25,0,
2025-04-01,36433.25,0.0,36433.25,0,
2025-04-02,36433.25,0.0,36433.25,0,
2025-04-03,36433.25,0.0,36433.25,0,
2025-04-04,36433.25,0.0,36433.25,0,
2025-04-06,36433.25,0.0,36433.25,0,
2025-04-07,36433.25,0.0,36433.25,0,
2025-04-08,36433.25,0.0,36433.25,0,
2025-04-09,36433.25,0.0,36433.25,0,
2025-04-10,36433.25,-956.0,35477.25,1,Long
2025-04-11,35475.75,0.0,35475.75,0,
2025-04-13,35475.75,0.0,35475.75,0,
2025-04-14,35475.75,0.0,35475.75,0,
2025-04-15,35475.75,0.0,35475.75,0,
2025-04-16,35475.75,0.0,35475.75,0,
2025-04-17,35475.75,0.0,35475.75,0,
2025-04-20,35475.75,0.0,35475.75,0,
2025-04-21,35475.75,0.0,35475.75,0,
2025-04-22,35475.75,0.0,35475.75,0,
2025-04-23,35475.75,0.0,35475.75,0,
2025-04-24,35475.75,0.0,35475.75,0,
2025-04-25,35475.75,0.0,35475.75,0,
2025-04-27,35475.75,0.0,35475.75,0,
2025-04-28,35475.75,0.0,35475.75,0,
2025-04-29,35475.75,0.0,35475.75,0,
2025-04-30,35475.75,0.0,35475.75,0,
2025-05-01,35475.75,0.0,35475.75,0,
2025-05-02,35475.75,42.0,35517.75,1,Long
2025-05-04,35475.75,-73.25,35402.5,1,Long
2025-05-05,35475.75,-150.0,35325.75,1,Long
2025-05-06,35475.75,-91.0,35384.75,1,Long
2025-05-07,35475.75,-206.25,35269.5,1,Long
2025-05-08,35475.75,-19.25,35456.5,1,Long
2025-05-09,35475.75,-12.0,35463.75,1,Long
2025-05-11,35475.75,294.5,35770.25,1,Long
2025-05-12,35475.75,750.0,36225.75,1,Long
2025-05-13,35475.75,1133.75,36609.5,1,Long
2025-05-14,35475.75,1217.0,36692.75,1,Long
2025-05-15,35475.75,1256.25,36732.0,1,Long
2025-05-16,35475.75,1157.0,36632.75,2,Long
2025-05-18,35475.75,1111.5,36587.25,2,Long
2025-05-19,35475.75,1428.0,36903.75,2,Long
2025-05-20,35475.75,1212.0,36687.75,2,Long
2025-05-21,35475.75,643.0,36118.75,2,Long
2025-05-22,35475.75,706.0,36181.75,2,Long
2025-05-23,35475.75,255.0,35730.75,2,Long
2025-05-25,35475.75,726.0,36201.75,2,Long
2025-05-26,35475.75,820.5,36296.25,2,Long
2025-05-27,35475.75,1289.5,36765.25,2,Long
2025-05-28,35475.75,1880.5,37356.25,2,Long
2025-05-29,35475.75,982.5,36458.25,2,Long
2025-05-30,35475.75,1071.5,36547.25,3,Long
2025-06-01,35475.75,875.0,36350.75,3,Long
2025-06-02,35475.75,1448.75,36924.5,3,Long
2025-06-03,35475.75,2080.25,37556.0,3,Long
2025-06-04,35475.75,2188.25,37664.0,3,Long
2025-06-05,35475.75,1602.5,37078.25,3,Long
2025-06-06,35475.75,2393.75,37869.5,3,Long
2025-06-08,35475.75,2249.75,37725.5,3,Long
2025-06-09,35475.75,2460.5,37936.25,3,Long
2025-06-10,35475.75,2828.75,38304.5,3,Long
2025-06-11,35475.75,2480.0,37955.75,3,Long
2025-06-12,35475.75,2316.5,37792.25,3,Long
2025-06-13,35475.75,1944.75,37420.5,4,Long
2025-06-15,35475.75,2077.75,37553.5,4,Long
2025-06-16,35475.75,3391.75,38867.5,4,Long
2025-06-17,35475.75,2950.75,38426.5,4,Long
2025-06-18,35475.75,3123.75,38599.5,4,Long
2025-06-19,35475.75,2876.75,38352.5,4,Long
2025-06-20,35475.75,2824.75,38300.5,4,Long
2025-06-22,35475.75,2371.75,37847.5,4,Long
2025-06-23,35475.75,4273.75,39749.5,4,Long
2025-06-24,35475.75,5025.75,40501.5,4,Long
2025-06-25,35475.75,5188.75,40664.5,4,Long
2025-06-26,35475.75,6039.75,41515.5,4,Long
2025-06-27,35475.75,6323.5,41799.25,5,Long
2025-06-29,35475.75,6708.5,42184.25,5,Long
2025-06-30,35475.75,7029.75,42505.5,5,Long
2025-07-01,35475.75,6163.5,41639.25,5,Long
2025-07-02,35475.75,6864.75,42340.5,5,Long
2025-07-03,35475.75,7796.0,43271.75,5,Long
2025-07-04,35475.75,7144.75,42620.5,5,Long
2025-07-06,35475.75,7541.0,43016.75,5,Long
2025-07-07,35475.75,6992.25,42468.0,5,Long
2025-07-08,35475.75,7128.5,42604.25,5,Long
2025-07-09,35475.75,7797.25,43273.0,5,Long
2025-07-10,35475.75,7844.75,43320.5,5,Long
2025-07-11,35475.75,7308.5,42784.25,5,Long
2025-07-13,35475.75,6954.75,42430.5,5,Long
2025-07-14,35475.75,7679.75,43155.5,5,Long
2025-07-15,35475.75,7693.5,43169.25,5,Long
2025-07-16,35475.75,7824.75,43300.5,5,Long
2025-07-17,35475.75,9023.5,44499.25,5,Long
2025-07-18,35475.75,8766.0,44241.75,5,Long
2025-07-20,35475.75,8922.25,44398.0,5,Long
2025-07-21,35475.75,9354.75,44830.5,5,Long
2025-07-22,35475.75,8931.0,44406.75,5,Long
2025-07-23,35475.75,9627.25,45103.0,5,Long
2025-07-24,35475.75,9653.5,45129.25,5,Long
2025-07-25,35475.75,9858.5,45334.25,5,Long
2025-07-27,35475.75,10293.5,45769.25,5,Long
2025-07-28,35475.75,10264.75,45740.5,5,Long
2025-07-29,35475.75,9996.0,45471.75,5,Long
2025-07-30,35475.75,11247.25,46723.0,5,Long
2025-07-31,35475.75,9109.75,44585.5,5,Long
2025-08-01,35475.75,6967.25,42443.0,5,Long
2025-08-03,42350.5,0.0,42350.5,0,
2025-08-04,42350.5,0.0,42350.5,0,
2025-08-05,42350.5,0.0,42350.5,0,
2025-08-06,42350.5,0.0,42350.5,0,
2025-08-07,42350.5,0.0,42350.5,0,
2025-08-08,42350.5,0.0,42350.5,0,
2025-08-10,42350.5,-59.5,42291.0,1,Long
2025-08-11,42350.5,-130.5,42220.0,1,Long
2025-08-12,42219.25,0.0,42219.25,0,
2025-08-13,42219.25,0.0,42219.25,0,
2025-08-14,42219.25,0.0,42219.25,0,
2025-08-15,42219.25,0.0,42219.25,0,
2025-08-17,42219.25,0.0,42219.25,0,
2025-08-18,42219.25,0.0,42219.25,0,
2025-08-19,42219.25,0.0,42219.25,0,
2025-08-20,42219.25,0.0,42219.25,0,
2025-08-21,42219.25,0.0,42219.25,0,
2025-08-22,42219.25,0.0,42219.25,0,
2025-08-24,42219.25,0.0,42219.25,0,
2025-08-25,42219.25,0.0,42219.25,0,
2025-08-26,42219.25,0.0,42219.25,0,
2025-08-27,42219.25,0.0,42219.25,0,
2025-08-28,42219.25,0.0,42219.25,0,
2025-08-29,42219.25,0.0,42219.25,0,
2025-08-31,42219.25,0.0,42219.25,0,
2025-09-01,42219.25,0.0,42219.25,0,
2025-09-02,42219.25,0.0,42219.25,0,
2025-09-03,42219.25,0.0,42219.25,0,
2025-09-04,42219.25,0.0,42219.25,0,
2025-09-05,42219.25,7.25,42226.5,1,Long
2025-09-07,42219.25,112.0,42331.25,1,Long
2025-09-08,42219.25,141.5,42360.75,1,Long
2025-09-09,42219.25,220.0,42439.25,1,Long
2025-09-10,42219.25,235.0,42454.25,1,Long
2025-09-11,42219.25,353.5,42572.75,1,Long
2025-09-12,42219.25,448.75,42668.0,1,Long
2025-09-14,42219.25,445.25,42664.5,1,Long
2025-09-15,42219.25,639.25,42858.5,1,Long
2025-09-16,42219.25,877.25,43096.5,1,Long
2025-09-17,42219.25,918.25,43137.5,1,Long
2025-09-18,42219.25,1074.25,43293.5,1,Long
2025-09-19,42219.25,1212.75,43432.0,2,Long
2025-09-21,42219.25,1192.75,43412.0,2,Long
2025-09-22,42219.25,1485.25,43704.5,2,Long
2025-09-23,42219.25,1171.75,43391.0,2,Long
2025-09-24,42219.25,1001.75,43221.0,2,Long
2025-09-25,42219.25,723.75,42943.0,2,Long
2025-09-26,42219.25,945.25,43164.5,2,Long
2025-09-28,42219.25,1034.75,43254.0,2,Long
2025-09-29,42219.25,1138.25,43357.5,2,Long
2025-09-30,42219.25,1150.75,43370.0,2,Long
2025-10-01,42219.25,1535.25,43754.5,2,Long
2025-10-02,42219.25,1738.75,43958.0,2,Long
2025-10-03,42219.25,1416.0,43635.25,3,Long
2025-10-05,42219.25,1671.75,43891.0,3,Long
2025-10-06,42219.25,1897.5,44116.75,3,Long
2025-10-07,42219.25,1572.0,43791.25,3,Long
2025-10-08,42219.25,2608.5,44827.75,3,Long
2025-10-09,42219.25,2476.5,44695.75,3,Long
2025-10-10,42219.25,-963.75,41255.5,3,Long
2025-10-12,42136.75,0.0,42136.75,0,
2025-10-13,42136.75,0.0,42136.75,0,
2025-10-14,42136.75,0.0,42136.75,0,
2025-10-15,42136.75,0.0,42136.75,0,
2025-10-16,42136.75,0.0,42136.75,0,
2025-10-17,42136.75,0.0,42136.75,0,
2025-10-19,42136.75,0.0,42136.75,0,
2025-10-20,42136.75,0.0,42136.75,0,
2025-10-21,42136.75,0.0,42136.75,0,
2025-10-22,42136.75,0.0,42136.75,0,
2025-10-23,42136.75,0.0,42136.75,0,
2025-10-24,42136.75,0.0,42136.75,0,
2025-10-26,42136.75,0.0,42136.75,0,
2025-10-27,42136.75,277.75,42414.5,1,Long
2025-10-28,42136.75,467.0,42603.75,1,Long
2025-10-29,42136.75,518.75,42655.5,1,Long
2025-10-30,42136.75,453.5,42590.25,1,Long
2025-10-31,42136.75,266.75,42403.5,1,Long
2025-11-02,42136.75,363.75,42500.5,1,Long
2025-11-03,42136.75,352.0,42488.75,1,Long
2025-11-04,42136.75,-213.25,41923.5,1,Long
2025-11-05,41924.0,0.0,41924.0,0,
2025-11-06,41924.0,0.0,41924.0,0,
2025-11-07,41924.0,0.0,41924.0,0,
2025-11-09,41924.0,0.0,41924.0,0,
2025-11-10,41924.0,0.0,41924.0,0,
2025-11-11,41924.0,0.0,41924.0,0,
2025-11-12,41924.0,0.0,41924.0,0,
2025-11-13,41924.0,0.0,41924.0,0,
2025-11-14,41924.0,0.0,41924.0,0,
2025-11-16,41924.0,0.0,41924.0,0,
2025-11-17,41924.0,0.0,41924.0,0,
2025-11-18,41924.0,0.0,41924.0,0,
2025-11-19,41924.0,0.0,41924.0,0,
2025-11-20,41924.0,0.0,41924.0,0,
2025-11-21,41924.0,0.0,41924.0,0,
2025-11-23,41924.0,0.0,41924.0,0,
2025-11-24,41924.0,0.0,41924.0,0,
2025-11-25,41924.0,0.0,41924.0,0,
2025-11-26,41924.0,0.0,41924.0,0,
2025-11-27,41924.0,0.0,41924.0,0,
2025-11-28,41924.0,0.0,41924.0,0,
2025-11-30,41924.0,0.0,41924.0,0,
2025-12-01,41924.0,0.0,41924.0,0,
2025-12-02,41924.0,0.0,41924.0,0,
2025-12-03,41924.0,0.0,41924.0,0,
2025-12-04,41924.0,0.0,41924.0,0,
2025-12-05,41924.0,0.0,41924.0,0,
2025-12-07,41924.0,0.0,41924.0,0,
2025-12-08,41924.0,0.0,41924.0,0,
2025-12-09,41924.0,0.0,41924.0,0,
2025-12-10,41924.0,0.0,41924.0,0,
2025-12-11,41924.0,0.0,41924.0,0,
2025-12-12,41924.0,0.0,41924.0,0,
2025-12-14,41924.0,0.0,41924.0,0,
2025-12-15,41924.0,0.0,41924.0,0,
2025-12-16,41924.0,0.0,41924.0,0,
2025-12-17,41924.0,0.0,41924.0,0,
2025-12-18,41924.0,0.0,41924.0,0,
2025-12-19,41924.0,0.0,41924.0,0,
2025-12-21,41924.0,0.0,41924.0,0,
2025-12-22,41924.0,0.0,41924.0,0,
2025-12-23,41924.0,0.0,41924.0,0,
2025-12-24,41924.0,0.0,41924.0,0,
2025-12-25,41924.0,17.25,41941.25,1,Long
2025-12-26,41924.0,-13.0,41911.0,1,Long
2025-12-28,41924.0,0.0,41924.0,1,Long
2025-12-29,41924.0,-163.0,41761.0,1,Long
2025-12-30,41761.25,0.0,41761.25,0,
2025-12-31,41761.25,0.0,41761.25,0,
2026-01-01,41761.25,0.0,41761.25,0,
2026-01-02,41761.25,0.0,41761.25,0,
2026-01-04,41761.25,0.0,41761.25,0,
2026-01-05,41761.25,0.0,41761.25,0,
2026-01-06,41761.25,0.0,41761.25,0,
2026-01-07,41761.25,0.0,41761.25,0,
2026-01-08,41761.25,0.0,41761.25,0,
2026-01-09,41761.25,0.0,41761.25,0,
2026-01-11,41761.25,0.0,41761.25,0,
2026-01-12,41761.25,0.0,41761.25,0,
2026-01-13,41761.25,0.0,41761.25,0,
2026-01-14,41761.25,0.0,41761.25,0,
2026-01-15,41761.25,0.0,41761.25,0,
2026-01-16,41761.25,0.0,41761.25,0,
2026-01-18,41761.25,0.0,41761.25,0,
2026-01-19,41761.25,0.0,41761.25,0,
2026-01-20,41761.25,0.0,41761.25,0,
2026-01-21,41761.25,0.0,41761.25,0,
2026-01-22,41761.25,0.0,41761.25,0,
2026-01-23,41761.25,0.0,41761.25,0,
2026-01-25,41761.25,0.0,41761.25,0,
2026-01-26,41761.25,0.0,41761.25,0,
2026-01-27,41761.25,0.0,41761.25,0,
2026-01-28,41761.25,32.0,41793.25,1,Long
2026-01-29,41761.25,-166.0,41595.25,1,Long
2026-01-30,41594.75,0.0,41594.75,0,
2026-02-01,41594.75,0.0,41594.75,0,
2026-02-02,41594.75,0.0,41594.75,0,
2026-02-03,41594.75,0.0,41594.75,0,
2026-02-04,41594.75,0.0,41594.75,0,
2026-02-05,41594.75,0.0,41594.75,0,
2026-02-06,41594.75,0.0,41594.75,0,
2026-02-08,41594.75,0.0,41594.75,0,
2026-02-09,41594.75,0.0,41594.75,0,
2026-02-10,41594.75,0.0,41594.75,0,
2026-02-11,41594.75,0.0,41594.75,0,
2026-02-12,41594.75,0.0,41594.75,0,
2026-02-13,41594.75,0.0,41594.75,0,
2026-02-15,41594.75,0.0,41594.75,0,
2026-02-16,41594.75,0.0,41594.75,0,
2026-02-17,41594.75,0.0,41594.75,0,
2026-02-18,41594.75,0.0,41594.75,0,
2026-02-19,41594.75,0.0,41594.75,0,
2026-02-20,41594.75,0.0,41594.75,0,
2026-02-22,41594.75,0.0,41594.75,0,
2026-02-23,41594.75,0.0,41594.75,0,
2026-02-24,41594.75,0.0,41594.75,0,
2026-02-25,41594.75,0.0,41594.75,0,
2026-02-26,41594.75,0.0,41594.75,0,
2026-02-27,41594.75,0.0,41594.75,0,
2026-03-01,41594.75,0.0,41594.75,0,
2026-03-02,41594.75,0.0,41594.75,0,
2026-03-03,41594.75,0.0,41594.75,0,
2026-03-04,41594.75,0.0,41594.75,0,
2026-03-05,41594.75,0.0,41594.75,0,
2026-03-06,41594.75,0.0,41594.75,0,
2026-03-08,41594.75,0.0,41594.75,0,
