date,realized_points,open_unrealized_points,total_equity_points,open_units,direction
2019-05-05,0.0,0.0,0.0,0,
2019-05-06,0.0,0.0,0.0,0,
2019-05-07,0.0,0.0,0.0,0,
2019-05-08,0.0,0.0,0.0,0,
2019-05-09,0.0,0.0,0.0,0,
2019-05-10,0.0,0.0,0.0,0,
2019-05-12,0.0,0.0,0.0,0,
2019-05-13,0.0,0.0,0.0,0,
2019-05-14,0.0,0.0,0.0,0,
2019-05-15,0.0,0.0,0.0,0,
2019-05-16,0.0,0.0,0.0,0,
2019-05-17,0.0,0.0,0.0,0,
2019-05-19,0.0,0.0,0.0,0,
2019-05-20,0.0,0.0,0.0,0,
2019-05-21,0.0,0.0,0.0,0,
2019-05-22,0.0,0.0,0.0,0,
2019-05-23,0.0,0.0,0.0,0,
2019-05-24,0.0,0.0,0.0,0,
2019-05-26,0.0,0.0,0.0,0,
2019-05-27,0.0,0.0,0.0,0,
2019-05-28,0.0,0.0,0.0,0,
2019-05-29,0.0,0.0,0.0,0,
2019-05-30,0.0,0.0,0.0,0,
2019-05-31,0.0,0.0,0.0,0,
2019-06-02,0.0,0.0,0.0,0,
2019-06-03,0.0,0.0,0.0,0,
2019-06-04,0.0,0.0,0.0,0,
2019-06-05,0.0,0.0,0.0,0,
2019-06-06,0.0,639.0,639.0,3,Long
2019-06-07,0.0,1404.0,1404.0,3,Long
2019-06-09,0.0,1515.0,1515.0,3,Long
2019-06-10,0.0,1698.0,1698.0,3,Long
2019-06-11,0.0,1461.0,1461.0,3,Long
2019-06-12,0.0,1215.0,1215.0,3,Long
2019-06-13,0.0,1767.0,1767.0,3,Long
2019-06-14,0.0,1699.0,1699.0,4,Long
2019-06-16,0.0,1951.0,1951.0,4,Long
2019-06-17,0.0,1699.0,1699.0,4,Long
2019-06-18,0.0,3243.0,3243.0,4,Long
2019-06-19,0.0,3635.0,3635.0,4,Long
2019-06-20,0.0,4027.0,4027.0,4,Long
2019-06-21,0.0,3883.0,3883.0,4,Long
2019-06-23,0.0,4243.0,4243.0,4,Long
2019-06-24,0.0,3999.0,3999.0,4,Long
2019-06-25,0.0,3415.0,3415.0,4,Long
2019-06-26,0.0,3603.0,3603.0,4,Long
2019-06-27,0.0,3495.0,3495.0,4,Long
2019-06-28,0.0,3864.0,3864.0,5,Long
2019-06-30,0.0,4639.0,4639.0,5,Long
2019-07-01,0.0,4239.0,4239.0,5,Long
2019-07-02,0.0,4429.0,4429.0,5,Long
2019-07-03,0.0,5384.0,5384.0,5,Long
2019-07-04,0.0,5559.0,5559.0,5,Long
2019-07-05,0.0,5114.0,5114.0,5,Long
2019-07-07,0.0,4754.0,4754.0,5,Long
2019-07-08,0.0,4054.0,4054.0,5,Long
2019-07-09,0.0,4464.0,4464.0,5,Long
2019-07-10,0.0,5189.0,5189.0,5,Long
2019-07-11,0.0,6419.0,6419.0,5,Long
2019-07-12,0.0,7181.0,7181.0,6,Long
2019-07-14,0.0,7331.0,7331.0,6,Long
2019-07-15,0.0,7433.0,7433.0,6,Long
2019-07-16,0.0,7325.0,7325.0,6,Long
2019-07-17,0.0,6215.0,6215.0,6,Long
2019-07-18,0.0,7163.0,7163.0,6,Long
2019-07-19,0.0,5777.0,5777.0,6,Long
2019-07-21,0.0,6107.0,6107.0,6,Long
2019-07-22,0.0,6563.0,6563.0,6,Long
2019-07-23,0.0,7325.0,7325.0,6,Long
2019-07-24,0.0,6989.0,6989.0,6,Long
2019-07-25,0.0,6185.0,6185.0,6,Long
2019-07-26,0.0,6120.0,6120.0,7,Long
2019-07-28,0.0,5994.0,5994.0,7,Long
2019-07-29,0.0,6743.0,6743.0,7,Long
2019-07-30,0.0,6792.0,6792.0,7,Long
2019-07-31,0.0,4286.0,4286.0,7,Long
2019-08-01,4272.0,0.0,4272.0,0,
2019-08-02,4272.0,0.0,4272.0,0,
2019-08-04,4272.0,0.0,4272.0,0,
2019-08-05,4272.0,0.0,4272.0,0,
2019-08-06,4272.0,0.0,4272.0,0,
2019-08-07,4272.0,0.0,4272.0,0,
2019-08-08,4272.0,0.0,4272.0,0,
2019-08-09,4272.0,0.0,4272.0,0,
2019-08-11,4272.0,0.0,4272.0,0,
2019-08-12,4272.0,0.0,4272.0,0,
2019-08-13,4272.0,0.0,4272.0,0,
2019-08-14,4272.0,0.0,4272.0,0,
2019-08-15,4272.0,0.0,4272.0,0,
2019-08-16,4272.0,0.0,4272.0,0,
2019-08-18,4272.0,0.0,4272.0,0,
2019-08-19,4272.0,0.0,4272.0,0,
2019-08-20,4272.0,0.0,4272.0,0,
2019-08-21,4272.0,0.0,4272.0,0,
2019-08-22,4272.0,0.0,4272.0,0,
2019-08-23,4272.0,0.0,4272.0,0,
2019-08-25,4272.0,0.0,4272.0,0,
2019-08-26,4272.0,0.0,4272.0,0,
2019-08-27,4272.0,0.0,4272.0,0,
2019-08-28,4272.0,0.0,4272.0,0,
2019-08-29,4272.0,0.0,4272.0,0,
2019-08-30,4272.0,0.0,4272.0,0,
2019-09-01,4272.0,0.0,4272.0,0,
2019-09-02,4272.0,0.0,4272.0,0,
2019-09-03,4272.0,0.0,4272.0,0,
2019-09-04,4272.0,0.0,4272.0,0,
2019-09-05,4272.0,390.0,4662.0,3,Long
2019-09-06,4272.0,594.0,4866.0,3,Long
2019-09-08,4272.0,621.0,4893.0,3,Long
2019-09-09,4272.0,555.0,4827.0,3,Long
2019-09-10,4272.0,777.0,5049.0,3,Long
2019-09-11,4272.0,1926.0,6198.0,3,Long
2019-09-12,4272.0,1770.0,6042.0,3,Long
2019-09-13,4272.0,1728.0,6000.0,4,Long
2019-09-15,4272.0,1188.0,5460.0,4,Long
2019-09-16,4272.0,1092.0,5364.0,4,Long
2019-09-17,4272.0,1128.0,5400.0,4,Long
2019-09-18,4272.0,1116.0,5388.0,4,Long
2019-09-19,4272.0,1224.0,5496.0,4,Long
2019-09-20,4272.0,392.0,4664.0,4,Long
2019-09-22,4272.0,796.0,5068.0,4,Long
2019-09-23,4272.0,948.0,5220.0,4,Long
2019-09-24,4272.0,348.0,4620.0,4,Long
2019-09-25,4272.0,584.0,4856.0,4,Long
2019-09-26,4272.0,216.0,4488.0,4,Long
2019-09-27,4272.0,260.0,4532.0,5,Long
2019-09-29,4272.0,570.0,4842.0,5,Long
2019-09-30,4272.0,1035.0,5307.0,5,Long
2019-10-01,4272.0,-1020.0,3252.0,5,Long
2019-10-02,3252.0,0.0,3252.0,0,
2019-10-03,3252.0,0.0,3252.0,0,
2019-10-04,3252.0,0.0,3252.0,0,
2019-10-06,3252.0,0.0,3252.0,0,
2019-10-07,3252.0,0.0,3252.0,0,
2019-10-08,3252.0,0.0,3252.0,0,
2019-10-09,3252.0,0.0,3252.0,0,
2019-10-10,3252.0,0.0,3252.0,0,
2019-10-11,3252.0,0.0,3252.0,0,
2019-10-13,3252.0,0.0,3252.0,0,
2019-10-14,3252.0,0.0,3252.0,0,
2019-10-15,3252.0,0.0,3252.0,0,
2019-10-16,3252.0,-9.0,3243.0,3,Long
2019-10-17,3234.0,0.0,3234.0,0,
2019-10-18,3234.0,-600.0,2634.0,3,Long
2019-10-20,2523.0,0.0,2523.0,0,
2019-10-21,2523.0,0.0,2523.0,0,
2019-10-22,2523.0,0.0,2523.0,0,
2019-10-23,2523.0,0.0,2523.0,0,
2019-10-24,2523.0,0.0,2523.0,0,
2019-10-25,2523.0,0.0,2523.0,0,
2019-10-27,2523.0,0.0,2523.0,0,
2019-10-28,2523.0,282.0,2805.0,3,Long
2019-10-29,2523.0,198.0,2721.0,3,Long
2019-10-30,2523.0,600.0,3123.0,3,Long
2019-10-31,2523.0,249.0,2772.0,3,Long
2019-11-01,2523.0,936.0,3459.0,3,Long
2019-11-03,2523.0,1104.0,3627.0,3,Long
2019-11-04,2523.0,1440.0,3963.0,3,Long
2019-11-05,2523.0,1368.0,3891.0,3,Long
2019-11-06,2523.0,1374.0,3897.0,3,Long
2019-11-07,2523.0,1983.0,4506.0,3,Long
2019-11-08,2523.0,2100.0,4623.0,4,Long
2019-11-10,2523.0,1736.0,4259.0,4,Long
2019-11-11,2523.0,2064.0,4587.0,4,Long
2019-11-12,2523.0,1872.0,4395.0,4,Long
2019-11-13,2523.0,2488.0,5011.0,4,Long
2019-11-14,2523.0,2884.0,5407.0,4,Long
2019-11-15,2523.0,3364.0,5887.0,4,Long
2019-11-17,2523.0,3312.0,5835.0,4,Long
2019-11-18,2523.0,3652.0,6175.0,4,Long
2019-11-19,2523.0,2952.0,5475.0,4,Long
2019-11-20,2523.0,2456.0,4979.0,4,Long
2019-11-21,2523.0,2656.0,5179.0,4,Long
2019-11-22,2523.0,3000.0,5523.0,5,Long
2019-11-24,2523.0,3345.0,5868.0,5,Long
2019-11-25,2523.0,4010.0,6533.0,5,Long
2019-11-26,2523.0,4365.0,6888.0,5,Long
2019-11-27,2523.0,4050.0,6573.0,5,Long
2019-11-28,2523.0,4025.0,6548.0,5,Long
2019-11-29,2523.0,4035.0,6558.0,5,Long
2019-12-01,2523.0,4485.0,7008.0,5,Long
2019-12-02,2523.0,2860.0,5383.0,5,Long
2019-12-03,5378.0,0.0,5378.0,0,
2019-12-04,5378.0,0.0,5378.0,0,
2019-12-05,5378.0,0.0,5378.0,0,
2019-12-06,5378.0,0.0,5378.0,0,
2019-12-08,5378.0,0.0,5378.0,0,
2019-12-09,5378.0,0.0,5378.0,0,
2019-12-10,5378.0,0.0,5378.0,0,
2019-12-11,5378.0,0.0,5378.0,0,
2019-12-12,5378.0,0.0,5378.0,0,
2019-12-13,5378.0,-225.0,5153.0,3,Long
2019-12-15,5177.0,0.0,5177.0,0,
2019-12-16,5177.0,0.0,5177.0,0,
2019-12-17,5177.0,84.0,5261.0,3,Long
2019-12-18,5177.0,27.0,5204.0,3,Long
2019-12-19,5177.0,435.0,5612.0,3,Long
2019-12-20,5177.0,651.0,5828.0,3,Long
2019-12-22,5177.0,726.0,5903.0,3,Long
2019-12-23,5177.0,918.0,6095.0,3,Long
2019-12-24,5177.0,762.0,5939.0,3,Long
2019-12-25,5177.0,861.0,6038.0,3,Long
2019-12-26,5177.0,1254.0,6431.0,3,Long
2019-12-27,5177.0,1036.0,6213.0,4,Long
2019-12-29,5177.0,1236.0,6413.0,4,Long
2019-12-30,5177.0,512.0,5689.0,4,Long
2019-12-31,5177.0,836.0,6013.0,4,Long
2020-01-01,5177.0,1008.0,6185.0,4,Long
2020-01-02,5177.0,1292.0,6469.0,4,Long
2020-01-03,5177.0,1056.0,6233.0,4,Long
2020-01-05,5177.0,740.0,5917.0,4,Long
2020-01-06,5177.0,1496.0,6673.0,4,Long
2020-01-07,5177.0,32.0,5209.0,4,Long
2020-01-08,5177.0,1824.0,7001.0,4,Long
2020-01-09,5177.0,2636.0,7813.0,4,Long
2020-01-10,5177.0,1724.0,6901.0,5,Long
2020-01-12,5177.0,2129.0,7306.0,5,Long
2020-01-13,5177.0,2239.0,7416.0,5,Long
2020-01-14,5177.0,2179.0,7356.0,5,Long
2020-01-15,5177.0,3199.0,8376.0,5,Long
2020-01-16,5177.0,4249.0,9426.0,5,Long
2020-01-17,5177.0,4234.0,9411.0,5,Long
2020-01-19,5177.0,4369.0,9546.0,5,Long
2020-01-20,5177.0,3774.0,8951.0,5,Long
2020-01-21,5177.0,4284.0,9461.0,5,Long
2020-01-22,5177.0,3359.0,8536.0,5,Long
2020-01-23,5177.0,3709.0,8886.0,5,Long
2020-01-24,5177.0,2393.0,7570.0,6,Long
2020-01-26,5177.0,1001.0,6178.0,6,Long
2020-01-27,6196.0,0.0,6196.0,0,
2020-01-28,6196.0,0.0,6196.0,0,
2020-01-29,6196.0,0.0,6196.0,0,
2020-01-30,6196.0,0.0,6196.0,0,
2020-01-31,6196.0,0.0,6196.0,0,
2020-02-02,6196.0,0.0,6196.0,0,
2020-02-03,6196.0,0.0,6196.0,0,
2020-02-04,6196.0,0.0,6196.0,0,
2020-02-05,6196.0,0.0,6196.0,0,
2020-02-06,6196.0,-465.0,5731.0,3,Long
2020-02-07,5731.0,0.0,5731.0,0,
2020-02-09,5731.0,0.0,5731.0,0,
2020-02-10,5731.0,0.0,5731.0,0,
2020-02-11,5731.0,0.0,5731.0,0,
2020-02-12,5731.0,0.0,5731.0,0,
2020-02-13,5731.0,0.0,5731.0,0,
2020-02-14,5731.0,-267.0,5464.0,3,Long
2020-02-16,5437.0,0.0,5437.0,0,
2020-02-17,5437.0,0.0,5437.0,0,
2020-02-18,5437.0,0.0,5437.0,0,
2020-02-19,5437.0,0.0,5437.0,0,
2020-02-20,5437.0,0.0,5437.0,0,
2020-02-21,5437.0,0.0,5437.0,0,
2020-02-23,5437.0,0.0,5437.0,0,
2020-02-24,5437.0,0.0,5437.0,0,
2020-02-25,5437.0,0.0,5437.0,0,
2020-02-26,5437.0,0.0,5437.0,0,
2020-02-27,5437.0,0.0,5437.0,0,
2020-03-01,5437.0,0.0,5437.0,0,
2020-03-02,5437.0,0.0,5437.0,0,
2020-03-03,5437.0,0.0,5437.0,0,
2020-03-04,5437.0,0.0,5437.0,0,
2020-03-05,5437.0,0.0,5437.0,0,
2020-03-06,5437.0,0.0,5437.0,0,
2020-03-08,5437.0,0.0,5437.0,0,
2020-03-09,5437.0,0.0,5437.0,0,
2020-03-10,5437.0,0.0,5437.0,0,
2020-03-11,5437.0,0.0,5437.0,0,
2020-03-12,5437.0,0.0,5437.0,0,
2020-03-13,5437.0,0.0,5437.0,0,
2020-03-15,5437.0,0.0,5437.0,0,
2020-03-16,5437.0,0.0,5437.0,0,
2020-03-17,5437.0,0.0,5437.0,0,
2020-03-18,5437.0,0.0,5437.0,0,
2020-03-19,5437.0,0.0,5437.0,0,
2020-03-20,5437.0,0.0,5437.0,0,
2020-03-22,5437.0,0.0,5437.0,0,
2020-03-23,5437.0,0.0,5437.0,0,
2020-03-24,5437.0,0.0,5437.0,0,
2020-03-25,5437.0,0.0,5437.0,0,
2020-03-26,5437.0,0.0,5437.0,0,
2020-03-27,5437.0,0.0,5437.0,0,
2020-03-29,5437.0,0.0,5437.0,0,
2020-03-30,5437.0,0.0,5437.0,0,
2020-03-31,5437.0,0.0,5437.0,0,
2020-04-01,5437.0,0.0,5437.0,0,
2020-04-02,5437.0,0.0,5437.0,0,
2020-04-03,5437.0,0.0,5437.0,0,
2020-04-05,5437.0,0.0,5437.0,0,
2020-04-06,5437.0,0.0,5437.0,0,
2020-04-07,5437.0,483.0,5920.0,3,Long
2020-04-08,5437.0,2787.0,8224.0,3,Long
2020-04-09,5437.0,4017.0,9454.0,3,Long
2020-04-12,5437.0,2859.0,8296.0,3,Long
2020-04-13,5437.0,3837.0,9274.0,3,Long
2020-04-14,5437.0,4245.0,9682.0,3,Long
2020-04-15,5437.0,2772.0,8209.0,3,Long
2020-04-16,5437.0,5694.0,11131.0,3,Long
2020-04-17,5437.0,5418.0,10855.0,3,Long
2020-04-19,5437.0,5409.0,10846.0,3,Long
2020-04-20,5437.0,2793.0,8230.0,3,Long
2020-04-21,5437.0,1869.0,7306.0,3,Long
2020-04-22,5437.0,2757.0,8194.0,3,Long
2020-04-23,5437.0,2715.0,8152.0,3,Long
2020-04-24,5437.0,3854.0,9291.0,4,Long
2020-04-26,5437.0,4458.0,9895.0,4,Long
2020-04-27,5437.0,4990.0,10427.0,4,Long
2020-04-28,5437.0,6306.0,11743.0,4,Long
2020-04-29,5437.0,8114.0,13551.0,4,Long
2020-04-30,5437.0,5006.0,10443.0,4,Long
2020-05-01,5437.0,3650.0,9087.0,4,Long
2020-05-03,5437.0,3214.0,8651.0,4,Long
2020-05-04,5437.0,4266.0,9703.0,4,Long
2020-05-05,5437.0,4398.0,9835.0,4,Long
2020-05-06,5437.0,3838.0,9275.0,4,Long
2020-05-07,5437.0,5810.0,11247.0,4,Long
2020-05-08,5437.0,6551.0,11988.0,5,Long
2020-05-10,5437.0,7261.0,12698.0,5,Long
2020-05-11,5437.0,4821.0,10258.0,5,Long
2020-05-12,5437.0,3116.0,8553.0,5,Long
2020-05-13,5437.0,931.0,6368.0,5,Long
2020-05-14,5437.0,2761.0,8198.0,5,Long
2020-05-15,5437.0,2926.0,8363.0,5,Long
2020-05-17,5437.0,4006.0,9443.0,5,Long
2020-05-18,5437.0,7336.0,12773.0,5,Long
2020-05-19,5437.0,6616.0,12053.0,5,Long
2020-05-20,5437.0,6926.0,12363.0,5,Long
2020-05-21,5437.0,6176.0,11613.0,5,Long
2020-05-22,5437.0,7415.0,12852.0,6,Long
2020-05-24,5437.0,7697.0,13134.0,6,Long
2020-05-25,5437.0,9695.0,15132.0,6,Long
2020-05-26,5437.0,11669.0,17106.0,6,Long
2020-05-27,5437.0,14351.0,19788.0,6,Long
2020-05-28,5437.0,12665.0,18102.0,6,Long
2020-05-29,5437.0,13613.0,19050.0,6,Long
2020-05-31,5437.0,12749.0,18186.0,6,Long
2020-06-01,5437.0,12767.0,18204.0,6,Long
2020-06-02,5437.0,15443.0,20880.0,6,Long
2020-06-03,5437.0,17825.0,23262.0,6,Long
2020-06-04,5437.0,19037.0,24474.0,6,Long
2020-06-05,5437.0,22998.0,28435.0,7,Long
2020-06-07,5437.0,23530.0,28967.0,7,Long
2020-06-08,5437.0,26239.0,31676.0,7,Long
2020-06-09,5437.0,25560.0,30997.0,7,Long
2020-06-10,5437.0,20016.0,25453.0,7,Long
2020-06-11,25446.0,0.0,25446.0,0,
2020-06-12,25446.0,0.0,25446.0,0,
2020-06-14,25446.0,0.0,25446.0,0,
2020-06-15,25446.0,0.0,25446.0,0,
2020-06-16,25446.0,0.0,25446.0,0,
2020-06-17,25446.0,0.0,25446.0,0,
2020-06-18,25446.0,0.0,25446.0,0,
2020-06-19,25446.0,0.0,25446.0,0,
2020-06-21,25446.0,0.0,25446.0,0,
2020-06-22,25446.0,0.0,25446.0,0,
2020-06-23,25446.0,0.0,25446.0,0,
2020-06-24,25446.0,0.0,25446.0,0,
2020-06-25,25446.0,0.0,25446.0,0,
2020-06-26,25446.0,0.0,25446.0,0,
2020-06-28,25446.0,0.0,25446.0,0,
2020-06-29,25446.0,0.0,25446.0,0,
2020-06-30,25446.0,0.0,25446.0,0,
2020-07-01,25446.0,0.0,25446.0,0,
2020-07-02,25446.0,0.0,25446.0,0,
2020-07-03,25446.0,0.0,25446.0,0,
2020-07-05,25446.0,0.0,25446.0,0,
2020-07-06,25446.0,0.0,25446.0,0,
2020-07-07,25446.0,0.0,25446.0,0,
2020-07-08,25446.0,0.0,25446.0,0,
2020-07-09,25446.0,0.0,25446.0,0,
2020-07-10,25446.0,0.0,25446.0,0,
2020-07-12,25446.0,0.0,25446.0,0,
2020-07-13,25446.0,0.0,25446.0,0,
2020-07-14,25446.0,0.0,25446.0,0,
2020-07-15,25446.0,0.0,25446.0,0,
2020-07-16,25446.0,0.0,25446.0,0,
2020-07-17,25446.0,0.0,25446.0,0,
2020-07-19,25446.0,0.0,25446.0,0,
2020-07-20,25446.0,0.0,25446.0,0,
2020-07-21,25446.0,0.0,25446.0,0,
2020-07-22,25446.0,0.0,25446.0,0,
2020-07-23,25446.0,0.0,25446.0,0,
2020-07-24,25446.0,0.0,25446.0,0,
2020-07-26,25446.0,0.0,25446.0,0,
2020-07-27,25446.0,0.0,25446.0,0,
2020-07-28,25446.0,0.0,25446.0,0,
2020-07-29,25446.0,0.0,25446.0,0,
2020-07-30,25446.0,0.0,25446.0,0,
2020-07-31,25446.0,0.0,25446.0,0,
2020-08-02,25446.0,0.0,25446.0,0,
2020-08-03,25446.0,0.0,25446.0,0,
2020-08-04,25446.0,0.0,25446.0,0,
2020-08-05,25446.0,0.0,25446.0,0,
2020-08-06,25446.0,186.0,25632.0,3,Long
2020-08-07,25446.0,801.0,26247.0,3,Long
2020-08-09,25446.0,957.0,26403.0,3,Long
2020-08-10,25446.0,2073.0,27519.0,3,Long
2020-08-11,25446.0,1743.0,27189.0,3,Long
2020-08-12,25446.0,2343.0,27789.0,3,Long
2020-08-13,25446.0,2292.0,27738.0,3,Long
2020-08-14,25446.0,2186.0,27632.0,4,Long
2020-08-16,25446.0,2590.0,28036.0,4,Long
2020-08-17,25446.0,2038.0,27484.0,4,Long
2020-08-18,25446.0,1994.0,27440.0,4,Long
2020-08-19,25446.0,898.0,26344.0,4,Long
2020-08-20,25446.0,1942.0,27388.0,4,Long
2020-08-21,25446.0,2418.0,27864.0,4,Long
2020-08-23,25446.0,2694.0,28140.0,4,Long
2020-08-24,25446.0,4558.0,30004.0,4,Long
2020-08-25,25446.0,3618.0,29064.0,4,Long
2020-08-26,25446.0,4022.0,29468.0,4,Long
2020-08-27,25446.0,5710.0,31156.0,4,Long
2020-08-28,25446.0,5412.0,30858.0,5,Long
2020-08-30,25446.0,6137.0,31583.0,5,Long
2020-08-31,25446.0,4477.0,29923.0,5,Long
2020-09-01,25446.0,5757.0,31203.0,5,Long
2020-09-02,25446.0,7747.0,33193.0,5,Long
2020-09-03,25446.0,3592.0,29038.0,5,Long
2020-09-04,25446.0,2602.0,28048.0,5,Long
2020-09-06,25446.0,2957.0,28403.0,5,Long
2020-09-07,25446.0,3652.0,29098.0,5,Long
2020-09-08,29103.0,0.0,29103.0,0,
2020-09-09,29103.0,0.0,29103.0,0,
2020-09-10,29103.0,0.0,29103.0,0,
2020-09-11,29103.0,0.0,29103.0,0,
2020-09-13,29103.0,0.0,29103.0,0,
2020-09-14,29103.0,0.0,29103.0,0,
2020-09-15,29103.0,0.0,29103.0,0,
2020-09-16,29103.0,0.0,29103.0,0,
2020-09-17,29103.0,0.0,29103.0,0,
2020-09-18,29103.0,0.0,29103.0,0,
2020-09-20,29103.0,0.0,29103.0,0,
2020-09-21,29103.0,0.0,29103.0,0,
2020-09-22,29103.0,0.0,29103.0,0,
2020-09-23,29103.0,0.0,29103.0,0,
2020-09-24,29103.0,0.0,29103.0,0,
2020-09-25,29103.0,0.0,29103.0,0,
2020-09-27,29103.0,0.0,29103.0,0,
2020-09-28,29103.0,0.0,29103.0,0,
2020-09-29,29103.0,0.0,29103.0,0,
2020-09-30,29103.0,0.0,29103.0,0,
2020-10-01,29103.0,0.0,29103.0,0,
2020-10-02,29103.0,0.0,29103.0,0,
2020-10-04,29103.0,0.0,29103.0,0,
2020-10-05,29103.0,0.0,29103.0,0,
2020-10-06,29103.0,0.0,29103.0,0,
2020-10-07,29103.0,0.0,29103.0,0,
2020-10-08,29103.0,0.0,29103.0,0,
2020-10-09,29103.0,315.0,29418.0,3,Long
2020-10-11,29103.0,204.0,29307.0,3,Long
2020-10-12,29103.0,744.0,29847.0,3,Long
2020-10-13,29103.0,627.0,29730.0,3,Long
2020-10-14,29103.0,-432.0,28671.0,3,Long
2020-10-15,28668.0,0.0,28668.0,0,
2020-10-16,28668.0,0.0,28668.0,0,
2020-10-18,28668.0,0.0,28668.0,0,
2020-10-19,28668.0,-1116.0,27552.0,3,Long
2020-10-20,27552.0,0.0,27552.0,0,
2020-10-21,27552.0,0.0,27552.0,0,
2020-10-22,27552.0,0.0,27552.0,0,
2020-10-23,27552.0,0.0,27552.0,0,
2020-10-25,27552.0,0.0,27552.0,0,
2020-10-26,27552.0,0.0,27552.0,0,
2020-10-27,27552.0,0.0,27552.0,0,
2020-10-28,27552.0,0.0,27552.0,0,
2020-10-29,27552.0,0.0,27552.0,0,
2020-10-30,27552.0,0.0,27552.0,0,
2020-11-01,27552.0,0.0,27552.0,0,
2020-11-02,27552.0,0.0,27552.0,0,
2020-11-03,27552.0,0.0,27552.0,0,
2020-11-04,27552.0,0.0,27552.0,0,
2020-11-05,27552.0,600.0,28152.0,3,Long
2020-11-06,27552.0,1044.0,28596.0,3,Long
2020-11-08,27552.0,1968.0,29520.0,3,Long
2020-11-09,27552.0,2676.0,30228.0,3,Long
2020-11-10,27552.0,4368.0,31920.0,3,Long
2020-11-11,27552.0,3414.0,30966.0,3,Long
2020-11-12,27552.0,3126.0,30678.0,3,Long
2020-11-13,27552.0,4418.0,31970.0,4,Long
2020-11-15,27552.0,5362.0,32914.0,4,Long
2020-11-16,27552.0,5894.0,33446.0,4,Long
2020-11-17,27552.0,5442.0,32994.0,4,Long
2020-11-18,27552.0,4234.0,31786.0,4,Long
2020-11-19,27552.0,3802.0,31354.0,4,Long
2020-11-20,27552.0,3462.0,31014.0,4,Long
2020-11-22,27552.0,3954.0,31506.0,4,Long
2020-11-23,27552.0,6050.0,33602.0,4,Long
2020-11-24,27552.0,6946.0,34498.0,4,Long
2020-11-25,27552.0,6142.0,33694.0,4,Long
2020-11-26,27552.0,5946.0,33498.0,4,Long
2020-11-27,27552.0,6322.0,33874.0,5,Long
2020-11-29,27552.0,5277.0,32829.0,5,Long
2020-11-30,27552.0,6192.0,33744.0,5,Long
2020-12-01,27552.0,5327.0,32879.0,5,Long
2020-12-02,27552.0,6017.0,33569.0,5,Long
2020-12-03,27552.0,6812.0,34364.0,5,Long
2020-12-04,27552.0,7612.0,35164.0,5,Long
2020-12-06,27552.0,7567.0,35119.0,5,Long
2020-12-07,27552.0,6827.0,34379.0,5,Long
2020-12-08,27552.0,8217.0,35769.0,5,Long
2020-12-09,27552.0,7322.0,34874.0,5,Long
2020-12-10,27552.0,6902.0,34454.0,5,Long
2020-12-11,27552.0,6660.0,34212.0,6,Long
2020-12-13,27552.0,7674.0,35226.0,6,Long
2020-12-14,27552.0,5664.0,33216.0,6,Long
2020-12-15,27552.0,7476.0,35028.0,6,Long
2020-12-16,27552.0,7830.0,35382.0,6,Long
2020-12-17,27552.0,7620.0,35172.0,6,Long
2020-12-18,27552.0,8610.0,36162.0,6,Long
2020-12-20,27552.0,7698.0,35250.0,6,Long
2020-12-21,27552.0,6900.0,34452.0,6,Long
2020-12-22,27552.0,6216.0,33768.0,6,Long
2020-12-23,27552.0,7512.0,35064.0,6,Long
2020-12-24,27552.0,7524.0,35076.0,6,Long
2020-12-27,27552.0,8370.0,35922.0,6,Long
2020-12-28,27552.0,9660.0,37212.0,6,Long
2020-12-29,27552.0,8808.0,36360.0,6,Long
2020-12-30,27552.0,8796.0,36348.0,6,Long
2020-12-31,27552.0,9882.0,37434.0,6,Long
2021-01-03,27552.0,9918.0,37470.0,6,Long
2021-01-04,27552.0,7368.0,34920.0,6,Long
2021-01-05,27552.0,8274.0,35826.0,6,Long
2021-01-06,27552.0,11988.0,39540.0,6,Long
2021-01-07,27552.0,13440.0,40992.0,6,Long
2021-01-08,27552.0,13096.0,40648.0,7,Long
2021-01-10,27552.0,11535.0,39087.0,7,Long
2021-01-11,27552.0,12179.0,39731.0,7,Long
2021-01-12,27552.0,13222.0,40774.0,7,Long
2021-01-13,27552.0,13544.0,41096.0,7,Long
2021-01-14,27552.0,11472.0,39024.0,7,Long
2021-01-15,27552.0,10317.0,37869.0,7,Long
2021-01-17,27552.0,10709.0,38261.0,7,Long
2021-01-18,27552.0,12144.0,39696.0,7,Long
2021-01-19,27552.0,11605.0,39157.0,7,Long
2021-01-20,27552.0,13964.0,41516.0,7,Long
2021-01-21,27552.0,12865.0,40417.0,7,Long
2021-01-22,27552.0,12188.0,39740.0,8,Long
2021-01-24,27552.0,12900.0,40452.0,8,Long
2021-01-25,27552.0,10548.0,38100.0,8,Long
2021-01-26,27552.0,11076.0,38628.0,8,Long
2021-01-27,27552.0,6180.0,33732.0,8,Long
2021-01-28,27552.0,6804.0,34356.0,8,Long
2021-01-29,34340.0,0.0,34340.0,0,
2021-01-31,34340.0,0.0,34340.0,0,
2021-02-01,34340.0,0.0,34340.0,0,
2021-02-02,34340.0,0.0,34340.0,0,
2021-02-03,34340.0,0.0,34340.0,0,
2021-02-04,34340.0,0.0,34340.0,0,
2021-02-05,34340.0,0.0,34340.0,0,
2021-02-07,34340.0,183.0,34523.0,3,Long
2021-02-08,34340.0,399.0,34739.0,3,Long
2021-02-09,34340.0,711.0,35051.0,3,Long
2021-02-10,34340.0,732.0,35072.0,3,Long
2021-02-11,34340.0,561.0,34901.0,3,Long
2021-02-12,34340.0,861.0,35201.0,3,Long
2021-02-14,34340.0,1233.0,35573.0,3,Long
2021-02-15,34340.0,1569.0,35909.0,3,Long
2021-02-16,34340.0,981.0,35321.0,3,Long
2021-02-17,34340.0,1200.0,35540.0,3,Long
2021-02-18,34340.0,660.0,35000.0,3,Long
2021-02-19,34340.0,863.0,35203.0,4,Long
2021-02-21,34340.0,779.0,35119.0,4,Long
2021-02-22,34340.0,1531.0,35871.0,4,Long
2021-02-23,34340.0,867.0,35207.0,4,Long
2021-02-24,34340.0,3195.0,37535.0,4,Long
2021-02-25,34340.0,171.0,34511.0,4,Long
2021-02-26,34340.0,-1245.0,33095.0,4,Long
2021-02-28,33391.0,0.0,33391.0,0,
2021-03-01,33391.0,0.0,33391.0,0,
2021-03-02,33391.0,156.0,33547.0,3,Long
2021-03-03,33391.0,-882.0,32509.0,3,Long
2021-03-04,32518.0,0.0,32518.0,0,
2021-03-05,32518.0,0.0,32518.0,0,
2021-03-07,32518.0,-264.0,32254.0,3,Long
2021-03-08,32518.0,1260.0,33778.0,3,Long
2021-03-09,32518.0,717.0,33235.0,3,Long
2021-03-10,32518.0,2550.0,35068.0,3,Long
2021-03-11,32518.0,3078.0,35596.0,3,Long
2021-03-12,32518.0,3381.0,35899.0,3,Long
2021-03-14,32518.0,3534.0,36052.0,3,Long
2021-03-15,32518.0,3753.0,36271.0,3,Long
2021-03-16,32518.0,3405.0,35923.0,3,Long
2021-03-17,32518.0,4254.0,36772.0,3,Long
2021-03-18,32518.0,3741.0,36259.0,3,Long
2021-03-19,32518.0,2740.0,35258.0,4,Long
2021-03-21,32518.0,2408.0,34926.0,4,Long
2021-03-22,32518.0,3040.0,35558.0,4,Long
2021-03-23,32518.0,1924.0,34442.0,4,Long
2021-03-24,32518.0,2352.0,34870.0,4,Long
2021-03-25,32518.0,3060.0,35578.0,4,Long
2021-03-26,32518.0,4540.0,37058.0,4,Long
2021-03-28,32518.0,4136.0,36654.0,4,Long
2021-03-29,32518.0,5076.0,37594.0,4,Long
2021-03-30,32518.0,4496.0,37014.0,4,Long
2021-03-31,32518.0,4148.0,36666.0,4,Long
2021-04-01,32518.0,4832.0,37350.0,4,Long
2021-04-02,32518.0,5584.0,38102.0,5,Long
2021-04-04,32518.0,5784.0,38302.0,5,Long
2021-04-05,32518.0,6149.0,38667.0,5,Long
2021-04-06,32518.0,6239.0,38757.0,5,Long
2021-04-07,32518.0,6409.0,38927.0,5,Long
2021-04-08,32518.0,6499.0,39017.0,5,Long
2021-04-09,32518.0,7694.0,40212.0,5,Long
2021-04-11,32518.0,7434.0,39952.0,5,Long
2021-04-12,32518.0,7759.0,40277.0,5,Long
2021-04-13,32518.0,7159.0,39677.0,5,Long
2021-04-14,32518.0,7914.0,40432.0,5,Long
2021-04-15,32518.0,8959.0,41477.0,5,Long
2021-04-16,32518.0,9706.0,42224.0,6,Long
2021-04-18,32518.0,9292.0,41810.0,6,Long
2021-04-19,32518.0,9652.0,42170.0,6,Long
2021-04-20,32518.0,7396.0,39914.0,6,Long
2021-04-21,32518.0,9256.0,41774.0,6,Long
2021-04-22,32518.0,7888.0,40406.0,6,Long
2021-04-23,32518.0,8848.0,41366.0,6,Long
2021-04-25,32518.0,9262.0,41780.0,6,Long
2021-04-26,32518.0,8800.0,41318.0,6,Long
2021-04-27,32518.0,8416.0,40934.0,6,Long
2021-04-28,32518.0,8230.0,40748.0,6,Long
2021-04-29,32518.0,8758.0,41276.0,6,Long
2021-04-30,32518.0,8190.0,40708.0,7,Long
2021-05-02,32518.0,8869.0,41387.0,7,Long
2021-05-03,32518.0,9317.0,41835.0,7,Long
2021-05-04,32518.0,10353.0,42871.0,7,Long
2021-05-05,32518.0,10409.0,42927.0,7,Long
2021-05-06,32518.0,12796.0,45314.0,7,Long
2021-05-07,32518.0,14483.0,47001.0,7,Long
2021-05-09,32518.0,15015.0,47533.0,7,Long
2021-05-10,32518.0,13664.0,46182.0,7,Long
2021-05-11,32518.0,9184.0,41702.0,7,Long
2021-05-12,41695.0,0.0,41695.0,0,
2021-05-13,41695.0,0.0,41695.0,0,
2021-05-14,41695.0,0.0,41695.0,0,
2021-05-16,41695.0,0.0,41695.0,0,
2021-05-17,41695.0,0.0,41695.0,0,
2021-05-18,41695.0,0.0,41695.0,0,
2021-05-19,41695.0,0.0,41695.0,0,
2021-05-20,41695.0,0.0,41695.0,0,
2021-05-21,41695.0,0.0,41695.0,0,
2021-05-23,41695.0,0.0,41695.0,0,
2021-05-24,41695.0,0.0,41695.0,0,
2021-05-25,41695.0,0.0,41695.0,0,
2021-05-26,41695.0,0.0,41695.0,0,
2021-05-27,41695.0,0.0,41695.0,0,
2021-05-28,41695.0,0.0,41695.0,0,
2021-05-30,41695.0,0.0,41695.0,0,
2021-05-31,41695.0,0.0,41695.0,0,
2021-06-01,41695.0,0.0,41695.0,0,
2021-06-02,41695.0,0.0,41695.0,0,
2021-06-03,41695.0,0.0,41695.0,0,
2021-06-04,41695.0,0.0,41695.0,0,
2021-06-06,41695.0,0.0,41695.0,0,
2021-06-07,41695.0,0.0,41695.0,0,
2021-06-08,41695.0,0.0,41695.0,0,
2021-06-09,41695.0,0.0,41695.0,0,
2021-06-10,41695.0,0.0,41695.0,0,
2021-06-11,41695.0,0.0,41695.0,0,
2021-06-13,41695.0,0.0,41695.0,0,
2021-06-14,41695.0,0.0,41695.0,0,
2021-06-15,41695.0,0.0,41695.0,0,
2021-06-16,41695.0,0.0,41695.0,0,
2021-06-17,41695.0,0.0,41695.0,0,
2021-06-18,41695.0,0.0,41695.0,0,
2021-06-20,41695.0,0.0,41695.0,0,
2021-06-21,41695.0,0.0,41695.0,0,
2021-06-22,41695.0,0.0,41695.0,0,
2021-06-23,41695.0,0.0,41695.0,0,
2021-06-24,41695.0,0.0,41695.0,0,
2021-06-25,41695.0,432.0,42127.0,3,Long
2021-06-27,41695.0,354.0,42049.0,3,Long
2021-06-28,41695.0,-306.0,41389.0,3,Long
2021-06-29,41386.0,0.0,41386.0,0,
2021-06-30,41386.0,0.0,41386.0,0,
2021-07-01,41386.0,267.0,41653.0,3,Long
2021-07-02,41386.0,552.0,41938.0,3,Long
2021-07-04,41386.0,480.0,41866.0,3,Long
2021-07-05,41386.0,798.0,42184.0,3,Long
2021-07-06,41386.0,-63.0,41323.0,3,Long
2021-07-07,41386.0,60.0,41446.0,3,Long
2021-07-08,41386.0,-744.0,40642.0,3,Long
2021-07-09,40651.0,0.0,40651.0,0,
2021-07-11,40651.0,-195.0,40456.0,3,Long
2021-07-12,40651.0,339.0,40990.0,3,Long
2021-07-13,40651.0,-45.0,40606.0,3,Long
2021-07-14,40651.0,9.0,40660.0,3,Long
2021-07-15,40651.0,333.0,40984.0,3,Long
2021-07-16,40651.0,-606.0,40045.0,3,Long
2021-07-18,40651.0,-1038.0,39613.0,3,Long
2021-07-19,40651.0,-2577.0,38074.0,3,Long
2021-07-20,38062.0,0.0,38062.0,0,
2021-07-21,38062.0,957.0,39019.0,3,Long
2021-07-22,38062.0,1083.0,39145.0,3,Long
2021-07-23,38062.0,1554.0,39616.0,3,Long
2021-07-25,38062.0,1194.0,39256.0,3,Long
2021-07-26,38062.0,1743.0,39805.0,3,Long
2021-07-27,38062.0,1431.0,39493.0,3,Long
2021-07-28,38062.0,1272.0,39334.0,3,Long
2021-07-29,38062.0,1413.0,39475.0,3,Long
2021-07-30,38062.0,1471.0,39533.0,4,Long
2021-08-01,38062.0,1919.0,39981.0,4,Long
2021-08-02,38062.0,1175.0,39237.0,4,Long
2021-08-03,38062.0,1847.0,39909.0,4,Long
2021-08-04,38062.0,979.0,39041.0,4,Long
2021-08-05,38062.0,1647.0,39709.0,4,Long
2021-08-06,38062.0,2363.0,40425.0,4,Long
2021-08-08,38062.0,2175.0,40237.0,4,Long
2021-08-09,38062.0,1739.0,39801.0,4,Long
2021-08-10,38062.0,2539.0,40601.0,4,Long
2021-08-11,38062.0,3547.0,41609.0,4,Long
2021-08-12,38062.0,3603.0,41665.0,4,Long
2021-08-13,38062.0,3604.0,41666.0,5,Long
2021-08-15,38062.0,3029.0,41091.0,5,Long
2021-08-16,38062.0,3759.0,41821.0,5,Long
2021-08-17,38062.0,2904.0,40966.0,5,Long
2021-08-18,38062.0,949.0,39011.0,5,Long
2021-08-19,38062.0,489.0,38551.0,5,Long
2021-08-20,38062.0,1879.0,39941.0,5,Long
2021-08-22,38062.0,2544.0,40606.0,5,Long
2021-08-23,38062.0,3319.0,41381.0,5,Long
2021-08-24,38062.0,2929.0,40991.0,5,Long
2021-08-25,38062.0,3209.0,41271.0,5,Long
2021-08-26,38062.0,2614.0,40676.0,5,Long
2021-08-27,38062.0,3649.0,41711.0,6,Long
2021-08-29,38062.0,3751.0,41813.0,6,Long
2021-08-30,38062.0,3565.0,41627.0,6,Long
2021-08-31,38062.0,3757.0,41819.0,6,Long
2021-09-01,38062.0,2653.0,40715.0,6,Long
2021-09-02,38062.0,4051.0,42113.0,6,Long
2021-09-03,38062.0,3217.0,41279.0,6,Long
2021-09-05,38062.0,3271.0,41333.0,6,Long
2021-09-06,38062.0,3589.0,41651.0,6,Long
2021-09-07,38062.0,1663.0,39725.0,6,Long
2021-09-08,38062.0,661.0,38723.0,6,Long
2021-09-09,38062.0,925.0,38987.0,6,Long
2021-09-10,38279.0,0.0,38279.0,0,
2021-09-12,38279.0,0.0,38279.0,0,
2021-09-13,38279.0,0.0,38279.0,0,
2021-09-14,38279.0,0.0,38279.0,0,
2021-09-15,38279.0,0.0,38279.0,0,
2021-09-16,38279.0,0.0,38279.0,0,
2021-09-17,38279.0,0.0,38279.0,0,
2021-09-19,38279.0,0.0,38279.0,0,
2021-09-20,38279.0,0.0,38279.0,0,
2021-09-21,38279.0,0.0,38279.0,0,
2021-09-22,38279.0,0.0,38279.0,0,
2021-09-23,38279.0,0.0,38279.0,0,
2021-09-24,38279.0,0.0,38279.0,0,
2021-09-26,38279.0,0.0,38279.0,0,
2021-09-27,38279.0,0.0,38279.0,0,
2021-09-28,38279.0,0.0,38279.0,0,
2021-09-29,38279.0,0.0,38279.0,0,
2021-09-30,38279.0,0.0,38279.0,0,
2021-10-01,38279.0,0.0,38279.0,0,
2021-10-03,38279.0,0.0,38279.0,0,
2021-10-04,38279.0,0.0,38279.0,0,
2021-10-05,38279.0,0.0,38279.0,0,
2021-10-06,38279.0,0.0,38279.0,0,
2021-10-07,38279.0,0.0,38279.0,0,
2021-10-08,38279.0,0.0,38279.0,0,
2021-10-10,38279.0,0.0,38279.0,0,
2021-10-11,38279.0,0.0,38279.0,0,
2021-10-12,38279.0,0.0,38279.0,0,
2021-10-13,38279.0,0.0,38279.0,0,
2021-10-14,38279.0,0.0,38279.0,0,
2021-10-15,38279.0,900.0,39179.0,3,Long
2021-10-17,38279.0,888.0,39167.0,3,Long
2021-10-18,38279.0,687.0,38966.0,3,Long
2021-10-19,38279.0,1338.0,39617.0,3,Long
2021-10-20,38279.0,1632.0,39911.0,3,Long
2021-10-21,38279.0,1881.0,40160.0,3,Long
2021-10-22,38279.0,1806.0,40085.0,3,Long
2021-10-24,38279.0,2013.0,40292.0,3,Long
2021-10-25,38279.0,2328.0,40607.0,3,Long
2021-10-26,38279.0,2244.0,40523.0,3,Long
2021-10-27,38279.0,1650.0,39929.0,3,Long
2021-10-28,38279.0,2085.0,40364.0,3,Long
2021-10-29,38279.0,2603.0,40882.0,4,Long
2021-10-31,38279.0,2771.0,41050.0,4,Long
2021-11-01,38279.0,2519.0,40798.0,4,Long
2021-11-02,38279.0,3211.0,41490.0,4,Long
2021-11-03,38279.0,3675.0,41954.0,4,Long
2021-11-04,38279.0,3583.0,41862.0,4,Long
2021-11-05,38279.0,4311.0,42590.0,4,Long
2021-11-07,38279.0,4359.0,42638.0,4,Long
2021-11-08,38279.0,4511.0,42790.0,4,Long
2021-11-09,38279.0,3979.0,42258.0,4,Long
2021-11-10,38279.0,3459.0,41738.0,4,Long
2021-11-11,38279.0,3159.0,41438.0,4,Long
2021-11-12,38279.0,3764.0,42043.0,5,Long
2021-11-14,38279.0,3674.0,41953.0,5,Long
2021-11-15,38279.0,3674.0,41953.0,5,Long
2021-11-16,38279.0,3959.0,42238.0,5,Long
2021-11-17,38279.0,2974.0,41253.0,5,Long
2021-11-18,38279.0,3284.0,41563.0,5,Long
2021-11-19,38279.0,1559.0,39838.0,5,Long
2021-11-21,38279.0,1934.0,40213.0,5,Long
2021-11-22,38279.0,1659.0,39938.0,5,Long
2021-11-23,38279.0,2074.0,40353.0,5,Long
2021-11-24,38279.0,2974.0,41253.0,5,Long
2021-11-25,41258.0,0.0,41258.0,0,
2021-11-26,41258.0,0.0,41258.0,0,
2021-11-28,41258.0,0.0,41258.0,0,
2021-11-29,41258.0,0.0,41258.0,0,
2021-11-30,41258.0,0.0,41258.0,0,
2021-12-01,41258.0,0.0,41258.0,0,
2021-12-02,41258.0,0.0,41258.0,0,
2021-12-03,41258.0,0.0,41258.0,0,
2021-12-05,41258.0,0.0,41258.0,0,
2021-12-06,41258.0,0.0,41258.0,0,
2021-12-07,41258.0,0.0,41258.0,0,
2021-12-08,41258.0,-369.0,40889.0,3,Long
2021-12-09,40886.0,0.0,40886.0,0,
2021-12-10,40886.0,0.0,40886.0,0,
2021-12-12,40886.0,357.0,41243.0,3,Long
2021-12-13,40886.0,-891.0,39995.0,3,Long
2021-12-14,39989.0,0.0,39989.0,0,
2021-12-15,39989.0,0.0,39989.0,0,
2021-12-16,39989.0,-303.0,39686.0,3,Long
2021-12-17,39689.0,0.0,39689.0,0,
2021-12-19,39689.0,0.0,39689.0,0,
2021-12-20,39689.0,0.0,39689.0,0,
2021-12-21,39689.0,0.0,39689.0,0,
2021-12-22,39689.0,0.0,39689.0,0,
2021-12-23,39689.0,0.0,39689.0,0,
2021-12-26,39689.0,-36.0,39653.0,3,Long
2021-12-27,39689.0,903.0,40592.0,3,Long
2021-12-28,39689.0,1356.0,41045.0,3,Long
2021-12-29,39689.0,1566.0,41255.0,3,Long
2021-12-30,39689.0,1134.0,40823.0,3,Long
2021-12-31,39689.0,1236.0,40925.0,3,Long
2022-01-02,39689.0,1506.0,41195.0,3,Long
2022-01-03,39689.0,1980.0,41669.0,3,Long
2022-01-04,39689.0,2268.0,41957.0,3,Long
2022-01-05,39689.0,999.0,40688.0,3,Long
2022-01-06,39689.0,1062.0,40751.0,3,Long
2022-01-07,39689.0,797.0,40486.0,4,Long
2022-01-09,39689.0,745.0,40434.0,4,Long
2022-01-10,39689.0,113.0,39802.0,4,Long
2022-01-11,39689.0,981.0,40670.0,4,Long
2022-01-12,39689.0,805.0,40494.0,4,Long
2022-01-13,39689.0,373.0,40062.0,4,Long
2022-01-14,39689.0,-359.0,39330.0,4,Long
2022-01-16,39689.0,-731.0,38958.0,4,Long
2022-01-17,38954.0,0.0,38954.0,0,
2022-01-18,38954.0,0.0,38954.0,0,
2022-01-19,38954.0,0.0,38954.0,0,
2022-01-20,38954.0,0.0,38954.0,0,
2022-01-21,38954.0,0.0,38954.0,0,
2022-01-23,38954.0,0.0,38954.0,0,
2022-01-24,38954.0,0.0,38954.0,0,
2022-01-25,38954.0,0.0,38954.0,0,
2022-01-26,38954.0,0.0,38954.0,0,
2022-01-27,38954.0,0.0,38954.0,0,
2022-01-28,38954.0,0.0,38954.0,0,
2022-01-30,38954.0,0.0,38954.0,0,
2022-01-31,38954.0,0.0,38954.0,0,
2022-02-01,38954.0,0.0,38954.0,0,
2022-02-02,38954.0,0.0,38954.0,0,
2022-02-03,38954.0,-933.0,38021.0,3,Long
2022-02-04,38018.0,0.0,38018.0,0,
2022-02-06,38018.0,0.0,38018.0,0,
2022-02-07,38018.0,0.0,38018.0,0,
2022-02-08,38018.0,0.0,38018.0,0,
2022-02-09,38018.0,489.0,38507.0,3,Long
2022-02-10,38018.0,-1680.0,36338.0,3,Long
2022-02-11,36341.0,0.0,36341.0,0,
2022-02-13,36341.0,0.0,36341.0,0,
2022-02-14,36341.0,0.0,36341.0,0,
2022-02-15,36341.0,0.0,36341.0,0,
2022-02-16,36341.0,0.0,36341.0,0,
2022-02-17,36341.0,0.0,36341.0,0,
2022-02-18,36341.0,0.0,36341.0,0,
2022-02-20,36341.0,0.0,36341.0,0,
2022-02-21,36341.0,0.0,36341.0,0,
2022-02-22,36341.0,0.0,36341.0,0,
2022-02-23,36341.0,0.0,36341.0,0,
2022-02-24,36341.0,0.0,36341.0,0,
2022-02-25,36341.0,0.0,36341.0,0,
2022-02-27,36341.0,0.0,36341.0,0,
2022-02-28,36341.0,0.0,36341.0,0,
2022-03-01,36341.0,0.0,36341.0,0,
2022-03-02,36341.0,0.0,36341.0,0,
2022-03-03,36341.0,0.0,36341.0,0,
2022-03-04,36341.0,0.0,36341.0,0,
2022-03-06,36341.0,0.0,36341.0,0,
2022-03-07,36341.0,0.0,36341.0,0,
2022-03-08,36341.0,0.0,36341.0,0,
2022-03-09,36341.0,0.0,36341.0,0,
2022-03-10,36341.0,0.0,36341.0,0,
2022-03-11,36341.0,0.0,36341.0,0,
2022-03-13,36341.0,0.0,36341.0,0,
2022-03-14,36341.0,0.0,36341.0,0,
2022-03-15,36341.0,0.0,36341.0,0,
2022-03-16,36341.0,0.0,36341.0,0,
2022-03-17,36341.0,0.0,36341.0,0,
2022-03-18,36341.0,0.0,36341.0,0,
2022-03-20,36341.0,0.0,36341.0,0,
2022-03-21,36341.0,0.0,36341.0,0,
2022-03-22,36341.0,0.0,36341.0,0,
2022-03-23,36341.0,0.0,36341.0,0,
2022-03-24,36341.0,0.0,36341.0,0,
2022-03-25,36341.0,0.0,36341.0,0,
2022-03-27,36341.0,0.0,36341.0,0,
2022-03-28,36341.0,0.0,36341.0,0,
2022-03-29,36341.0,789.0,37130.0,3,Long
2022-03-30,36341.0,816.0,37157.0,3,Long
2022-03-31,36341.0,-432.0,35909.0,3,Long
2022-04-01,35903.0,0.0,35903.0,0,
2022-04-03,35903.0,0.0,35903.0,0,
2022-04-04,35903.0,0.0,35903.0,0,
2022-04-05,35903.0,0.0,35903.0,0,
2022-04-06,35903.0,0.0,35903.0,0,
2022-04-07,35903.0,0.0,35903.0,0,
2022-04-08,35903.0,0.0,35903.0,0,
2022-04-10,35903.0,0.0,35903.0,0,
2022-04-11,35903.0,0.0,35903.0,0,
2022-04-12,35903.0,0.0,35903.0,0,
2022-04-13,35903.0,0.0,35903.0,0,
2022-04-14,35903.0,0.0,35903.0,0,
2022-04-17,35903.0,0.0,35903.0,0,
2022-04-18,35903.0,0.0,35903.0,0,
2022-04-19,35903.0,0.0,35903.0,0,
2022-04-20,35903.0,0.0,35903.0,0,
2022-04-21,35903.0,-1734.0,34169.0,3,Long
2022-04-22,34172.0,0.0,34172.0,0,
2022-04-24,34172.0,0.0,34172.0,0,
2022-04-25,34172.0,0.0,34172.0,0,
2022-04-26,34172.0,0.0,34172.0,0,
2022-04-27,34172.0,0.0,34172.0,0,
2022-04-28,34172.0,0.0,34172.0,0,
2022-04-29,34172.0,0.0,34172.0,0,
2022-05-01,34172.0,0.0,34172.0,0,
2022-05-02,34172.0,0.0,34172.0,0,
2022-05-03,34172.0,0.0,34172.0,0,
2022-05-04,34172.0,0.0,34172.0,0,
2022-05-05,34172.0,0.0,34172.0,0,
2022-05-06,34172.0,0.0,34172.0,0,
2022-05-08,34172.0,0.0,34172.0,0,
2022-05-09,34172.0,0.0,34172.0,0,
2022-05-10,34172.0,0.0,34172.0,0,
2022-05-11,34172.0,0.0,34172.0,0,
2022-05-12,34172.0,0.0,34172.0,0,
2022-05-13,34172.0,0.0,34172.0,0,
2022-05-15,34172.0,0.0,34172.0,0,
2022-05-16,34172.0,0.0,34172.0,0,
2022-05-17,34172.0,0.0,34172.0,0,
2022-05-18,34172.0,0.0,34172.0,0,
2022-05-19,34172.0,0.0,34172.0,0,
2022-05-20,34172.0,0.0,34172.0,0,
2022-05-22,34172.0,0.0,34172.0,0,
2022-05-23,34172.0,0.0,34172.0,0,
2022-05-24,34172.0,0.0,34172.0,0,
2022-05-25,34172.0,0.0,34172.0,0,
2022-05-26,34172.0,0.0,34172.0,0,
2022-05-27,34172.0,0.0,34172.0,0,
2022-05-29,34172.0,18.0,34190.0,3,Long
2022-05-30,34172.0,-90.0,34082.0,3,Long
2022-05-31,34085.0,0.0,34085.0,0,
2022-06-01,34085.0,0.0,34085.0,0,
2022-06-02,34085.0,0.0,34085.0,0,
2022-06-03,34085.0,-990.0,33095.0,3,Long
2022-06-05,33215.0,0.0,33215.0,0,
2022-06-06,33215.0,0.0,33215.0,0,
2022-06-07,33215.0,0.0,33215.0,0,
2022-06-08,33215.0,0.0,33215.0,0,
2022-06-09,33215.0,0.0,33215.0,0,
2022-06-10,33215.0,0.0,33215.0,0,
2022-06-12,33215.0,0.0,33215.0,0,
2022-06-13,33215.0,0.0,33215.0,0,
2022-06-14,33215.0,0.0,33215.0,0,
2022-06-15,33215.0,0.0,33215.0,0,
2022-06-16,33215.0,0.0,33215.0,0,
2022-06-17,33215.0,0.0,33215.0,0,
2022-06-19,33215.0,0.0,33215.0,0,
2022-06-20,33215.0,0.0,33215.0,0,
2022-06-21,33215.0,0.0,33215.0,0,
2022-06-22,33215.0,0.0,33215.0,0,
2022-06-23,33215.0,0.0,33215.0,0,
2022-06-24,33215.0,0.0,33215.0,0,
2022-06-26,33215.0,0.0,33215.0,0,
2022-06-27,33215.0,0.0,33215.0,0,
2022-06-28,33215.0,0.0,33215.0,0,
2022-06-29,33215.0,0.0,33215.0,0,
2022-06-30,33215.0,0.0,33215.0,0,
2022-07-01,33215.0,0.0,33215.0,0,
2022-07-03,33215.0,0.0,33215.0,0,
2022-07-04,33215.0,0.0,33215.0,0,
2022-07-05,33215.0,0.0,33215.0,0,
2022-07-06,33215.0,0.0,33215.0,0,
2022-07-07,33215.0,0.0,33215.0,0,
2022-07-08,33215.0,0.0,33215.0,0,
2022-07-10,33215.0,0.0,33215.0,0,
2022-07-11,33215.0,0.0,33215.0,0,
2022-07-12,33215.0,0.0,33215.0,0,
2022-07-13,33215.0,0.0,33215.0,0,
2022-07-14,33215.0,0.0,33215.0,0,
2022-07-15,33215.0,0.0,33215.0,0,
2022-07-17,33215.0,0.0,33215.0,0,
2022-07-18,33215.0,0.0,33215.0,0,
2022-07-19,33215.0,0.0,33215.0,0,
2022-07-20,33215.0,-414.0,32801.0,3,Long
2022-07-21,32795.0,0.0,32795.0,0,
2022-07-22,32795.0,-333.0,32462.0,3,Long
2022-07-24,32510.0,0.0,32510.0,0,
2022-07-25,32510.0,0.0,32510.0,0,
2022-07-26,32510.0,0.0,32510.0,0,
2022-07-27,32510.0,0.0,32510.0,0,
2022-07-28,32510.0,1143.0,33653.0,3,Long
2022-07-29,32510.0,2076.0,34586.0,3,Long
2022-07-31,32510.0,1665.0,34175.0,3,Long
2022-08-01,32510.0,1650.0,34160.0,3,Long
2022-08-02,32510.0,957.0,33467.0,3,Long
2022-08-03,32510.0,1905.0,34415.0,3,Long
2022-08-04,32510.0,1953.0,34463.0,3,Long
2022-08-05,32510.0,1760.0,34270.0,4,Long
2022-08-07,32510.0,1780.0,34290.0,4,Long
2022-08-08,32510.0,2396.0,34906.0,4,Long
2022-08-09,32510.0,1808.0,34318.0,4,Long
2022-08-10,32510.0,4340.0,36850.0,4,Long
2022-08-11,32510.0,4264.0,36774.0,4,Long
2022-08-12,32510.0,5768.0,38278.0,4,Long
2022-08-14,32510.0,5496.0,38006.0,4,Long
2022-08-15,32510.0,6388.0,38898.0,4,Long
2022-08-16,32510.0,7400.0,39910.0,4,Long
2022-08-17,32510.0,6668.0,39178.0,4,Long
2022-08-18,32510.0,6648.0,39158.0,4,Long
2022-08-19,32510.0,5692.0,38202.0,5,Long
2022-08-21,32510.0,5092.0,37602.0,5,Long
2022-08-22,32510.0,2722.0,35232.0,5,Long
2022-08-23,35237.0,0.0,35237.0,0,
2022-08-24,35237.0,0.0,35237.0,0,
2022-08-25,35237.0,0.0,35237.0,0,
2022-08-26,35237.0,0.0,35237.0,0,
2022-08-28,35237.0,0.0,35237.0,0,
2022-08-29,35237.0,0.0,35237.0,0,
2022-08-30,35237.0,0.0,35237.0,0,
2022-08-31,35237.0,0.0,35237.0,0,
2022-09-01,35237.0,0.0,35237.0,0,
2022-09-02,35237.0,0.0,35237.0,0,
2022-09-04,35237.0,0.0,35237.0,0,
2022-09-05,35237.0,0.0,35237.0,0,
2022-09-06,35237.0,0.0,35237.0,0,
2022-09-07,35237.0,0.0,35237.0,0,
2022-09-08,35237.0,0.0,35237.0,0,
2022-09-09,35237.0,0.0,35237.0,0,
2022-09-11,35237.0,0.0,35237.0,0,
2022-09-12,35237.0,0.0,35237.0,0,
2022-09-13,35237.0,0.0,35237.0,0,
2022-09-14,35237.0,0.0,35237.0,0,
2022-09-15,35237.0,0.0,35237.0,0,
2022-09-16,35237.0,0.0,35237.0,0,
2022-09-18,35237.0,0.0,35237.0,0,
2022-09-19,35237.0,0.0,35237.0,0,
2022-09-20,35237.0,0.0,35237.0,0,
2022-09-21,35237.0,0.0,35237.0,0,
2022-09-22,35237.0,0.0,35237.0,0,
2022-09-23,35237.0,0.0,35237.0,0,
2022-09-25,35237.0,0.0,35237.0,0,
2022-09-26,35237.0,0.0,35237.0,0,
2022-09-27,35237.0,0.0,35237.0,0,
2022-09-28,35237.0,0.0,35237.0,0,
2022-09-29,35237.0,0.0,35237.0,0,
2022-09-30,35237.0,0.0,35237.0,0,
2022-10-02,35237.0,0.0,35237.0,0,
2022-10-03,35237.0,0.0,35237.0,0,
2022-10-04,35237.0,0.0,35237.0,0,
2022-10-05,35237.0,0.0,35237.0,0,
2022-10-06,35237.0,0.0,35237.0,0,
2022-10-07,35237.0,0.0,35237.0,0,
2022-10-09,35237.0,0.0,35237.0,0,
2022-10-10,35237.0,0.0,35237.0,0,
2022-10-11,35237.0,0.0,35237.0,0,
2022-10-12,35237.0,0.0,35237.0,0,
2022-10-13,35237.0,0.0,35237.0,0,
2022-10-14,35237.0,0.0,35237.0,0,
2022-10-16,35237.0,0.0,35237.0,0,
2022-10-17,35237.0,0.0,35237.0,0,
2022-10-18,35237.0,423.0,35660.0,3,Long
2022-10-19,35237.0,-666.0,34571.0,3,Long
2022-10-20,34565.0,0.0,34565.0,0,
2022-10-21,34565.0,0.0,34565.0,0,
2022-10-23,34565.0,-189.0,34376.0,3,Long
2022-10-24,34565.0,1065.0,35630.0,3,Long
2022-10-25,34565.0,1854.0,36419.0,3,Long
2022-10-26,34565.0,2598.0,37163.0,3,Long
2022-10-27,34565.0,2748.0,37313.0,3,Long
2022-10-28,34565.0,5406.0,39971.0,3,Long
2022-10-30,34565.0,5082.0,39647.0,3,Long
2022-10-31,34565.0,5088.0,39653.0,3,Long
2022-11-01,34565.0,4617.0,39182.0,3,Long
2022-11-02,34565.0,3150.0,37715.0,3,Long
2022-11-03,34565.0,2427.0,36992.0,3,Long
2022-11-04,34565.0,3568.0,38133.0,4,Long
2022-11-06,34565.0,3608.0,38173.0,4,Long
2022-11-07,34565.0,5444.0,40009.0,4,Long
2022-11-08,34565.0,6720.0,41285.0,4,Long
2022-11-09,34565.0,4380.0,38945.0,4,Long
2022-11-10,34565.0,9236.0,43801.0,4,Long
2022-11-11,34565.0,9092.0,43657.0,4,Long
2022-11-13,34565.0,8812.0,43377.0,4,Long
2022-11-14,34565.0,8736.0,43301.0,4,Long
2022-11-15,34565.0,8236.0,42801.0,4,Long
2022-11-16,34565.0,8428.0,42993.0,4,Long
2022-11-17,34565.0,8168.0,42733.0,4,Long
2022-11-18,34565.0,9071.0,43636.0,5,Long
2022-11-20,34565.0,8746.0,43311.0,5,Long
2022-11-21,34565.0,9016.0,43581.0,5,Long
2022-11-22,34565.0,10866.0,45431.0,5,Long
2022-11-23,34565.0,11541.0,46106.0,5,Long
2022-11-24,34565.0,11476.0,46041.0,5,Long
2022-11-25,34565.0,12136.0,46701.0,5,Long
2022-11-27,34565.0,11236.0,45801.0,5,Long
2022-11-28,34565.0,9931.0,44496.0,5,Long
2022-11-29,34565.0,9726.0,44291.0,5,Long
2022-11-30,34565.0,13276.0,47841.0,5,Long
2022-12-01,34565.0,12156.0,46721.0,5,Long
2022-12-02,34565.0,12202.0,46767.0,6,Long
2022-12-04,34565.0,12454.0,47019.0,6,Long
2022-12-05,34565.0,10000.0,44565.0,6,Long
2022-12-06,34565.0,7972.0,42537.0,6,Long
2022-12-07,34565.0,7480.0,42045.0,6,Long
2022-12-08,34565.0,8950.0,43515.0,6,Long
2022-12-09,34565.0,6760.0,41325.0,6,Long
2022-12-11,34565.0,8236.0,42801.0,6,Long
2022-12-12,34565.0,11488.0,46053.0,6,Long
2022-12-13,34565.0,12766.0,47331.0,6,Long
2022-12-14,34565.0,11410.0,45975.0,6,Long
2022-12-15,34565.0,6244.0,40809.0,6,Long
2022-12-16,40821.0,0.0,40821.0,0,
2022-12-18,40821.0,0.0,40821.0,0,
2022-12-19,40821.0,0.0,40821.0,0,
2022-12-20,40821.0,0.0,40821.0,0,
2022-12-21,40821.0,0.0,40821.0,0,
2022-12-22,40821.0,0.0,40821.0,0,
2022-12-23,40821.0,0.0,40821.0,0,
2022-12-26,40821.0,0.0,40821.0,0,
2022-12-27,40821.0,0.0,40821.0,0,
2022-12-28,40821.0,0.0,40821.0,0,
2022-12-29,40821.0,0.0,40821.0,0,
2022-12-30,40821.0,0.0,40821.0,0,
2023-01-02,40821.0,0.0,40821.0,0,
2023-01-03,40821.0,0.0,40821.0,0,
2023-01-04,40821.0,0.0,40821.0,0,
2023-01-05,40821.0,0.0,40821.0,0,
2023-01-06,40821.0,0.0,40821.0,0,
2023-01-08,40821.0,0.0,40821.0,0,
2023-01-09,40821.0,0.0,40821.0,0,
2023-01-10,40821.0,0.0,40821.0,0,
2023-01-11,40821.0,0.0,40821.0,0,
2023-01-12,40821.0,0.0,40821.0,0,
2023-01-13,40821.0,0.0,40821.0,0,
2023-01-15,40821.0,0.0,40821.0,0,
2023-01-16,40821.0,0.0,40821.0,0,
2023-01-17,40821.0,0.0,40821.0,0,
2023-01-18,40821.0,0.0,40821.0,0,
2023-01-19,40821.0,0.0,40821.0,0,
2023-01-20,40821.0,0.0,40821.0,0,
2023-01-22,40821.0,0.0,40821.0,0,
2023-01-23,40821.0,0.0,40821.0,0,
2023-01-24,40821.0,0.0,40821.0,0,
2023-01-25,40821.0,0.0,40821.0,0,
2023-01-26,40821.0,0.0,40821.0,0,
2023-01-27,40821.0,0.0,40821.0,0,
2023-01-29,40821.0,0.0,40821.0,0,
2023-01-30,40821.0,0.0,40821.0,0,
2023-01-31,40821.0,0.0,40821.0,0,
2023-02-01,40821.0,0.0,40821.0,0,
2023-02-02,40821.0,0.0,40821.0,0,
2023-02-03,40821.0,0.0,40821.0,0,
2023-02-05,40821.0,0.0,40821.0,0,
2023-02-06,40821.0,0.0,40821.0,0,
2023-02-07,40821.0,0.0,40821.0,0,
2023-02-08,40821.0,0.0,40821.0,0,
2023-02-09,40821.0,0.0,40821.0,0,
2023-02-10,40821.0,0.0,40821.0,0,
2023-02-12,40821.0,0.0,40821.0,0,
2023-02-13,40821.0,0.0,40821.0,0,
2023-02-14,40821.0,0.0,40821.0,0,
2023-02-15,40821.0,0.0,40821.0,0,
2023-02-16,40821.0,0.0,40821.0,0,
2023-02-17,40821.0,0.0,40821.0,0,
2023-02-19,40821.0,0.0,40821.0,0,
2023-02-20,40821.0,0.0,40821.0,0,
2023-02-21,40821.0,0.0,40821.0,0,
2023-02-22,40821.0,0.0,40821.0,0,
2023-02-23,40821.0,0.0,40821.0,0,
2023-02-24,40821.0,0.0,40821.0,0,
2023-02-26,40821.0,0.0,40821.0,0,
2023-02-27,40821.0,0.0,40821.0,0,
2023-02-28,40821.0,0.0,40821.0,0,
2023-03-01,40821.0,0.0,40821.0,0,
2023-03-02,40821.0,0.0,40821.0,0,
2023-03-03,40821.0,0.0,40821.0,0,
2023-03-05,40821.0,0.0,40821.0,0,
2023-03-06,40821.0,0.0,40821.0,0,
2023-03-07,40821.0,0.0,40821.0,0,
2023-03-08,40821.0,0.0,40821.0,0,
2023-03-09,40821.0,0.0,40821.0,0,
2023-03-10,40821.0,0.0,40821.0,0,
2023-03-12,40821.0,0.0,40821.0,0,
2023-03-13,40821.0,0.0,40821.0,0,
2023-03-14,40821.0,0.0,40821.0,0,
2023-03-15,40821.0,0.0,40821.0,0,
2023-03-16,40821.0,0.0,40821.0,0,
2023-03-17,40821.0,0.0,40821.0,0,
2023-03-19,40821.0,0.0,40821.0,0,
2023-03-20,40821.0,0.0,40821.0,0,
2023-03-21,40821.0,0.0,40821.0,0,
2023-03-22,40821.0,0.0,40821.0,0,
2023-03-23,40821.0,0.0,40821.0,0,
2023-03-24,40821.0,0.0,40821.0,0,
2023-03-26,40821.0,0.0,40821.0,0,
2023-03-27,40821.0,0.0,40821.0,0,
2023-03-28,40821.0,0.0,40821.0,0,
2023-03-29,40821.0,0.0,40821.0,0,
2023-03-30,40821.0,0.0,40821.0,0,
2023-03-31,40821.0,0.0,40821.0,0,
2023-04-02,40821.0,36.0,40857.0,3,Long
2023-04-03,40821.0,1023.0,41844.0,3,Long
2023-04-04,40821.0,471.0,41292.0,3,Long
2023-04-05,40821.0,471.0,41292.0,3,Long
2023-04-06,40821.0,522.0,41343.0,3,Long
2023-04-07,40821.0,825.0,41646.0,3,Long
2023-04-09,40821.0,705.0,41526.0,3,Long
2023-04-10,40821.0,1053.0,41874.0,3,Long
2023-04-11,40821.0,1281.0,42102.0,3,Long
2023-04-12,40821.0,1080.0,41901.0,3,Long
2023-04-13,40821.0,2100.0,42921.0,3,Long
2023-04-14,40821.0,2004.0,42825.0,4,Long
2023-04-16,40821.0,2012.0,42833.0,4,Long
2023-04-17,40821.0,2116.0,42937.0,4,Long
2023-04-18,40821.0,1912.0,42733.0,4,Long
2023-04-19,40821.0,1708.0,42529.0,4,Long
2023-04-20,40821.0,1244.0,42065.0,4,Long
2023-04-21,40821.0,1344.0,42165.0,4,Long
2023-04-23,40821.0,996.0,41817.0,4,Long
2023-04-24,40821.0,1432.0,42253.0,4,Long
2023-04-25,40821.0,376.0,41197.0,4,Long
2023-04-26,40821.0,-572.0,40249.0,4,Long
2023-04-27,40821.0,1168.0,41989.0,4,Long
2023-04-28,40821.0,2572.0,43393.0,5,Long
2023-04-30,40821.0,2552.0,43373.0,5,Long
2023-05-01,40821.0,2237.0,43058.0,5,Long
2023-05-02,40821.0,622.0,41443.0,5,Long
2023-05-03,40821.0,-868.0,39953.0,5,Long
2023-05-04,39953.0,0.0,39953.0,0,
2023-05-05,39953.0,0.0,39953.0,0,
2023-05-07,39953.0,0.0,39953.0,0,
2023-05-08,39953.0,0.0,39953.0,0,
2023-05-09,39953.0,0.0,39953.0,0,
2023-05-10,39953.0,0.0,39953.0,0,
2023-05-11,39953.0,0.0,39953.0,0,
2023-05-12,39953.0,0.0,39953.0,0,
2023-05-14,39953.0,0.0,39953.0,0,
2023-05-15,39953.0,0.0,39953.0,0,
2023-05-16,39953.0,0.0,39953.0,0,
2023-05-17,39953.0,0.0,39953.0,0,
2023-05-18,39953.0,0.0,39953.0,0,
2023-05-19,39953.0,0.0,39953.0,0,
2023-05-21,39953.0,0.0,39953.0,0,
2023-05-22,39953.0,0.0,39953.0,0,
2023-05-23,39953.0,0.0,39953.0,0,
2023-05-24,39953.0,0.0,39953.0,0,
2023-05-25,39953.0,0.0,39953.0,0,
2023-05-26,39953.0,0.0,39953.0,0,
2023-05-28,39953.0,0.0,39953.0,0,
2023-05-29,39953.0,0.0,39953.0,0,
2023-05-30,39953.0,0.0,39953.0,0,
2023-05-31,39953.0,0.0,39953.0,0,
2023-06-01,39953.0,0.0,39953.0,0,
2023-06-02,39953.0,0.0,39953.0,0,
2023-06-04,39953.0,45.0,39998.0,3,Long
2023-06-05,39953.0,-606.0,39347.0,3,Long
2023-06-06,39347.0,0.0,39347.0,0,
2023-06-07,39347.0,0.0,39347.0,0,
2023-06-08,39347.0,0.0,39347.0,0,
2023-06-09,39347.0,198.0,39545.0,3,Long
2023-06-11,39347.0,258.0,39605.0,3,Long
2023-06-12,39347.0,1758.0,41105.0,3,Long
2023-06-13,39347.0,1875.0,41222.0,3,Long
2023-06-14,39347.0,1329.0,40676.0,3,Long
2023-06-15,39347.0,2622.0,41969.0,3,Long
2023-06-16,39347.0,2313.0,41660.0,3,Long
2023-06-18,39347.0,2157.0,41504.0,3,Long
2023-06-19,39347.0,1962.0,41309.0,3,Long
2023-06-20,39347.0,1575.0,40922.0,3,Long
2023-06-21,39347.0,1209.0,40556.0,3,Long
2023-06-22,39347.0,738.0,40085.0,3,Long
2023-06-23,39347.0,378.0,39725.0,4,Long
2023-06-25,39347.0,706.0,40053.0,4,Long
2023-06-26,39347.0,622.0,39969.0,4,Long
2023-06-27,39347.0,1206.0,40553.0,4,Long
2023-06-28,39347.0,1018.0,40365.0,4,Long
2023-06-29,39347.0,1862.0,41209.0,4,Long
2023-06-30,39347.0,2950.0,42297.0,4,Long
2023-07-02,39347.0,3066.0,42413.0,4,Long
2023-07-03,39347.0,3074.0,42421.0,4,Long
2023-07-04,39347.0,2902.0,42249.0,4,Long
2023-07-05,39347.0,2110.0,41457.0,4,Long
2023-07-06,39347.0,1034.0,40381.0,4,Long
2023-07-07,39347.0,386.0,39733.0,5,Long
2023-07-09,39347.0,-9.0,39338.0,5,Long
2023-07-10,39347.0,1326.0,40673.0,5,Long
2023-07-11,39347.0,2766.0,42113.0,5,Long
2023-07-12,39347.0,3616.0,42963.0,5,Long
2023-07-13,39347.0,3231.0,42578.0,5,Long
2023-07-14,39347.0,3831.0,43178.0,5,Long
2023-07-16,39347.0,3816.0,43163.0,5,Long
2023-07-17,39347.0,4301.0,43648.0,5,Long
2023-07-18,39347.0,6326.0,45673.0,5,Long
2023-07-19,39347.0,6801.0,46148.0,5,Long
2023-07-20,39347.0,7781.0,47128.0,5,Long
2023-07-21,39347.0,7426.0,46773.0,6,Long
2023-07-23,39347.0,7408.0,46755.0,6,Long
2023-07-24,39347.0,8536.0,47883.0,6,Long
2023-07-25,39347.0,8566.0,47913.0,6,Long
2023-07-26,39347.0,9292.0,48639.0,6,Long
2023-07-27,39347.0,7798.0,47145.0,6,Long
2023-07-28,39347.0,8596.0,47943.0,6,Long
2023-07-30,39347.0,8296.0,47643.0,6,Long
2023-07-31,39347.0,9298.0,48645.0,6,Long
2023-08-01,39347.0,8980.0,48327.0,6,Long
2023-08-02,39347.0,7936.0,47283.0,6,Long
2023-08-03,39347.0,7360.0,46707.0,6,Long
2023-08-04,39347.0,6015.0,45362.0,7,Long
2023-08-06,39347.0,6778.0,46125.0,7,Long
2023-08-07,39347.0,8451.0,47798.0,7,Long
2023-08-08,39347.0,7674.0,47021.0,7,Long
2023-08-09,39347.0,7359.0,46706.0,7,Long
2023-08-10,39347.0,6771.0,46118.0,7,Long
2023-08-11,39347.0,7576.0,46923.0,7,Long
2023-08-13,39347.0,6953.0,46300.0,7,Long
2023-08-14,39347.0,7730.0,47077.0,7,Long
2023-08-15,39347.0,5119.0,44466.0,7,Long
2023-08-16,44473.0,0.0,44473.0,0,
2023-08-17,44473.0,0.0,44473.0,0,
2023-08-18,44473.0,0.0,44473.0,0,
2023-08-20,44473.0,0.0,44473.0,0,
2023-08-21,44473.0,0.0,44473.0,0,
2023-08-22,44473.0,0.0,44473.0,0,
2023-08-23,44473.0,0.0,44473.0,0,
2023-08-24,44473.0,0.0,44473.0,0,
2023-08-25,44473.0,0.0,44473.0,0,
2023-08-27,44473.0,0.0,44473.0,0,
2023-08-28,44473.0,0.0,44473.0,0,
2023-08-29,44473.0,0.0,44473.0,0,
2023-08-30,44473.0,0.0,44473.0,0,
2023-08-31,44473.0,0.0,44473.0,0,
2023-09-01,44473.0,0.0,44473.0,0,
2023-09-03,44473.0,0.0,44473.0,0,
2023-09-04,44473.0,0.0,44473.0,0,
2023-09-05,44473.0,0.0,44473.0,0,
2023-09-06,44473.0,0.0,44473.0,0,
2023-09-07,44473.0,0.0,44473.0,0,
2023-09-08,44473.0,0.0,44473.0,0,
2023-09-10,44473.0,0.0,44473.0,0,
2023-09-11,44473.0,0.0,44473.0,0,
2023-09-12,44473.0,0.0,44473.0,0,
2023-09-13,44473.0,0.0,44473.0,0,
2023-09-14,44473.0,0.0,44473.0,0,
2023-09-15,44473.0,-1176.0,43297.0,3,Long
2023-09-17,43291.0,0.0,43291.0,0,
2023-09-18,43291.0,0.0,43291.0,0,
2023-09-19,43291.0,0.0,43291.0,0,
2023-09-20,43291.0,0.0,43291.0,0,
2023-09-21,43291.0,0.0,43291.0,0,
2023-09-22,43291.0,0.0,43291.0,0,
2023-09-24,43291.0,0.0,43291.0,0,
2023-09-25,43291.0,0.0,43291.0,0,
2023-09-26,43291.0,0.0,43291.0,0,
2023-09-27,43291.0,0.0,43291.0,0,
2023-09-28,43291.0,0.0,43291.0,0,
2023-09-29,43291.0,0.0,43291.0,0,
2023-10-01,43291.0,0.0,43291.0,0,
2023-10-02,43291.0,0.0,43291.0,0,
2023-10-03,43291.0,0.0,43291.0,0,
2023-10-04,43291.0,0.0,43291.0,0,
2023-10-05,43291.0,0.0,43291.0,0,
2023-10-06,43291.0,0.0,43291.0,0,
2023-10-08,43291.0,0.0,43291.0,0,
2023-10-09,43291.0,0.0,43291.0,0,
2023-10-10,43291.0,0.0,43291.0,0,
2023-10-11,43291.0,0.0,43291.0,0,
2023-10-12,43291.0,0.0,43291.0,0,
2023-10-13,43291.0,0.0,43291.0,0,
2023-10-15,43291.0,0.0,43291.0,0,
2023-10-16,43291.0,0.0,43291.0,0,
2023-10-17,43291.0,0.0,43291.0,0,
2023-10-18,43291.0,0.0,43291.0,0,
2023-10-19,43291.0,0.0,43291.0,0,
2023-10-20,43291.0,0.0,43291.0,0,
2023-10-22,43291.0,0.0,43291.0,0,
2023-10-23,43291.0,0.0,43291.0,0,
2023-10-24,43291.0,0.0,43291.0,0,
2023-10-25,43291.0,0.0,43291.0,0,
2023-10-26,43291.0,0.0,43291.0,0,
2023-10-27,43291.0,0.0,43291.0,0,
2023-10-29,43291.0,0.0,43291.0,0,
2023-10-30,43291.0,0.0,43291.0,0,
2023-10-31,43291.0,0.0,43291.0,0,
2023-11-01,43291.0,0.0,43291.0,0,
2023-11-02,43291.0,0.0,43291.0,0,
2023-11-03,43291.0,645.0,43936.0,3,Long
2023-11-05,43291.0,630.0,43921.0,3,Long
2023-11-06,43291.0,390.0,43681.0,3,Long
2023-11-07,43291.0,732.0,44023.0,3,Long
2023-11-08,43291.0,675.0,43966.0,3,Long
2023-11-09,43291.0,138.0,43429.0,3,Long
2023-11-10,43291.0,1050.0,44341.0,3,Long
2023-11-12,43291.0,792.0,44083.0,3,Long
2023-11-13,43291.0,1311.0,44602.0,3,Long
2023-11-14,43291.0,2973.0,46264.0,3,Long
2023-11-15,43291.0,3195.0,46486.0,3,Long
2023-11-16,43291.0,3327.0,46618.0,3,Long
2023-11-17,43291.0,3125.0,46416.0,4,Long
2023-11-19,43291.0,3173.0,46464.0,4,Long
2023-11-20,43291.0,4085.0,47376.0,4,Long
2023-11-21,43291.0,3881.0,47172.0,4,Long
2023-11-22,43291.0,4369.0,47660.0,4,Long
2023-11-23,43291.0,4521.0,47812.0,4,Long
2023-11-24,43291.0,4913.0,48204.0,4,Long
2023-11-26,43291.0,4573.0,47864.0,4,Long
2023-11-27,43291.0,4697.0,47988.0,4,Long
2023-11-28,43291.0,5173.0,48464.0,4,Long
2023-11-29,43291.0,5641.0,48932.0,4,Long
2023-11-30,43291.0,7301.0,50592.0,4,Long
2023-12-01,43291.0,8501.0,51792.0,5,Long
2023-12-03,43291.0,8396.0,51687.0,5,Long
2023-12-04,43291.0,7901.0,51192.0,5,Long
2023-12-05,43291.0,8161.0,51452.0,5,Long
2023-12-06,43291.0,7296.0,50587.0,5,Long
2023-12-07,43291.0,7786.0,51077.0,5,Long
2023-12-08,43291.0,8296.0,51587.0,5,Long
2023-12-10,43291.0,10066.0,53357.0,5,Long
2023-12-11,43291.0,10966.0,54257.0,5,Long
2023-12-12,43291.0,11921.0,55212.0,5,Long
2023-12-13,43291.0,14831.0,58122.0,5,Long
2023-12-14,43291.0,15331.0,58622.0,5,Long
2023-12-15,43291.0,15239.0,58530.0,6,Long
2023-12-17,43291.0,15677.0,58968.0,6,Long
2023-12-18,43291.0,15263.0,58554.0,6,Long
2023-12-19,43291.0,16847.0,60138.0,6,Long
2023-12-20,43291.0,14441.0,57732.0,6,Long
2023-12-21,43291.0,15029.0,58320.0,6,Long
2023-12-22,43291.0,15461.0,58752.0,6,Long
2023-12-25,43291.0,15935.0,59226.0,6,Long
2023-12-26,43291.0,16577.0,59868.0,6,Long
2023-12-27,43291.0,17303.0,60594.0,6,Long
2023-12-28,43291.0,17513.0,60804.0,6,Long
2023-12-29,43291.0,17025.0,60316.0,7,Long
2024-01-01,43291.0,17522.0,60813.0,7,Long
2024-01-02,43291.0,17074.0,60365.0,7,Long
2024-01-03,43291.0,15345.0,58636.0,7,Long
2024-01-04,43291.0,15436.0,58727.0,7,Long
2024-01-05,43291.0,15240.0,58531.0,7,Long
2024-01-07,43291.0,14393.0,57684.0,7,Long
2024-01-08,43291.0,16444.0,59735.0,7,Long
2024-01-09,43291.0,15282.0,58573.0,7,Long
2024-01-10,43291.0,17207.0,60498.0,7,Long
2024-01-11,43291.0,16507.0,59798.0,7,Long
2024-01-12,43291.0,15518.0,58809.0,8,Long
2024-01-14,43291.0,16030.0,59321.0,8,Long
2024-01-15,43291.0,14886.0,58177.0,8,Long
2024-01-16,43291.0,13430.0,56721.0,8,Long
2024-01-17,43291.0,12822.0,56113.0,8,Long
2024-01-18,43291.0,14486.0,57777.0,8,Long
2024-01-19,43291.0,17862.0,61153.0,8,Long
2024-01-21,43291.0,18302.0,61593.0,8,Long
2024-01-22,43291.0,18918.0,62209.0,8,Long
2024-01-23,43291.0,18302.0,61593.0,8,Long
2024-01-24,43291.0,17854.0,61145.0,8,Long
2024-01-25,43291.0,18054.0,61345.0,8,Long
2024-01-26,43291.0,19422.0,62713.0,9,Long
2024-01-28,43291.0,18981.0,62272.0,9,Long
2024-01-29,43291.0,21132.0,64423.0,9,Long
2024-01-30,43291.0,22905.0,66196.0,9,Long
2024-01-31,43291.0,20241.0,63532.0,9,Long
2024-02-01,43291.0,22887.0,66178.0,9,Long
2024-02-02,43291.0,23877.0,67168.0,9,Long
2024-02-04,43291.0,23319.0,66610.0,9,Long
2024-02-05,43291.0,21402.0,64693.0,9,Long
2024-02-06,43291.0,22833.0,66124.0,9,Long
2024-02-07,43291.0,24246.0,67537.0,9,Long
2024-02-08,43291.0,24318.0,67609.0,9,Long
2024-02-09,43291.0,23680.0,66971.0,10,Long
2024-02-11,43291.0,23890.0,67181.0,10,Long
2024-02-12,43291.0,24790.0,68081.0,10,Long
2024-02-13,43291.0,19670.0,62961.0,10,Long
2024-02-14,43291.0,21460.0,64751.0,10,Long
2024-02-15,43291.0,24480.0,67771.0,10,Long
2024-02-16,43291.0,23100.0,66391.0,10,Long
2024-02-18,43291.0,23700.0,66991.0,10,Long
2024-02-19,43291.0,22360.0,65651.0,10,Long
2024-02-20,43291.0,22530.0,65821.0,10,Long
2024-02-21,43291.0,23760.0,67051.0,10,Long
2024-02-22,43291.0,28220.0,71511.0,10,Long
2024-02-23,43291.0,28020.0,71311.0,10,Long
2024-02-25,43291.0,27910.0,71201.0,10,Long
2024-02-26,43291.0,27500.0,70791.0,10,Long
2024-02-27,43291.0,26380.0,69671.0,10,Long
2024-02-28,43291.0,26500.0,69791.0,10,Long
2024-02-29,43291.0,27150.0,70441.0,10,Long
2024-03-01,43291.0,27310.0,70601.0,10,Long
2024-03-03,43291.0,27350.0,70641.0,10,Long
2024-03-04,43291.0,26140.0,69431.0,10,Long
2024-03-05,43291.0,22560.0,65851.0,10,Long
2024-03-06,43291.0,23110.0,66401.0,10,Long
2024-03-07,43291.0,24600.0,67891.0,10,Long
2024-03-08,43291.0,24300.0,67591.0,10,Long
2024-03-10,43291.0,27840.0,71131.0,10,Long
2024-03-11,43291.0,29260.0,72551.0,10,Long
2024-03-12,43291.0,31010.0,74301.0,10,Long
2024-03-13,43291.0,31960.0,75251.0,10,Long
2024-03-14,43291.0,29920.0,73211.0,10,Long
2024-03-15,43291.0,27910.0,71201.0,10,Long
2024-03-17,43291.0,28170.0,71461.0,10,Long
2024-03-18,43291.0,28550.0,71841.0,10,Long
2024-03-19,43291.0,31750.0,75041.0,10,Long
2024-03-20,43291.0,37050.0,80341.0,10,Long
2024-03-21,43291.0,38720.0,82011.0,10,Long
2024-03-22,43291.0,34760.0,78051.0,10,Long
2024-03-24,43291.0,34580.0,77871.0,10,Long
2024-03-25,43291.0,33710.0,77001.0,10,Long
2024-03-26,43291.0,34400.0,77691.0,10,Long
2024-03-27,43291.0,37620.0,80911.0,10,Long
2024-03-28,43291.0,37920.0,81211.0,10,Long
2024-03-31,43291.0,39680.0,82971.0,10,Long
2024-04-01,43291.0,34160.0,77451.0,10,Long
2024-04-02,43291.0,31100.0,74391.0,10,Long
2024-04-03,43291.0,31870.0,75161.0,10,Long
2024-04-04,75181.0,0.0,75181.0,0,
2024-04-05,75181.0,0.0,75181.0,0,
2024-04-07,75181.0,0.0,75181.0,0,
2024-04-08,75181.0,0.0,75181.0,0,
2024-04-09,75181.0,0.0,75181.0,0,
2024-04-10,75181.0,0.0,75181.0,0,
2024-04-11,75181.0,0.0,75181.0,0,
2024-04-12,75181.0,0.0,75181.0,0,
2024-04-14,75181.0,0.0,75181.0,0,
2024-04-15,75181.0,0.0,75181.0,0,
2024-04-16,75181.0,0.0,75181.0,0,
2024-04-17,75181.0,0.0,75181.0,0,
2024-04-18,75181.0,0.0,75181.0,0,
2024-04-19,75181.0,0.0,75181.0,0,
2024-04-21,75181.0,0.0,75181.0,0,
2024-04-22,75181.0,0.0,75181.0,0,
2024-04-23,75181.0,0.0,75181.0,0,
2024-04-24,75181.0,0.0,75181.0,0,
2024-04-25,75181.0,0.0,75181.0,0,
2024-04-26,75181.0,0.0,75181.0,0,
2024-04-28,75181.0,0.0,75181.0,0,
2024-04-29,75181.0,0.0,75181.0,0,
2024-04-30,75181.0,0.0,75181.0,0,
2024-05-01,75181.0,0.0,75181.0,0,
2024-05-02,75181.0,0.0,75181.0,0,
2024-05-03,75181.0,0.0,75181.0,0,
2024-05-05,75181.0,0.0,75181.0,0,
2024-05-06,75181.0,0.0,75181.0,0,
2024-05-07,75181.0,0.0,75181.0,0,
2024-05-08,75181.0,0.0,75181.0,0,
2024-05-09,75181.0,0.0,75181.0,0,
2024-05-10,75181.0,144.0,75325.0,3,Long
2024-05-12,75181.0,213.0,75394.0,3,Long
2024-05-13,75181.0,-54.0,75127.0,3,Long
2024-05-14,75121.0,0.0,75121.0,0,
2024-05-15,75121.0,1218.0,76339.0,3,Long
2024-05-16,75121.0,810.0,75931.0,3,Long
2024-05-17,75121.0,1251.0,76372.0,3,Long
2024-05-19,75121.0,1365.0,76486.0,3,Long
2024-05-20,75121.0,687.0,75808.0,3,Long
2024-05-21,75121.0,891.0,76012.0,3,Long
2024-05-22,75121.0,405.0,75526.0,3,Long
2024-05-23,75526.0,0.0,75526.0,0,
2024-05-24,75526.0,0.0,75526.0,0,
2024-05-26,75526.0,0.0,75526.0,0,
2024-05-27,75526.0,0.0,75526.0,0,
2024-05-28,75526.0,0.0,75526.0,0,
2024-05-29,75526.0,0.0,75526.0,0,
2024-05-30,75526.0,0.0,75526.0,0,
2024-05-31,75526.0,0.0,75526.0,0,
2024-06-02,75526.0,0.0,75526.0,0,
2024-06-03,75526.0,0.0,75526.0,0,
2024-06-04,75526.0,0.0,75526.0,0,
2024-06-05,75526.0,0.0,75526.0,0,
2024-06-06,75526.0,0.0,75526.0,0,
2024-06-07,75526.0,0.0,75526.0,0,
2024-06-09,75526.0,0.0,75526.0,0,
2024-06-10,75526.0,0.0,75526.0,0,
2024-06-11,75526.0,0.0,75526.0,0,
2024-06-12,75526.0,0.0,75526.0,0,
2024-06-13,75526.0,0.0,75526.0,0,
2024-06-14,75526.0,0.0,75526.0,0,
2024-06-16,75526.0,0.0,75526.0,0,
2024-06-17,75526.0,0.0,75526.0,0,
2024-06-18,75526.0,-27.0,75499.0,3,Long
2024-06-19,75505.0,0.0,75505.0,0,
2024-06-20,75505.0,0.0,75505.0,0,
2024-06-21,75505.0,18.0,75523.0,3,Long
2024-06-23,75505.0,-228.0,75277.0,3,Long
2024-06-24,75505.0,1011.0,76516.0,3,Long
2024-06-25,75505.0,-192.0,75313.0,3,Long
2024-06-26,75505.0,-477.0,75028.0,3,Long
2024-06-27,75505.0,-75.0,75430.0,3,Long
2024-06-28,75505.0,-153.0,75352.0,3,Long
2024-06-30,75505.0,-171.0,75334.0,3,Long
2024-07-01,75505.0,-390.0,75115.0,3,Long
2024-07-02,75505.0,189.0,75694.0,3,Long
2024-07-03,75505.0,162.0,75667.0,3,Long
2024-07-04,75505.0,306.0,75811.0,3,Long
2024-07-05,75505.0,204.0,75709.0,4,Long
2024-07-07,75505.0,116.0,75621.0,4,Long
2024-07-08,75505.0,480.0,75985.0,4,Long
2024-07-09,75505.0,-100.0,75405.0,4,Long
2024-07-10,75505.0,1736.0,77241.0,4,Long
2024-07-11,75505.0,2016.0,77521.0,4,Long
2024-07-12,75505.0,2884.0,78389.0,4,Long
2024-07-14,75505.0,3052.0,78557.0,4,Long
2024-07-15,75505.0,3856.0,79361.0,4,Long
2024-07-16,75505.0,6732.0,82237.0,4,Long
2024-07-17,75505.0,7956.0,83461.0,4,Long
2024-07-18,75505.0,5500.0,81005.0,4,Long
2024-07-19,75505.0,3782.0,79287.0,5,Long
2024-07-21,75505.0,3942.0,79447.0,5,Long
2024-07-22,75505.0,4292.0,79797.0,5,Long
2024-07-23,75505.0,3647.0,79152.0,5,Long
2024-07-24,79167.0,0.0,79167.0,0,
2024-07-25,79167.0,0.0,79167.0,0,
2024-07-26,79167.0,0.0,79167.0,0,
2024-07-28,79167.0,0.0,79167.0,0,
2024-07-29,79167.0,0.0,79167.0,0,
2024-07-30,79167.0,0.0,79167.0,0,
2024-07-31,79167.0,0.0,79167.0,0,
2024-08-01,79167.0,0.0,79167.0,0,
2024-08-02,79167.0,0.0,79167.0,0,
2024-08-04,79167.0,0.0,79167.0,0,
2024-08-05,79167.0,0.0,79167.0,0,
2024-08-06,79167.0,0.0,79167.0,0,
2024-08-07,79167.0,0.0,79167.0,0,
2024-08-08,79167.0,0.0,79167.0,0,
2024-08-09,79167.0,0.0,79167.0,0,
2024-08-11,79167.0,0.0,79167.0,0,
2024-08-12,79167.0,0.0,79167.0,0,
2024-08-13,79167.0,0.0,79167.0,0,
2024-08-14,79167.0,0.0,79167.0,0,
2024-08-15,79167.0,0.0,79167.0,0,
2024-08-16,79167.0,174.0,79341.0,3,Long
2024-08-18,79167.0,195.0,79362.0,3,Long
2024-08-19,79167.0,768.0,79935.0,3,Long
2024-08-20,79167.0,774.0,79941.0,3,Long
2024-08-21,79167.0,672.0,79839.0,3,Long
2024-08-22,79167.0,459.0,79626.0,3,Long
2024-08-23,79167.0,1575.0,80742.0,3,Long
2024-08-25,79167.0,1470.0,80637.0,3,Long
2024-08-26,79167.0,1698.0,80865.0,3,Long
2024-08-27,79167.0,1827.0,80994.0,3,Long
2024-08-28,79167.0,1578.0,80745.0,3,Long
2024-08-29,79167.0,2103.0,81270.0,3,Long
2024-08-30,79167.0,2775.0,81942.0,4,Long
2024-09-01,79167.0,2699.0,81866.0,4,Long
2024-09-02,79167.0,2535.0,81702.0,4,Long
2024-09-03,79167.0,-225.0,78942.0,4,Long
2024-09-04,79167.0,283.0,79450.0,4,Long
2024-09-05,79167.0,-373.0,78794.0,4,Long
2024-09-06,78782.0,0.0,78782.0,0,
2024-09-08,78782.0,0.0,78782.0,0,
2024-09-09,78782.0,0.0,78782.0,0,
2024-09-10,78782.0,0.0,78782.0,0,
2024-09-11,78782.0,0.0,78782.0,0,
2024-09-12,78782.0,0.0,78782.0,0,
2024-09-13,78782.0,0.0,78782.0,0,
2024-09-15,78782.0,0.0,78782.0,0,
2024-09-16,78782.0,0.0,78782.0,0,
2024-09-17,78782.0,150.0,78932.0,3,Long
2024-09-18,78782.0,477.0,79259.0,3,Long
2024-09-19,78782.0,1233.0,80015.0,3,Long
2024-09-20,78782.0,1236.0,80018.0,3,Long
2024-09-22,78782.0,1449.0,80231.0,3,Long
2024-09-23,78782.0,1200.0,79982.0,3,Long
2024-09-24,78782.0,1452.0,80234.0,3,Long
2024-09-25,78782.0,1050.0,79832.0,3,Long
2024-09-26,78782.0,1536.0,80318.0,3,Long
2024-09-27,78782.0,1736.0,80518.0,4,Long
2024-09-29,78782.0,1948.0,80730.0,4,Long
2024-09-30,78782.0,1772.0,80554.0,4,Long
2024-10-01,78782.0,920.0,79702.0,4,Long
2024-10-02,78782.0,1092.0,79874.0,4,Long
2024-10-03,78782.0,492.0,79274.0,4,Long
2024-10-04,78782.0,1772.0,80554.0,4,Long
2024-10-06,78782.0,1788.0,80570.0,4,Long
2024-10-07,78782.0,100.0,78882.0,4,Long
2024-10-08,78782.0,580.0,79362.0,4,Long
2024-10-09,78782.0,2580.0,81362.0,4,Long
2024-10-10,78782.0,2276.0,81058.0,4,Long
2024-10-11,78782.0,3589.0,82371.0,5,Long
2024-10-13,78782.0,3789.0,82571.0,5,Long
2024-10-14,78782.0,5169.0,83951.0,5,Long
2024-10-15,78782.0,3144.0,81926.0,5,Long
2024-10-16,78782.0,4484.0,83266.0,5,Long
2024-10-17,78782.0,5469.0,84251.0,5,Long
2024-10-18,78782.0,5739.0,84521.0,5,Long
2024-10-20,78782.0,5799.0,84581.0,5,Long
2024-10-21,78782.0,3634.0,82416.0,5,Long
2024-10-22,78782.0,3244.0,82026.0,5,Long
2024-10-23,78782.0,1434.0,80216.0,5,Long
2024-10-24,78782.0,989.0,79771.0,5,Long
2024-10-25,79786.0,0.0,79786.0,0,
2024-10-27,79786.0,0.0,79786.0,0,
2024-10-28,79786.0,0.0,79786.0,0,
2024-10-29,79786.0,0.0,79786.0,0,
2024-10-30,79786.0,0.0,79786.0,0,
2024-10-31,79786.0,0.0,79786.0,0,
2024-11-01,79786.0,0.0,79786.0,0,
2024-11-03,79786.0,0.0,79786.0,0,
2024-11-04,79786.0,0.0,79786.0,0,
2024-11-05,79786.0,0.0,79786.0,0,
2024-11-06,79786.0,0.0,79786.0,0,
2024-11-07,79786.0,-336.0,79450.0,3,Long
2024-11-08,79450.0,0.0,79450.0,0,
2024-11-10,79450.0,66.0,79516.0,3,Long
2024-11-11,79450.0,714.0,80164.0,3,Long
2024-11-12,79450.0,-408.0,79042.0,3,Long
2024-11-13,79450.0,-213.0,79237.0,3,Long
2024-11-14,79450.0,-1068.0,78382.0,3,Long
2024-11-15,78385.0,0.0,78385.0,0,
2024-11-17,78385.0,0.0,78385.0,0,
2024-11-18,78385.0,0.0,78385.0,0,
2024-11-19,78385.0,0.0,78385.0,0,
2024-11-20,78385.0,0.0,78385.0,0,
2024-11-21,78385.0,0.0,78385.0,0,
2024-11-22,78385.0,0.0,78385.0,0,
2024-11-24,78385.0,450.0,78835.0,3,Long
2024-11-25,78385.0,1014.0,79399.0,3,Long
2024-11-26,78385.0,1440.0,79825.0,3,Long
2024-11-27,78385.0,1161.0,79546.0,3,Long
2024-11-28,78385.0,1407.0,79792.0,3,Long
2024-11-29,78385.0,1677.0,80062.0,3,Long
2024-12-01,78385.0,1437.0,79822.0,3,Long
2024-12-02,78385.0,1203.0,79588.0,3,Long
2024-12-03,78385.0,1338.0,79723.0,3,Long
2024-12-04,78385.0,1773.0,80158.0,3,Long
2024-12-05,78385.0,987.0,79372.0,3,Long
2024-12-06,78385.0,567.0,78952.0,4,Long
2024-12-08,78385.0,483.0,78868.0,4,Long
2024-12-09,78385.0,-357.0,78028.0,4,Long
2024-12-10,78385.0,-909.0,77476.0,4,Long
2024-12-11,78385.0,-1669.0,76716.0,4,Long
2024-12-12,78385.0,-2265.0,76120.0,4,Long
2024-12-13,76124.0,0.0,76124.0,0,
2024-12-15,76124.0,0.0,76124.0,0,
2024-12-16,76124.0,0.0,76124.0,0,
2024-12-17,76124.0,0.0,76124.0,0,
2024-12-18,76124.0,0.0,76124.0,0,
2024-12-19,76124.0,0.0,76124.0,0,
2024-12-20,76124.0,0.0,76124.0,0,
2024-12-22,76124.0,0.0,76124.0,0,
2024-12-23,76124.0,0.0,76124.0,0,
2024-12-24,76124.0,0.0,76124.0,0,
2024-12-25,76124.0,0.0,76124.0,0,
2024-12-26,76124.0,0.0,76124.0,0,
2024-12-27,76124.0,0.0,76124.0,0,
2024-12-29,76124.0,0.0,76124.0,0,
2024-12-30,76124.0,0.0,76124.0,0,
2024-12-31,76124.0,0.0,76124.0,0,
2025-01-01,76124.0,0.0,76124.0,0,
2025-01-02,76124.0,0.0,76124.0,0,
2025-01-03,76124.0,0.0,76124.0,0,
2025-01-05,76124.0,0.0,76124.0,0,
2025-01-06,76124.0,0.0,76124.0,0,
2025-01-07,76124.0,0.0,76124.0,0,
2025-01-08,76124.0,0.0,76124.0,0,
2025-01-09,76124.0,0.0,76124.0,0,
2025-01-10,76124.0,0.0,76124.0,0,
2025-01-12,76124.0,0.0,76124.0,0,
2025-01-13,76124.0,0.0,76124.0,0,
2025-01-14,76124.0,0.0,76124.0,0,
2025-01-15,76124.0,0.0,76124.0,0,
2025-01-16,76124.0,-213.0,75911.0,3,Long
2025-01-17,75926.0,0.0,75926.0,0,
2025-01-19,75926.0,78.0,76004.0,3,Long
2025-01-20,75926.0,405.0,76331.0,3,Long
2025-01-21,75926.0,1746.0,77672.0,3,Long
2025-01-22,75926.0,1977.0,77903.0,3,Long
2025-01-23,75926.0,3123.0,79049.0,3,Long
2025-01-24,75926.0,2718.0,78644.0,3,Long
2025-01-26,75926.0,2241.0,78167.0,3,Long
2025-01-27,75926.0,3441.0,79367.0,3,Long
2025-01-28,75926.0,4023.0,79949.0,3,Long
2025-01-29,75926.0,3894.0,79820.0,3,Long
2025-01-30,75926.0,4236.0,80162.0,3,Long
2025-01-31,75926.0,2991.0,78917.0,4,Long
2025-02-02,75926.0,271.0,76197.0,4,Long
2025-02-03,75926.0,2559.0,78485.0,4,Long
2025-02-04,75926.0,2571.0,78497.0,4,Long
2025-02-05,75926.0,4547.0,80473.0,4,Long
2025-02-06,75926.0,3515.0,79441.0,4,Long
2025-02-07,75926.0,1867.0,77793.0,4,Long
2025-02-09,75926.0,2151.0,78077.0,4,Long
2025-02-10,75926.0,2239.0,78165.0,4,Long
2025-02-11,75926.0,2927.0,78853.0,4,Long
2025-02-12,75926.0,2367.0,78293.0,4,Long
2025-02-13,75926.0,3651.0,79577.0,4,Long
2025-02-14,75926.0,2785.0,78711.0,5,Long
2025-02-16,75926.0,2980.0,78906.0,5,Long
2025-02-17,75926.0,3005.0,78931.0,5,Long
2025-02-18,75926.0,3020.0,78946.0,5,Long
2025-02-19,75926.0,2665.0,78591.0,5,Long
2025-02-20,75926.0,905.0,76831.0,5,Long
2025-02-21,76841.0,0.0,76841.0,0,
2025-02-23,76841.0,0.0,76841.0,0,
2025-02-24,76841.0,0.0,76841.0,0,
2025-02-25,76841.0,0.0,76841.0,0,
2025-02-26,76841.0,0.0,76841.0,0,
2025-02-27,76841.0,0.0,76841.0,0,
2025-02-28,76841.0,0.0,76841.0,0,
2025-03-02,76841.0,0.0,76841.0,0,
2025-03-03,76841.0,0.0,76841.0,0,
2025-03-04,76841.0,0.0,76841.0,0,
2025-03-05,76841.0,0.0,76841.0,0,
2025-03-06,76841.0,0.0,76841.0,0,
2025-03-07,76841.0,0.0,76841.0,0,
2025-03-09,76841.0,0.0,76841.0,0,
2025-03-10,76841.0,0.0,76841.0,0,
2025-03-11,76841.0,0.0,76841.0,0,
2025-03-12,76841.0,0.0,76841.0,0,
2025-03-13,76841.0,0.0,76841.0,0,
2025-03-14,76841.0,0.0,76841.0,0,
2025-03-16,76841.0,0.0,76841.0,0,
2025-03-17,76841.0,0.0,76841.0,0,
2025-03-18,76841.0,0.0,76841.0,0,
2025-03-19,76841.0,0.0,76841.0,0,
2025-03-20,76841.0,0.0,76841.0,0,
2025-03-21,76841.0,0.0,76841.0,0,
2025-03-23,76841.0,0.0,76841.0,0,
2025-03-24,76841.0,0.0,76841.0,0,
2025-03-25,76841.0,0.0,76841.0,0,
2025-03-26,76841.0,0.0,76841.0,0,
2025-03-27,76841.0,0.0,76841.0,0,
2025-03-28,76841.0,0.0,76841.0,0,
2025-03-30,76841.0,0.0,76841.0,0,
2025-03-31,76841.0,0.0,76841.0,0,
2025-04-01,76841.0,0.0,76841.0,0,
2025-04-02,76841.0,0.0,76841.0,0,
2025-04-03,76841.0,0.0,76841.0,0,
2025-04-04,76841.0,0.0,76841.0,0,
2025-04-06,76841.0,0.0,76841.0,0,
2025-04-07,76841.0,0.0,76841.0,0,
2025-04-08,76841.0,0.0,76841.0,0,
2025-04-09,76841.0,0.0,76841.0,0,
2025-04-10,76841.0,-3138.0,73703.0,3,Long
2025-04-11,73712.0,0.0,73712.0,0,
2025-04-13,73712.0,0.0,73712.0,0,
2025-04-14,73712.0,0.0,73712.0,0,
2025-04-15,73712.0,0.0,73712.0,0,
2025-04-16,73712.0,0.0,73712.0,0,
2025-04-17,73712.0,0.0,73712.0,0,
2025-04-20,73712.0,0.0,73712.0,0,
2025-04-21,73712.0,0.0,73712.0,0,
2025-04-22,73712.0,0.0,73712.0,0,
2025-04-23,73712.0,0.0,73712.0,0,
2025-04-24,73712.0,0.0,73712.0,0,
2025-04-25,73712.0,0.0,73712.0,0,
2025-04-27,73712.0,0.0,73712.0,0,
2025-04-28,73712.0,0.0,73712.0,0,
2025-04-29,73712.0,0.0,73712.0,0,
2025-04-30,73712.0,0.0,73712.0,0,
2025-05-01,73712.0,588.0,74300.0,3,Long
2025-05-02,73712.0,1290.0,75002.0,3,Long
2025-05-04,73712.0,447.0,74159.0,3,Long
2025-05-05,73712.0,861.0,74573.0,3,Long
2025-05-06,73712.0,402.0,74114.0,3,Long
2025-05-07,73712.0,1302.0,75014.0,3,Long
2025-05-08,73712.0,1407.0,75119.0,3,Long
2025-05-09,73712.0,1127.0,74839.0,4,Long
2025-05-11,73712.0,2787.0,76499.0,4,Long
2025-05-12,73712.0,5163.0,78875.0,4,Long
2025-05-13,73712.0,4587.0,78299.0,4,Long
2025-05-14,73712.0,3463.0,77175.0,4,Long
2025-05-15,73712.0,5211.0,78923.0,4,Long
2025-05-16,73712.0,5811.0,79523.0,4,Long
2025-05-18,73712.0,5263.0,78975.0,4,Long
2025-05-19,73712.0,6963.0,80675.0,4,Long
2025-05-20,73712.0,6263.0,79975.0,4,Long
2025-05-21,73712.0,3423.0,77135.0,4,Long
2025-05-22,73712.0,3475.0,77187.0,4,Long
2025-05-23,73712.0,2268.0,75980.0,5,Long
2025-05-25,73712.0,4123.0,77835.0,5,Long
2025-05-26,73712.0,3903.0,77615.0,5,Long
2025-05-27,73712.0,5843.0,79555.0,5,Long
2025-05-28,73712.0,7413.0,81125.0,5,Long
2025-05-29,73712.0,5003.0,78715.0,5,Long
2025-05-30,73712.0,5288.0,79000.0,5,Long
2025-06-01,73712.0,4608.0,78320.0,5,Long
2025-06-02,73712.0,5023.0,78735.0,5,Long
2025-06-03,73712.0,6753.0,80465.0,5,Long
2025-06-04,73712.0,6303.0,80015.0,5,Long
2025-06-05,73712.0,6353.0,80065.0,5,Long
2025-06-06,73712.0,8082.0,81794.0,6,Long
2025-06-08,73712.0,7554.0,81266.0,6,Long
2025-06-09,73712.0,8616.0,82328.0,6,Long
2025-06-10,73712.0,7974.0,81686.0,6,Long
2025-06-11,73712.0,7632.0,81344.0,6,Long
2025-06-12,73712.0,5568.0,79280.0,6,Long
2025-06-13,73712.0,4152.0,77864.0,6,Long
2025-06-15,73712.0,6372.0,80084.0,6,Long
2025-06-16,73712.0,7464.0,81176.0,6,Long
2025-06-17,73712.0,6438.0,80150.0,6,Long
2025-06-18,73712.0,5850.0,79562.0,6,Long
2025-06-19,73712.0,5472.0,79184.0,6,Long
2025-06-20,73712.0,6608.0,80320.0,7,Long
2025-06-22,73712.0,5299.0,79011.0,7,Long
2025-06-23,73712.0,10472.0,84184.0,7,Long
2025-06-24,73712.0,12551.0,86263.0,7,Long
2025-06-25,73712.0,11991.0,85703.0,7,Long
2025-06-26,73712.0,15183.0,88895.0,7,Long
2025-06-27,73712.0,18333.0,92045.0,7,Long
2025-06-29,73712.0,19201.0,92913.0,7,Long
2025-06-30,73712.0,19075.0,92787.0,7,Long
2025-07-01,73712.0,22687.0,96399.0,7,Long
2025-07-02,73712.0,22232.0,95944.0,7,Long
2025-07-03,73712.0,23520.0,97232.0,7,Long
2025-07-04,73712.0,22491.0,96203.0,8,Long
2025-07-06,73712.0,23563.0,97275.0,8,Long
2025-07-07,73712.0,20803.0,94515.0,8,Long
2025-07-08,73712.0,19483.0,93195.0,8,Long
2025-07-09,73712.0,20659.0,94371.0,8,Long
2025-07-10,73712.0,21931.0,95643.0,8,Long
2025-07-11,73712.0,20235.0,93947.0,8,Long
2025-07-13,73712.0,19003.0,92715.0,8,Long
2025-07-14,73712.0,21027.0,94739.0,8,Long
2025-07-15,73712.0,17123.0,90835.0,8,Long
2025-07-16,73712.0,18851.0,92563.0,8,Long
2025-07-17,73712.0,22139.0,95851.0,8,Long
2025-07-18,73712.0,20053.0,93765.0,9,Long
2025-07-20,73712.0,20377.0,94089.0,9,Long
2025-07-21,73712.0,20548.0,94260.0,9,Long
2025-07-22,73712.0,22636.0,96348.0,9,Long
2025-07-23,73712.0,24976.0,98688.0,9,Long
2025-07-24,73712.0,24481.0,98193.0,9,Long
2025-07-25,73712.0,24994.0,98706.0,9,Long
2025-07-27,73712.0,26551.0,100263.0,9,Long
2025-07-28,73712.0,24688.0,98400.0,9,Long
2025-07-29,73712.0,22861.0,96573.0,9,Long
2025-07-30,73712.0,22015.0,95727.0,9,Long
2025-07-31,73712.0,17416.0,91128.0,9,Long
2025-08-01,91101.0,0.0,91101.0,0,
2025-08-03,91101.0,0.0,91101.0,0,
2025-08-04,91101.0,0.0,91101.0,0,
2025-08-05,91101.0,0.0,91101.0,0,
2025-08-06,91101.0,0.0,91101.0,0,
2025-08-07,91101.0,0.0,91101.0,0,
2025-08-08,91101.0,0.0,91101.0,0,
2025-08-10,91101.0,0.0,91101.0,0,
2025-08-11,91101.0,0.0,91101.0,0,
2025-08-12,91101.0,0.0,91101.0,0,
2025-08-13,91101.0,0.0,91101.0,0,
2025-08-14,91101.0,0.0,91101.0,0,
2025-08-15,91101.0,-825.0,90276.0,3,Long
2025-08-17,90294.0,0.0,90294.0,0,
2025-08-18,90294.0,0.0,90294.0,0,
2025-08-19,90294.0,0.0,90294.0,0,
2025-08-20,90294.0,0.0,90294.0,0,
2025-08-21,90294.0,0.0,90294.0,0,
2025-08-22,90294.0,0.0,90294.0,0,
2025-08-24,90294.0,-183.0,90111.0,3,Long
2025-08-25,90294.0,-1296.0,88998.0,3,Long
2025-08-26,90294.0,-582.0,89712.0,3,Long
2025-08-27,90294.0,0.0,90294.0,3,Long
2025-08-28,90294.0,-258.0,90036.0,3,Long
2025-08-29,90294.0,-282.0,90012.0,3,Long
2025-08-31,90294.0,-375.0,89919.0,3,Long
2025-09-01,90294.0,-402.0,89892.0,3,Long
2025-09-02,90294.0,-1545.0,88749.0,3,Long
2025-09-03,88743.0,0.0,88743.0,0,
2025-09-04,88743.0,0.0,88743.0,0,
2025-09-05,88743.0,-708.0,88035.0,3,Long
2025-09-07,88743.0,-585.0,88158.0,3,Long
2025-09-08,88743.0,-231.0,88512.0,3,Long
2025-09-09,88743.0,30.0,88773.0,3,Long
2025-09-10,88743.0,-387.0,88356.0,3,Long
2025-09-11,88743.0,1347.0,90090.0,3,Long
2025-09-12,88743.0,465.0,89208.0,3,Long
2025-09-14,88743.0,1542.0,90285.0,3,Long
2025-09-15,88743.0,1755.0,90498.0,3,Long
2025-09-16,88743.0,1164.0,89907.0,3,Long
2025-09-17,88743.0,2403.0,91146.0,3,Long
2025-09-18,88743.0,2586.0,91329.0,3,Long
2025-09-19,88743.0,2648.0,91391.0,4,Long
2025-09-21,88743.0,2616.0,91359.0,4,Long
2025-09-22,88743.0,3104.0,91847.0,4,Long
2025-09-23,88743.0,2944.0,91687.0,4,Long
2025-09-24,88743.0,2340.0,91083.0,4,Long
2025-09-25,88743.0,1312.0,90055.0,4,Long
2025-09-26,88743.0,2444.0,91187.0,4,Long
2025-09-28,88743.0,2900.0,91643.0,4,Long
2025-09-29,88743.0,2624.0,91367.0,4,Long
2025-09-30,88743.0,2204.0,90947.0,4,Long
2025-10-01,88743.0,3060.0,91803.0,4,Long
2025-10-02,88743.0,3756.0,92499.0,4,Long
2025-10-03,88743.0,4324.0,93067.0,5,Long
2025-10-05,88743.0,4764.0,93507.0,5,Long
2025-10-06,88743.0,3449.0,92192.0,5,Long
2025-10-07,88743.0,3654.0,92397.0,5,Long
2025-10-08,88743.0,3194.0,91937.0,5,Long
2025-10-09,88743.0,2339.0,91082.0,5,Long
2025-10-10,91087.0,0.0,91087.0,0,
2025-10-12,91087.0,0.0,91087.0,0,
2025-10-13,91087.0,0.0,91087.0,0,
2025-10-14,91087.0,0.0,91087.0,0,
2025-10-15,91087.0,0.0,91087.0,0,
2025-10-16,91087.0,0.0,91087.0,0,
2025-10-17,91087.0,0.0,91087.0,0,
2025-10-19,91087.0,0.0,91087.0,0,
2025-10-20,91087.0,0.0,91087.0,0,
2025-10-21,91087.0,0.0,91087.0,0,
2025-10-22,91087.0,0.0,91087.0,0,
2025-10-23,91087.0,0.0,91087.0,0,
2025-10-24,91087.0,0.0,91087.0,0,
2025-10-26,91087.0,-33.0,91054.0,3,Long
2025-10-27,91057.0,0.0,91057.0,0,
2025-10-28,91057.0,390.0,91447.0,3,Long
2025-10-29,91057.0,498.0,91555.0,3,Long
2025-10-30,91057.0,-36.0,91021.0,3,Long
2025-10-31,91057.0,48.0,91105.0,3,Long
2025-11-02,91057.0,177.0,91234.0,3,Long
2025-11-03,91057.0,-1227.0,89830.0,3,Long
2025-11-04,89839.0,0.0,89839.0,0,
2025-11-05,89839.0,0.0,89839.0,0,
2025-11-06,89839.0,0.0,89839.0,0,
2025-11-07,89839.0,0.0,89839.0,0,
2025-11-09,89839.0,0.0,89839.0,0,
2025-11-10,89839.0,0.0,89839.0,0,
2025-11-11,89839.0,0.0,89839.0,0,
2025-11-12,89839.0,1227.0,91066.0,3,Long
2025-11-13,89839.0,-1554.0,88285.0,3,Long
2025-11-14,88294.0,0.0,88294.0,0,
2025-11-16,88294.0,0.0,88294.0,0,
2025-11-17,88294.0,0.0,88294.0,0,
2025-11-18,88294.0,0.0,88294.0,0,
2025-11-19,88294.0,0.0,88294.0,0,
2025-11-20,88294.0,0.0,88294.0,0,
2025-11-21,88294.0,0.0,88294.0,0,
2025-11-23,88294.0,0.0,88294.0,0,
2025-11-24,88294.0,0.0,88294.0,0,
2025-11-25,88294.0,0.0,88294.0,0,
2025-11-26,88294.0,0.0,88294.0,0,
2025-11-27,88294.0,0.0,88294.0,0,
2025-11-28,88294.0,0.0,88294.0,0,
2025-11-30,88294.0,0.0,88294.0,0,
2025-12-01,88294.0,0.0,88294.0,0,
2025-12-02,88294.0,0.0,88294.0,0,
2025-12-03,88294.0,0.0,88294.0,0,
2025-12-04,88294.0,-237.0,88057.0,3,Long
2025-12-05,88060.0,0.0,88060.0,0,
2025-12-07,88060.0,0.0,88060.0,0,
2025-12-08,88060.0,0.0,88060.0,0,
2025-12-09,88060.0,0.0,88060.0,0,
2025-12-10,88060.0,0.0,88060.0,0,
2025-12-11,88060.0,0.0,88060.0,0,
2025-12-12,88060.0,-984.0,87076.0,3,Long
2025-12-14,88060.0,534.0,88594.0,3,Long
2025-12-15,88060.0,-363.0,87697.0,3,Long
2025-12-16,88060.0,-1284.0,86776.0,3,Long
2025-12-17,88060.0,-1896.0,86164.0,3,Long
2025-12-18,88060.0,-1839.0,86221.0,3,Long
2025-12-19,88060.0,-1068.0,86992.0,3,Long
2025-12-21,88060.0,-1038.0,87022.0,3,Long
2025-12-22,88060.0,-609.0,87451.0,3,Long
2025-12-23,88060.0,-369.0,87691.0,3,Long
2025-12-24,88060.0,522.0,88582.0,3,Long
2025-12-25,88060.0,567.0,88627.0,3,Long
2025-12-26,88060.0,499.0,88559.0,4,Long
2025-12-28,88060.0,459.0,88519.0,4,Long
2025-12-29,88060.0,-501.0,87559.0,4,Long
2025-12-30,88060.0,-1009.0,87051.0,4,Long
2025-12-31,88060.0,-2149.0,85911.0,4,Long
2026-01-01,88060.0,-1721.0,86339.0,4,Long
2026-01-02,88060.0,-1129.0,86931.0,4,Long
2026-01-04,88060.0,-997.0,87063.0,4,Long
2026-01-05,88060.0,1459.0,89519.0,4,Long
2026-01-06,88060.0,3663.0,91723.0,4,Long
2026-01-07,88060.0,1099.0,89159.0,4,Long
2026-01-08,88060.0,2475.0,90535.0,4,Long
2026-01-09,88060.0,3406.0,91466.0,5,Long
2026-01-11,88060.0,2131.0,90191.0,5,Long
2026-01-12,88060.0,3736.0,91796.0,5,Long
2026-01-13,88060.0,1121.0,89181.0,5,Long
2026-01-14,88060.0,1251.0,89311.0,5,Long
2026-01-15,88060.0,3471.0,91531.0,5,Long
2026-01-16,88060.0,2516.0,90576.0,5,Long
2026-01-18,88060.0,621.0,88681.0,5,Long
2026-01-19,88060.0,141.0,88201.0,5,Long
2026-01-20,88060.0,-1439.0,86621.0,5,Long
2026-01-21,88060.0,1521.0,89581.0,5,Long
2026-01-22,88060.0,2721.0,90781.0,5,Long
2026-01-23,88060.0,539.0,88599.0,6,Long
2026-01-25,88060.0,275.0,88335.0,6,Long
2026-01-26,88060.0,2567.0,90627.0,6,Long
2026-01-27,88060.0,335.0,88395.0,6,Long
2026-01-28,88060.0,209.0,88269.0,6,Long
2026-01-29,88060.0,-667.0,87393.0,6,Long
2026-01-30,88060.0,-649.0,87411.0,6,Long
2026-02-01,88060.0,-2641.0,85419.0,6,Long
2026-02-02,88060.0,2867.0,90927.0,6,Long
2026-02-03,88060.0,1877.0,89937.0,6,Long
2026-02-04,88060.0,2657.0,90717.0,6,Long
2026-02-05,88060.0,-1291.0,86769.0,6,Long
2026-02-06,88060.0,6680.0,94740.0,7,Long
2026-02-08,88060.0,7240.0,95300.0,7,Long
2026-02-09,88060.0,6925.0,94985.0,7,Long
2026-02-10,88060.0,8017.0,96077.0,7,Long
2026-02-11,88060.0,7723.0,95783.0,7,Long
2026-02-12,88060.0,1752.0,89812.0,7,Long
2026-02-13,88060.0,1941.0,90001.0,7,Long
2026-02-15,88060.0,2753.0,90813.0,7,Long
2026-02-16,88060.0,1255.0,89315.0,7,Long
2026-02-17,88060.0,2809.0,90869.0,7,Long
2026-02-18,88060.0,3159.0,91219.0,7,Long
2026-02-19,88060.0,1899.0,89959.0,7,Long
2026-02-20,88060.0,3069.0,91129.0,8,Long
2026-02-22,88060.0,485.0,88545.0,8,Long
2026-02-23,88060.0,-2891.0,85169.0,8,Long
2026-02-24,88060.0,-515.0,87545.0,8,Long
2026-02-25,88060.0,1189.0,89249.0,8,Long
2026-02-26,88060.0,-27.0,88033.0,8,Long
2026-02-27,88060.0,-3115.0,84945.0,8,Long
2026-03-01,81817.0,0.0,81817.0,0,
2026-03-02,81817.0,0.0,81817.0,0,
2026-03-03,81817.0,0.0,81817.0,0,
2026-03-04,81817.0,0.0,81817.0,0,
2026-03-05,81817.0,0.0,81817.0,0,
2026-03-06,81817.0,0.0,81817.0,0,
2026-03-08,81817.0,0.0,81817.0,0,
