date,realized_points,open_unrealized_points,total_equity_points,open_units,direction
2019-05-05,0.0,0.0,0.0,0,
2019-05-06,0.0,0.0,0.0,0,
2019-05-07,0.0,0.0,0.0,0,
2019-05-08,0.0,0.0,0.0,0,
2019-05-09,0.0,0.0,0.0,0,
2019-05-10,0.0,0.0,0.0,0,
2019-05-12,0.0,0.0,0.0,0,
2019-05-13,0.0,0.0,0.0,0,
2019-05-14,0.0,0.0,0.0,0,
2019-05-15,0.0,0.0,0.0,0,
2019-05-16,0.0,0.0,0.0,0,
2019-05-17,0.0,0.0,0.0,0,
2019-05-19,0.0,0.0,0.0,0,
2019-05-20,0.0,0.0,0.0,0,
2019-05-21,0.0,0.0,0.0,0,
2019-05-22,0.0,0.0,0.0,0,
2019-05-23,0.0,0.0,0.0,0,
2019-05-24,0.0,0.0,0.0,0,
2019-05-26,0.0,0.0,0.0,0,
2019-05-27,0.0,0.0,0.0,0,
2019-05-28,0.0,0.0,0.0,0,
2019-05-29,0.0,0.0,0.0,0,
2019-05-30,0.0,0.0,0.0,0,
2019-05-31,0.0,0.0,0.0,0,
2019-06-02,0.0,0.0,0.0,0,
2019-06-03,0.0,0.0,0.0,0,
2019-06-04,0.0,0.0,0.0,0,
2019-06-05,0.0,0.0,0.0,0,
2019-06-06,0.0,0.0,0.0,0,
2019-06-07,0.0,0.0,0.0,0,
2019-06-09,0.0,0.0,0.0,0,
2019-06-10,0.0,0.0,0.0,0,
2019-06-11,0.0,0.0,0.0,0,
2019-06-12,0.0,0.0,0.0,0,
2019-06-13,0.0,0.0,0.0,0,
2019-06-14,0.0,0.0,0.0,0,
2019-06-16,0.0,0.0,0.0,0,
2019-06-17,0.0,0.0,0.0,0,
2019-06-18,0.0,0.0,0.0,0,
2019-06-19,0.0,0.0,0.0,0,
2019-06-20,0.0,0.0,0.0,0,
2019-06-21,0.0,0.0,0.0,0,
2019-06-23,0.0,0.0,0.0,0,
2019-06-24,0.0,0.0,0.0,0,
2019-06-25,0.0,0.0,0.0,0,
2019-06-26,0.0,0.0,0.0,0,
2019-06-27,0.0,0.0,0.0,0,
2019-06-28,0.0,0.0,0.0,0,
2019-06-30,0.0,0.0,0.0,0,
2019-07-01,0.0,0.0,0.0,0,
2019-07-02,0.0,0.0,0.0,0,
2019-07-03,0.0,0.0,0.0,0,
2019-07-04,0.0,0.0,0.0,0,
2019-07-05,0.0,0.0,0.0,0,
2019-07-07,0.0,0.0,0.0,0,
2019-07-08,0.0,0.0,0.0,0,
2019-07-09,0.0,0.0,0.0,0,
2019-07-10,0.0,0.0,0.0,0,
2019-07-11,0.0,0.0,0.0,0,
2019-07-12,0.0,0.0,0.0,0,
2019-07-14,0.0,0.0,0.0,0,
2019-07-15,0.0,0.0,0.0,0,
2019-07-16,0.0,0.0,0.0,0,
2019-07-17,0.0,0.0,0.0,0,
2019-07-18,0.0,0.0,0.0,0,
2019-07-19,0.0,0.0,0.0,0,
2019-07-21,0.0,0.0,0.0,0,
2019-07-22,0.0,0.0,0.0,0,
2019-07-23,0.0,0.0,0.0,0,
2019-07-24,0.0,0.0,0.0,0,
2019-07-25,0.0,0.0,0.0,0,
2019-07-26,0.0,0.0,0.0,0,
2019-07-28,0.0,0.0,0.0,0,
2019-07-29,0.0,0.0,0.0,0,
2019-07-30,0.0,0.0,0.0,0,
2019-07-31,0.0,0.0,0.0,0,
2019-08-01,0.0,0.0,0.0,0,
2019-08-02,0.0,0.0,0.0,0,
2019-08-04,0.0,0.0,0.0,0,
2019-08-05,0.0,0.0,0.0,0,
2019-08-06,0.0,0.0,0.0,0,
2019-08-07,0.0,0.0,0.0,0,
2019-08-08,0.0,0.0,0.0,0,
2019-08-09,0.0,0.0,0.0,0,
2019-08-11,0.0,0.0,0.0,0,
2019-08-12,0.0,0.0,0.0,0,
2019-08-13,0.0,0.0,0.0,0,
2019-08-14,0.0,0.0,0.0,0,
2019-08-15,0.0,0.0,0.0,0,
2019-08-16,0.0,0.0,0.0,0,
2019-08-18,0.0,0.0,0.0,0,
2019-08-19,0.0,0.0,0.0,0,
2019-08-20,0.0,0.0,0.0,0,
2019-08-21,0.0,0.0,0.0,0,
2019-08-22,0.0,0.0,0.0,0,
2019-08-23,0.0,0.0,0.0,0,
2019-08-25,0.0,0.0,0.0,0,
2019-08-26,0.0,0.0,0.0,0,
2019-08-27,0.0,0.0,0.0,0,
2019-08-28,0.0,0.0,0.0,0,
2019-08-29,0.0,0.0,0.0,0,
2019-08-30,0.0,0.0,0.0,0,
2019-09-01,0.0,0.0,0.0,0,
2019-09-02,0.0,0.0,0.0,0,
2019-09-03,0.0,0.0,0.0,0,
2019-09-04,0.0,0.0,0.0,0,
2019-09-05,0.0,0.0,0.0,0,
2019-09-06,0.0,0.0,0.0,0,
2019-09-08,0.0,0.0,0.0,0,
2019-09-09,0.0,0.0,0.0,0,
2019-09-10,0.0,0.0,0.0,0,
2019-09-11,0.0,0.0,0.0,0,
2019-09-12,0.0,0.0,0.0,0,
2019-09-13,0.0,0.0,0.0,0,
2019-09-15,0.0,0.0,0.0,0,
2019-09-16,0.0,0.0,0.0,0,
2019-09-17,0.0,0.0,0.0,0,
2019-09-18,0.0,0.0,0.0,0,
2019-09-19,0.0,0.0,0.0,0,
2019-09-20,0.0,0.0,0.0,0,
2019-09-22,0.0,0.0,0.0,0,
2019-09-23,0.0,0.0,0.0,0,
2019-09-24,0.0,0.0,0.0,0,
2019-09-25,0.0,0.0,0.0,0,
2019-09-26,0.0,0.0,0.0,0,
2019-09-27,0.0,0.0,0.0,0,
2019-09-29,0.0,0.0,0.0,0,
2019-09-30,0.0,0.0,0.0,0,
2019-10-01,0.0,0.0,0.0,0,
2019-10-02,0.0,0.0,0.0,0,
2019-10-03,0.0,0.0,0.0,0,
2019-10-04,0.0,0.0,0.0,0,
2019-10-06,0.0,0.0,0.0,0,
2019-10-07,0.0,0.0,0.0,0,
2019-10-08,0.0,0.0,0.0,0,
2019-10-09,0.0,0.0,0.0,0,
2019-10-10,0.0,0.0,0.0,0,
2019-10-11,0.0,0.0,0.0,0,
2019-10-13,0.0,0.0,0.0,0,
2019-10-14,0.0,0.0,0.0,0,
2019-10-15,0.0,0.0,0.0,0,
2019-10-16,0.0,0.0,0.0,0,
2019-10-17,0.0,0.0,0.0,0,
2019-10-18,0.0,0.0,0.0,0,
2019-10-20,0.0,0.0,0.0,0,
2019-10-21,0.0,0.0,0.0,0,
2019-10-22,0.0,0.0,0.0,0,
2019-10-23,0.0,0.0,0.0,0,
2019-10-24,0.0,0.0,0.0,0,
2019-10-25,0.0,0.0,0.0,0,
2019-10-27,0.0,0.0,0.0,0,
2019-10-28,0.0,0.0,0.0,0,
2019-10-29,0.0,0.0,0.0,0,
2019-10-30,0.0,0.0,0.0,0,
2019-10-31,0.0,0.0,0.0,0,
2019-11-01,0.0,0.0,0.0,0,
2019-11-03,0.0,0.0,0.0,0,
2019-11-04,0.0,0.0,0.0,0,
2019-11-05,0.0,0.0,0.0,0,
2019-11-06,0.0,0.0,0.0,0,
2019-11-07,0.0,0.0,0.0,0,
2019-11-08,0.0,0.0,0.0,0,
2019-11-10,0.0,0.0,0.0,0,
2019-11-11,0.0,0.0,0.0,0,
2019-11-12,0.0,0.0,0.0,0,
2019-11-13,0.0,0.0,0.0,0,
2019-11-14,0.0,0.0,0.0,0,
2019-11-15,0.0,0.0,0.0,0,
2019-11-17,0.0,0.0,0.0,0,
2019-11-18,0.0,0.0,0.0,0,
2019-11-19,0.0,0.0,0.0,0,
2019-11-20,0.0,0.0,0.0,0,
2019-11-21,0.0,0.0,0.0,0,
2019-11-22,0.0,0.0,0.0,0,
2019-11-24,0.0,0.0,0.0,0,
2019-11-25,0.0,0.0,0.0,0,
2019-11-26,0.0,0.0,0.0,0,
2019-11-27,0.0,0.0,0.0,0,
2019-11-28,0.0,0.0,0.0,0,
2019-11-29,0.0,0.0,0.0,0,
2019-12-01,0.0,0.0,0.0,0,
2019-12-02,0.0,0.0,0.0,0,
2019-12-03,0.0,0.0,0.0,0,
2019-12-04,0.0,0.0,0.0,0,
2019-12-05,0.0,0.0,0.0,0,
2019-12-06,0.0,0.0,0.0,0,
2019-12-08,0.0,0.0,0.0,0,
2019-12-09,0.0,0.0,0.0,0,
2019-12-10,0.0,0.0,0.0,0,
2019-12-11,0.0,0.0,0.0,0,
2019-12-12,0.0,0.0,0.0,0,
2019-12-13,0.0,0.0,0.0,0,
2019-12-15,0.0,0.0,0.0,0,
2019-12-16,0.0,0.0,0.0,0,
2019-12-17,0.0,0.0,0.0,0,
2019-12-18,0.0,0.0,0.0,0,
2019-12-19,0.0,0.0,0.0,0,
2019-12-20,0.0,0.0,0.0,0,
2019-12-22,0.0,0.0,0.0,0,
2019-12-23,0.0,0.0,0.0,0,
2019-12-24,0.0,0.0,0.0,0,
2019-12-25,0.0,0.0,0.0,0,
2019-12-26,0.0,0.0,0.0,0,
2019-12-27,0.0,0.0,0.0,0,
2019-12-29,0.0,0.0,0.0,0,
2019-12-30,0.0,0.0,0.0,0,
2019-12-31,0.0,0.0,0.0,0,
2020-01-01,0.0,0.0,0.0,0,
2020-01-02,0.0,0.0,0.0,0,
2020-01-03,0.0,0.0,0.0,0,
2020-01-05,0.0,0.0,0.0,0,
2020-01-06,0.0,0.0,0.0,0,
2020-01-07,0.0,0.0,0.0,0,
2020-01-08,0.0,0.0,0.0,0,
2020-01-09,0.0,0.0,0.0,0,
2020-01-10,0.0,0.0,0.0,0,
2020-01-12,0.0,0.0,0.0,0,
2020-01-13,0.0,0.0,0.0,0,
2020-01-14,0.0,0.0,0.0,0,
2020-01-15,0.0,0.0,0.0,0,
2020-01-16,0.0,0.0,0.0,0,
2020-01-17,0.0,0.0,0.0,0,
2020-01-19,0.0,0.0,0.0,0,
2020-01-20,0.0,0.0,0.0,0,
2020-01-21,0.0,0.0,0.0,0,
2020-01-22,0.0,0.0,0.0,0,
2020-01-23,0.0,0.0,0.0,0,
2020-01-24,0.0,0.0,0.0,0,
2020-01-26,0.0,0.0,0.0,0,
2020-01-27,0.0,0.0,0.0,0,
2020-01-28,0.0,0.0,0.0,0,
2020-01-29,0.0,0.0,0.0,0,
2020-01-30,0.0,0.0,0.0,0,
2020-01-31,0.0,0.0,0.0,0,
2020-02-02,0.0,0.0,0.0,0,
2020-02-03,0.0,0.0,0.0,0,
2020-02-04,0.0,0.0,0.0,0,
2020-02-05,0.0,0.0,0.0,0,
2020-02-06,0.0,0.0,0.0,0,
2020-02-07,0.0,0.0,0.0,0,
2020-02-09,0.0,0.0,0.0,0,
2020-02-10,0.0,0.0,0.0,0,
2020-02-11,0.0,0.0,0.0,0,
2020-02-12,0.0,0.0,0.0,0,
2020-02-13,0.0,0.0,0.0,0,
2020-02-14,0.0,0.0,0.0,0,
2020-02-16,0.0,0.0,0.0,0,
2020-02-17,0.0,0.0,0.0,0,
2020-02-18,0.0,0.0,0.0,0,
2020-02-19,0.0,0.0,0.0,0,
2020-02-20,0.0,0.0,0.0,0,
2020-02-21,0.0,0.0,0.0,0,
2020-02-23,0.0,0.0,0.0,0,
2020-02-24,0.0,0.0,0.0,0,
2020-02-25,0.0,0.0,0.0,0,
2020-02-26,0.0,0.0,0.0,0,
2020-02-27,0.0,0.0,0.0,0,
2020-02-28,0.0,0.0,0.0,0,
2020-03-01,0.0,0.0,0.0,0,
2020-03-02,0.0,0.0,0.0,0,
2020-03-03,0.0,0.0,0.0,0,
2020-03-04,0.0,0.0,0.0,0,
2020-03-05,0.0,0.0,0.0,0,
2020-03-06,0.0,0.0,0.0,0,
2020-03-08,0.0,0.0,0.0,0,
2020-03-09,0.0,0.0,0.0,0,
2020-03-10,0.0,0.0,0.0,0,
2020-03-11,0.0,0.0,0.0,0,
2020-03-12,0.0,0.0,0.0,0,
2020-03-13,0.0,0.0,0.0,0,
2020-03-15,0.0,0.0,0.0,0,
2020-03-16,0.0,0.0,0.0,0,
2020-03-17,0.0,0.0,0.0,0,
2020-03-18,0.0,0.0,0.0,0,
2020-03-19,0.0,0.0,0.0,0,
2020-03-20,0.0,0.0,0.0,0,
2020-03-22,0.0,0.0,0.0,0,
2020-03-23,0.0,0.0,0.0,0,
2020-03-24,0.0,0.0,0.0,0,
2020-03-25,0.0,0.0,0.0,0,
2020-03-26,0.0,0.0,0.0,0,
2020-03-27,0.0,0.0,0.0,0,
2020-03-29,0.0,0.0,0.0,0,
2020-03-30,0.0,0.0,0.0,0,
2020-03-31,0.0,0.0,0.0,0,
2020-04-01,0.0,0.0,0.0,0,
2020-04-02,0.0,0.0,0.0,0,
2020-04-03,0.0,0.0,0.0,0,
2020-04-05,0.0,0.0,0.0,0,
2020-04-06,0.0,0.0,0.0,0,
2020-04-07,0.0,0.0,0.0,0,
2020-04-08,0.0,0.0,0.0,0,
2020-04-09,0.0,0.0,0.0,0,
2020-04-12,0.0,0.0,0.0,0,
2020-04-13,0.0,0.0,0.0,0,
2020-04-14,0.0,0.0,0.0,0,
2020-04-15,0.0,0.0,0.0,0,
2020-04-16,0.0,0.0,0.0,0,
2020-04-17,0.0,0.0,0.0,0,
2020-04-19,0.0,0.0,0.0,0,
2020-04-20,0.0,0.0,0.0,0,
2020-04-21,0.0,0.0,0.0,0,
2020-04-22,0.0,0.0,0.0,0,
2020-04-23,0.0,0.0,0.0,0,
2020-04-24,0.0,0.0,0.0,0,
2020-04-26,0.0,0.0,0.0,0,
2020-04-27,0.0,0.0,0.0,0,
2020-04-28,0.0,0.0,0.0,0,
2020-04-29,0.0,0.0,0.0,0,
2020-04-30,0.0,0.0,0.0,0,
2020-05-01,0.0,0.0,0.0,0,
2020-05-03,0.0,0.0,0.0,0,
2020-05-04,0.0,0.0,0.0,0,
2020-05-05,0.0,0.0,0.0,0,
2020-05-06,0.0,0.0,0.0,0,
2020-05-07,0.0,0.0,0.0,0,
2020-05-08,0.0,0.0,0.0,0,
2020-05-10,0.0,0.0,0.0,0,
2020-05-11,0.0,0.0,0.0,0,
2020-05-12,0.0,0.0,0.0,0,
2020-05-13,0.0,0.0,0.0,0,
2020-05-14,0.0,0.0,0.0,0,
2020-05-15,0.0,0.0,0.0,0,
2020-05-17,0.0,0.0,0.0,0,
2020-05-18,0.0,0.0,0.0,0,
2020-05-19,0.0,0.0,0.0,0,
2020-05-20,0.0,0.0,0.0,0,
2020-05-21,0.0,0.0,0.0,0,
2020-05-22,0.0,0.0,0.0,0,
2020-05-24,0.0,0.0,0.0,0,
2020-05-25,0.0,0.0,0.0,0,
2020-05-26,0.0,0.0,0.0,0,
2020-05-27,0.0,0.0,0.0,0,
2020-05-28,0.0,0.0,0.0,0,
2020-05-29,0.0,0.0,0.0,0,
2020-05-31,0.0,0.0,0.0,0,
2020-06-01,0.0,0.0,0.0,0,
2020-06-02,0.0,0.0,0.0,0,
2020-06-03,0.0,0.0,0.0,0,
2020-06-04,0.0,0.0,0.0,0,
2020-06-05,0.0,0.0,0.0,0,
2020-06-07,0.0,0.0,0.0,0,
2020-06-08,0.0,0.0,0.0,0,
2020-06-09,0.0,0.0,0.0,0,
2020-06-10,0.0,0.0,0.0,0,
2020-06-11,0.0,0.0,0.0,0,
2020-06-12,0.0,0.0,0.0,0,
2020-06-14,0.0,0.0,0.0,0,
2020-06-15,0.0,0.0,0.0,0,
2020-06-16,0.0,0.0,0.0,0,
2020-06-17,0.0,0.0,0.0,0,
2020-06-18,0.0,0.0,0.0,0,
2020-06-19,0.0,0.0,0.0,0,
2020-06-21,0.0,0.0,0.0,0,
2020-06-22,0.0,0.0,0.0,0,
2020-06-23,0.0,0.0,0.0,0,
2020-06-24,0.0,0.0,0.0,0,
2020-06-25,0.0,0.0,0.0,0,
2020-06-26,0.0,0.0,0.0,0,
2020-06-28,0.0,0.0,0.0,0,
2020-06-29,0.0,0.0,0.0,0,
2020-06-30,0.0,0.0,0.0,0,
2020-07-01,0.0,0.0,0.0,0,
2020-07-02,0.0,0.0,0.0,0,
2020-07-03,0.0,0.0,0.0,0,
2020-07-05,0.0,0.0,0.0,0,
2020-07-06,0.0,0.0,0.0,0,
2020-07-07,0.0,0.0,0.0,0,
2020-07-08,0.0,0.0,0.0,0,
2020-07-09,0.0,0.0,0.0,0,
2020-07-10,0.0,0.0,0.0,0,
2020-07-12,0.0,0.0,0.0,0,
2020-07-13,0.0,0.0,0.0,0,
2020-07-14,0.0,0.0,0.0,0,
2020-07-15,0.0,0.0,0.0,0,
2020-07-16,0.0,0.0,0.0,0,
2020-07-17,0.0,0.0,0.0,0,
2020-07-19,0.0,0.0,0.0,0,
2020-07-20,0.0,0.0,0.0,0,
2020-07-21,0.0,0.0,0.0,0,
2020-07-22,0.0,0.0,0.0,0,
2020-07-23,0.0,0.0,0.0,0,
2020-07-24,0.0,0.0,0.0,0,
2020-07-26,0.0,0.0,0.0,0,
2020-07-27,0.0,0.0,0.0,0,
2020-07-28,0.0,0.0,0.0,0,
2020-07-29,0.0,0.0,0.0,0,
2020-07-30,0.0,0.0,0.0,0,
2020-07-31,0.0,0.0,0.0,0,
2020-08-02,0.0,0.0,0.0,0,
2020-08-03,0.0,0.0,0.0,0,
2020-08-04,0.0,0.0,0.0,0,
2020-08-05,0.0,0.0,0.0,0,
2020-08-06,0.0,0.0,0.0,0,
2020-08-07,0.0,0.0,0.0,0,
2020-08-09,0.0,0.0,0.0,0,
2020-08-10,0.0,0.0,0.0,0,
2020-08-11,0.0,0.0,0.0,0,
2020-08-12,0.0,0.0,0.0,0,
2020-08-13,0.0,0.0,0.0,0,
2020-08-14,0.0,0.0,0.0,0,
2020-08-16,0.0,0.0,0.0,0,
2020-08-17,0.0,0.0,0.0,0,
2020-08-18,0.0,0.0,0.0,0,
2020-08-19,0.0,0.0,0.0,0,
2020-08-20,0.0,0.0,0.0,0,
2020-08-21,0.0,0.0,0.0,0,
2020-08-23,0.0,0.0,0.0,0,
2020-08-24,0.0,0.0,0.0,0,
2020-08-25,0.0,0.0,0.0,0,
2020-08-26,0.0,0.0,0.0,0,
2020-08-27,0.0,0.0,0.0,0,
2020-08-28,0.0,0.0,0.0,0,
2020-08-30,0.0,0.0,0.0,0,
2020-08-31,0.0,0.0,0.0,0,
2020-09-01,0.0,0.0,0.0,0,
2020-09-02,0.0,0.0,0.0,0,
2020-09-03,0.0,0.0,0.0,0,
2020-09-04,0.0,0.0,0.0,0,
2020-09-06,0.0,0.0,0.0,0,
2020-09-07,0.0,0.0,0.0,0,
2020-09-08,0.0,0.0,0.0,0,
2020-09-09,0.0,0.0,0.0,0,
2020-09-10,0.0,0.0,0.0,0,
2020-09-11,0.0,0.0,0.0,0,
2020-09-13,0.0,0.0,0.0,0,
2020-09-14,0.0,0.0,0.0,0,
2020-09-15,0.0,0.0,0.0,0,
2020-09-16,0.0,0.0,0.0,0,
2020-09-17,0.0,0.0,0.0,0,
2020-09-18,0.0,0.0,0.0,0,
2020-09-20,0.0,0.0,0.0,0,
2020-09-21,0.0,0.0,0.0,0,
2020-09-22,0.0,0.0,0.0,0,
2020-09-23,0.0,0.0,0.0,0,
2020-09-24,0.0,0.0,0.0,0,
2020-09-25,0.0,0.0,0.0,0,
2020-09-27,0.0,0.0,0.0,0,
2020-09-28,0.0,0.0,0.0,0,
2020-09-29,0.0,0.0,0.0,0,
2020-09-30,0.0,0.0,0.0,0,
2020-10-01,0.0,0.0,0.0,0,
2020-10-02,0.0,0.0,0.0,0,
2020-10-04,0.0,0.0,0.0,0,
2020-10-05,0.0,0.0,0.0,0,
2020-10-06,0.0,0.0,0.0,0,
2020-10-07,0.0,0.0,0.0,0,
2020-10-08,0.0,0.0,0.0,0,
2020-10-09,0.0,0.0,0.0,0,
2020-10-11,0.0,44.25,44.25,3,Long
2020-10-12,0.0,1141.5,1141.5,3,Long
2020-10-13,0.0,1158.0,1158.0,3,Long
2020-10-14,0.0,696.75,696.75,3,Long
2020-10-15,0.0,560.25,560.25,3,Long
2020-10-16,0.0,193.5,193.5,3,Long
2020-10-18,0.0,432.75,432.75,3,Long
2020-10-19,0.0,-41.25,-41.25,3,Long
2020-10-20,-40.5,0.0,-40.5,0,
2020-10-21,-40.5,0.0,-40.5,0,
2020-10-22,-40.5,0.0,-40.5,0,
2020-10-23,-40.5,0.0,-40.5,0,
2020-10-25,-40.5,0.0,-40.5,0,
2020-10-26,-40.5,0.0,-40.5,0,
2020-10-27,-40.5,0.0,-40.5,0,
2020-10-28,-40.5,0.0,-40.5,0,
2020-10-29,-40.5,0.0,-40.5,0,
2020-10-30,-40.5,0.0,-40.5,0,
2020-11-01,-40.5,0.0,-40.5,0,
2020-11-02,-40.5,0.0,-40.5,0,
2020-11-03,-40.5,0.0,-40.5,0,
2020-11-04,-40.5,1434.0,1393.5,3,Long
2020-11-05,-40.5,2249.25,2208.75,3,Long
2020-11-06,-40.5,2333.25,2292.75,3,Long
2020-11-08,-40.5,2746.5,2706.0,3,Long
2020-11-09,-40.5,1611.75,1571.25,3,Long
2020-11-10,-40.5,841.5,801.0,3,Long
2020-11-11,-40.5,1738.5,1698.0,3,Long
2020-11-12,-40.5,1603.5,1563.0,3,Long
2020-11-13,-40.5,1900.5,1860.0,4,Long
2020-11-15,-40.5,2297.5,2257.0,4,Long
2020-11-16,-40.5,2310.5,2270.0,4,Long
2020-11-17,-40.5,2032.5,1992.0,4,Long
2020-11-18,-40.5,1637.5,1597.0,4,Long
2020-11-19,-40.5,1865.5,1825.0,4,Long
2020-11-20,-40.5,1760.5,1720.0,4,Long
2020-11-22,-40.5,1841.5,1801.0,4,Long
2020-11-23,-40.5,1923.5,1883.0,4,Long
2020-11-24,-40.5,2620.5,2580.0,4,Long
2020-11-25,-40.5,2834.5,2794.0,4,Long
2020-11-26,-40.5,2734.5,2694.0,4,Long
2020-11-27,-40.5,3210.5,3170.0,5,Long
2020-11-29,-40.5,3426.75,3386.25,5,Long
2020-11-30,-40.5,3586.75,3546.25,5,Long
2020-12-01,-40.5,4096.75,4056.25,5,Long
2020-12-02,-40.5,4173.0,4132.5,5,Long
2020-12-03,-40.5,4268.0,4227.5,5,Long
2020-12-04,-40.5,4393.0,4352.5,5,Long
2020-12-06,-40.5,4565.5,4525.0,5,Long
2020-12-07,-40.5,4718.0,4677.5,5,Long
2020-12-08,-40.5,5078.0,5037.5,5,Long
2020-12-09,-40.5,3658.0,3617.5,5,Long
2020-12-10,-40.5,3858.0,3817.5,5,Long
2020-12-11,-40.5,3700.0,3659.5,6,Long
2020-12-13,-40.5,4000.0,3959.5,6,Long
2020-12-14,-40.5,4378.0,4337.5,6,Long
2020-12-15,-40.5,5071.0,5030.5,6,Long
2020-12-16,-40.5,5597.5,5557.0,6,Long
2020-12-17,-40.5,6001.0,5960.5,6,Long
2020-12-18,-40.5,5990.5,5950.0,6,Long
2020-12-20,-40.5,5995.0,5954.5,6,Long
2020-12-21,-40.5,5708.5,5668.0,6,Long
2020-12-22,-40.5,5822.5,5782.0,6,Long
2020-12-23,-40.5,5429.5,5389.0,6,Long
2020-12-24,-40.5,5725.0,5684.5,6,Long
2020-12-27,-40.5,5906.5,5866.0,6,Long
2020-12-28,-40.5,6611.5,6571.0,6,Long
2020-12-29,-40.5,6568.0,6527.5,6,Long
2020-12-30,-40.5,6592.0,6551.5,6,Long
2020-12-31,-40.5,6806.5,6766.0,6,Long
2021-01-03,-40.5,6683.5,6643.0,6,Long
2021-01-04,-40.5,5549.5,5509.0,6,Long
2021-01-05,-40.5,6269.5,6229.0,6,Long
2021-01-06,-40.5,5537.5,5497.0,6,Long
2021-01-07,-40.5,7130.5,7090.0,6,Long
2021-01-08,-40.5,8292.5,8252.0,7,Long
2021-01-10,-40.5,7998.5,7958.0,7,Long
2021-01-11,-40.5,6875.0,6834.5,7,Long
2021-01-12,-40.5,6698.25,6657.75,7,Long
2021-01-13,-40.5,7211.0,7170.5,7,Long
2021-01-14,-40.5,6840.0,6799.5,7,Long
2021-01-15,-40.5,5767.25,5726.75,7,Long
2021-01-17,-40.5,5643.0,5602.5,7,Long
2021-01-18,-40.5,6241.5,6201.0,7,Long
2021-01-19,-40.5,7769.25,7728.75,7,Long
2021-01-20,-40.5,9622.5,9582.0,7,Long
2021-01-21,-40.5,10107.25,10066.75,7,Long
2021-01-22,-40.5,9851.75,9811.25,8,Long
2021-01-24,-40.5,10221.75,10181.25,8,Long
2021-01-25,-40.5,10733.75,10693.25,8,Long
2021-01-26,-40.5,11511.75,11471.25,8,Long
2021-01-27,-40.5,6861.75,6821.25,8,Long
2021-01-28,-40.5,8131.75,8091.25,8,Long
2021-01-29,8093.25,0.0,8093.25,0,
2021-01-31,8093.25,0.0,8093.25,0,
2021-02-01,8093.25,0.0,8093.25,0,
2021-02-02,8093.25,0.0,8093.25,0,
2021-02-03,8093.25,0.0,8093.25,0,
2021-02-04,8093.25,0.0,8093.25,0,
2021-02-05,8093.25,0.0,8093.25,0,
2021-02-07,8093.25,0.0,8093.25,0,
2021-02-08,8093.25,0.0,8093.25,0,
2021-02-09,8093.25,0.0,8093.25,0,
2021-02-10,8093.25,0.0,8093.25,0,
2021-02-11,8093.25,0.0,8093.25,0,
2021-02-12,8093.25,0.0,8093.25,0,
2021-02-14,8093.25,0.0,8093.25,0,
2021-02-15,8093.25,0.0,8093.25,0,
2021-02-16,8093.25,0.0,8093.25,0,
2021-02-17,8093.25,0.0,8093.25,0,
2021-02-18,8093.25,0.0,8093.25,0,
2021-02-19,8093.25,0.0,8093.25,0,
2021-02-21,8093.25,0.0,8093.25,0,
2021-02-22,8093.25,0.0,8093.25,0,
2021-02-23,8093.25,0.0,8093.25,0,
2021-02-24,8093.25,0.0,8093.25,0,
2021-02-25,8093.25,0.0,8093.25,0,
2021-02-26,8093.25,0.0,8093.25,0,
2021-02-28,8093.25,0.0,8093.25,0,
2021-03-01,8093.25,0.0,8093.25,0,
2021-03-02,8093.25,0.0,8093.25,0,
2021-03-03,8093.25,0.0,8093.25,0,
2021-03-04,8093.25,0.0,8093.25,0,
2021-03-05,8093.25,0.0,8093.25,0,
2021-03-07,8093.25,0.0,8093.25,0,
2021-03-08,8093.25,0.0,8093.25,0,
2021-03-09,8093.25,0.0,8093.25,0,
2021-03-10,8093.25,0.0,8093.25,0,
2021-03-11,8093.25,0.0,8093.25,0,
2021-03-12,8093.25,0.0,8093.25,0,
2021-03-14,8093.25,0.0,8093.25,0,
2021-03-15,8093.25,0.0,8093.25,0,
2021-03-16,8093.25,0.0,8093.25,0,
2021-03-17,8093.25,0.0,8093.25,0,
2021-03-18,8093.25,0.0,8093.25,0,
2021-03-19,8093.25,0.0,8093.25,0,
2021-03-21,8093.25,0.0,8093.25,0,
2021-03-22,8093.25,0.0,8093.25,0,
2021-03-23,8093.25,0.0,8093.25,0,
2021-03-24,8093.25,0.0,8093.25,0,
2021-03-25,8093.25,0.0,8093.25,0,
2021-03-26,8093.25,0.0,8093.25,0,
2021-03-28,8093.25,0.0,8093.25,0,
2021-03-29,8093.25,0.0,8093.25,0,
2021-03-30,8093.25,0.0,8093.25,0,
2021-03-31,8093.25,0.0,8093.25,0,
2021-04-01,8093.25,0.0,8093.25,0,
2021-04-02,8093.25,0.0,8093.25,0,
2021-04-04,8093.25,0.0,8093.25,0,
2021-04-05,8093.25,0.0,8093.25,0,
2021-04-06,8093.25,0.0,8093.25,0,
2021-04-07,8093.25,0.0,8093.25,0,
2021-04-08,8093.25,0.0,8093.25,0,
2021-04-09,8093.25,0.0,8093.25,0,
2021-04-11,8093.25,0.0,8093.25,0,
2021-04-12,8093.25,0.0,8093.25,0,
2021-04-13,8093.25,0.0,8093.25,0,
2021-04-14,8093.25,0.0,8093.25,0,
2021-04-15,8093.25,0.0,8093.25,0,
2021-04-16,8093.25,0.0,8093.25,0,
2021-04-18,8093.25,0.0,8093.25,0,
2021-04-19,8093.25,0.0,8093.25,0,
2021-04-20,8093.25,0.0,8093.25,0,
2021-04-21,8093.25,0.0,8093.25,0,
2021-04-22,8093.25,0.0,8093.25,0,
2021-04-23,8093.25,0.0,8093.25,0,
2021-04-25,8093.25,0.0,8093.25,0,
2021-04-26,8093.25,0.0,8093.25,0,
2021-04-27,8093.25,0.0,8093.25,0,
2021-04-28,8093.25,0.0,8093.25,0,
2021-04-29,8093.25,0.0,8093.25,0,
2021-04-30,8093.25,0.0,8093.25,0,
2021-05-02,8093.25,0.0,8093.25,0,
2021-05-03,8093.25,0.0,8093.25,0,
2021-05-04,8093.25,0.0,8093.25,0,
2021-05-05,8093.25,0.0,8093.25,0,
2021-05-06,8093.25,0.0,8093.25,0,
2021-05-07,8093.25,0.0,8093.25,0,
2021-05-09,8093.25,0.0,8093.25,0,
2021-05-10,8093.25,0.0,8093.25,0,
2021-05-11,8093.25,0.0,8093.25,0,
2021-05-12,8093.25,0.0,8093.25,0,
2021-05-13,8093.25,0.0,8093.25,0,
2021-05-14,8093.25,0.0,8093.25,0,
2021-05-16,8093.25,0.0,8093.25,0,
2021-05-17,8093.25,0.0,8093.25,0,
2021-05-18,8093.25,0.0,8093.25,0,
2021-05-19,8093.25,0.0,8093.25,0,
2021-05-20,8093.25,0.0,8093.25,0,
2021-05-21,8093.25,0.0,8093.25,0,
2021-05-23,8093.25,0.0,8093.25,0,
2021-05-24,8093.25,0.0,8093.25,0,
2021-05-25,8093.25,0.0,8093.25,0,
2021-05-26,8093.25,0.0,8093.25,0,
2021-05-27,8093.25,0.0,8093.25,0,
2021-05-28,8093.25,0.0,8093.25,0,
2021-05-30,8093.25,0.0,8093.25,0,
2021-05-31,8093.25,0.0,8093.25,0,
2021-06-01,8093.25,0.0,8093.25,0,
2021-06-02,8093.25,0.0,8093.25,0,
2021-06-03,8093.25,0.0,8093.25,0,
2021-06-04,8093.25,781.5,8874.75,3,Long
2021-06-06,8093.25,792.0,8885.25,3,Long
2021-06-07,8093.25,957.75,9051.0,3,Long
2021-06-08,8093.25,940.5,9033.75,3,Long
2021-06-09,8093.25,934.5,9027.75,3,Long
2021-06-10,8093.25,1392.75,9486.0,3,Long
2021-06-11,8093.25,1443.75,9537.0,3,Long
2021-06-13,8093.25,1518.0,9611.25,3,Long
2021-06-14,8093.25,1808.25,9901.5,3,Long
2021-06-15,8093.25,1583.25,9676.5,3,Long
2021-06-16,8093.25,1149.0,9242.25,3,Long
2021-06-17,8093.25,2016.0,10109.25,3,Long
2021-06-18,8093.25,1498.5,9591.75,4,Long
2021-06-20,8093.25,1579.5,9672.75,4,Long
2021-06-21,8093.25,1966.5,10059.75,4,Long
2021-06-22,8093.25,2516.5,10609.75,4,Long
2021-06-23,8093.25,2571.5,10664.75,4,Long
2021-06-24,8093.25,2812.5,10905.75,4,Long
2021-06-25,8093.25,2751.5,10844.75,4,Long
2021-06-27,8093.25,2845.5,10938.75,4,Long
2021-06-28,8093.25,3393.5,11486.75,4,Long
2021-06-29,8093.25,3777.5,11870.75,4,Long
2021-06-30,8093.25,3668.5,11761.75,4,Long
2021-07-01,8093.25,3558.5,11651.75,4,Long
2021-07-02,8093.25,4213.5,12306.75,5,Long
2021-07-04,8093.25,4283.5,12376.75,5,Long
2021-07-05,8093.25,4282.25,12375.5,5,Long
2021-07-06,8093.25,4534.75,12628.0,5,Long
2021-07-07,8093.25,4762.25,12855.5,5,Long
2021-07-08,8093.25,4171.0,12264.25,5,Long
2021-07-09,8093.25,4783.5,12876.75,5,Long
2021-07-11,8093.25,4858.5,12951.75,5,Long
2021-07-12,8093.25,5109.75,13203.0,5,Long
2021-07-13,8093.25,4936.0,13029.25,5,Long
2021-07-14,8093.25,5232.25,13325.5,5,Long
2021-07-15,8093.25,4496.0,12589.25,5,Long
2021-07-16,8093.25,4073.5,12166.75,6,Long
2021-07-18,8093.25,3908.5,12001.75,6,Long
2021-07-19,8093.25,3589.0,11682.25,6,Long
2021-07-20,8093.25,4510.0,12603.25,6,Long
2021-07-21,8093.25,5065.0,13158.25,6,Long
2021-07-22,8093.25,5876.5,13969.75,6,Long
2021-07-23,8093.25,6607.0,14700.25,6,Long
2021-07-25,8093.25,6778.0,14871.25,6,Long
2021-07-26,8093.25,6721.0,14814.25,6,Long
2021-07-27,8093.25,5573.5,13666.75,6,Long
2021-07-28,8093.25,5981.5,14074.75,6,Long
2021-07-29,8093.25,5272.0,13365.25,6,Long
2021-07-30,8093.25,5875.5,13968.75,7,Long
2021-08-01,8093.25,6117.0,14210.25,7,Long
2021-08-02,8093.25,5833.5,13926.75,7,Long
2021-08-03,8093.25,6321.75,14415.0,7,Long
2021-08-04,8093.25,6691.0,14784.25,7,Long
2021-08-05,8093.25,7228.25,15321.5,7,Long
2021-08-06,8093.25,6754.0,14847.25,7,Long
2021-08-08,8093.25,6258.75,14352.0,7,Long
2021-08-09,8093.25,6936.0,15029.25,7,Long
2021-08-10,8093.25,6353.25,14446.5,7,Long
2021-08-11,8093.25,6075.0,14168.25,7,Long
2021-08-12,8093.25,6579.0,14672.25,7,Long
2021-08-13,8093.25,6979.0,15072.25,8,Long
2021-08-15,8093.25,6901.0,14994.25,8,Long
2021-08-16,8093.25,7033.0,15126.25,8,Long
2021-08-17,8093.25,5645.0,13738.25,8,Long
2021-08-18,8093.25,4753.0,12846.25,8,Long
2021-08-19,8093.25,5323.0,13416.25,8,Long
2021-08-20,8093.25,6749.0,14842.25,8,Long
2021-08-22,8093.25,6847.0,14940.25,8,Long
2021-08-23,8093.25,8625.0,16718.25,8,Long
2021-08-24,8093.25,8851.0,16944.25,8,Long
2021-08-25,8093.25,8883.0,16976.25,8,Long
2021-08-26,8093.25,8215.0,16308.25,8,Long
2021-08-27,8093.25,9408.25,17501.5,9,Long
2021-08-29,8093.25,9628.75,17722.0,9,Long
2021-08-30,8093.25,10940.5,19033.75,9,Long
2021-08-31,8093.25,10929.25,19022.5,9,Long
2021-09-01,8093.25,11122.75,19216.0,9,Long
2021-09-02,8093.25,10929.25,19022.5,9,Long
2021-09-03,8093.25,11437.75,19531.0,9,Long
2021-09-05,8093.25,11408.5,19501.75,9,Long
2021-09-06,8093.25,11759.5,19852.75,9,Long
2021-09-07,8093.25,11514.25,19607.5,9,Long
2021-09-08,8093.25,10956.25,19049.5,9,Long
2021-09-09,8093.25,10632.25,18725.5,9,Long
2021-09-10,8093.25,9489.0,17582.25,10,Long
2021-09-12,8093.25,9956.5,18049.75,10,Long
2021-09-13,8093.25,9564.0,17657.25,10,Long
2021-09-14,8093.25,9181.5,17274.75,10,Long
2021-09-15,8093.25,10129.0,18222.25,10,Long
2021-09-16,8093.25,9926.5,18019.75,10,Long
2021-09-17,18019.75,0.0,18019.75,0,
2021-09-19,18019.75,0.0,18019.75,0,
2021-09-20,18019.75,0.0,18019.75,0,
2021-09-21,18019.75,0.0,18019.75,0,
2021-09-22,18019.75,0.0,18019.75,0,
2021-09-23,18019.75,0.0,18019.75,0,
2021-09-24,18019.75,0.0,18019.75,0,
2021-09-26,18019.75,0.0,18019.75,0,
2021-09-27,18019.75,0.0,18019.75,0,
2021-09-28,18019.75,0.0,18019.75,0,
2021-09-29,18019.75,0.0,18019.75,0,
2021-09-30,18019.75,0.0,18019.75,0,
2021-10-01,18019.75,0.0,18019.75,0,
2021-10-03,18019.75,0.0,18019.75,0,
2021-10-04,18019.75,0.0,18019.75,0,
2021-10-05,18019.75,0.0,18019.75,0,
2021-10-06,18019.75,0.0,18019.75,0,
2021-10-07,18019.75,0.0,18019.75,0,
2021-10-08,18019.75,0.0,18019.75,0,
2021-10-10,18019.75,0.0,18019.75,0,
2021-10-11,18019.75,0.0,18019.75,0,
2021-10-12,18019.75,0.0,18019.75,0,
2021-10-13,18019.75,0.0,18019.75,0,
2021-10-14,18019.75,0.0,18019.75,0,
2021-10-15,18019.75,0.0,18019.75,0,
2021-10-17,18019.75,0.0,18019.75,0,
2021-10-18,18019.75,630.0,18649.75,3,Long
2021-10-19,18019.75,981.75,19001.5,3,Long
2021-10-20,18019.75,759.75,18779.5,3,Long
2021-10-21,18019.75,929.25,18949.0,3,Long
2021-10-22,18019.75,726.0,18745.75,3,Long
2021-10-24,18019.75,672.75,18692.5,3,Long
2021-10-25,18019.75,1371.0,19390.75,3,Long
2021-10-26,18019.75,1434.0,19453.75,3,Long
2021-10-27,18019.75,1632.75,19652.5,3,Long
2021-10-28,18019.75,1770.75,19790.5,3,Long
2021-10-29,18019.75,2428.75,20448.5,4,Long
2021-10-31,18019.75,2474.75,20494.5,4,Long
2021-11-01,18019.75,2457.75,20477.5,4,Long
2021-11-02,18019.75,2723.75,20743.5,4,Long
2021-11-03,18019.75,3696.75,21716.5,4,Long
2021-11-04,18019.75,4313.75,22333.5,4,Long
2021-11-05,18019.75,4325.75,22345.5,4,Long
2021-11-07,18019.75,4201.75,22221.5,4,Long
2021-11-08,18019.75,4195.75,22215.5,4,Long
2021-11-09,18019.75,3695.75,21715.5,4,Long
2021-11-10,18019.75,2914.75,20934.5,4,Long
2021-11-11,18019.75,3210.75,21230.5,4,Long
2021-11-12,18019.75,3780.25,21800.0,5,Long
2021-11-14,18019.75,3902.75,21922.5,5,Long
2021-11-15,18019.75,3720.25,21740.0,5,Long
2021-11-16,18019.75,4297.75,22317.5,5,Long
2021-11-17,18019.75,4419.0,22438.75,5,Long
2021-11-18,18019.75,5251.5,23271.25,5,Long
2021-11-19,18019.75,5712.75,23732.5,5,Long
2021-11-21,18019.75,5715.25,23735.0,5,Long
2021-11-22,18019.75,4755.25,22775.0,5,Long
2021-11-23,18019.75,4204.0,22223.75,5,Long
2021-11-24,18019.75,4560.25,22580.0,5,Long
2021-11-25,18019.75,4626.5,22646.25,5,Long
2021-11-26,22642.5,0.0,22642.5,0,
2021-11-28,22642.5,0.0,22642.5,0,
2021-11-29,22642.5,0.0,22642.5,0,
2021-11-30,22642.5,0.0,22642.5,0,
2021-12-01,22642.5,0.0,22642.5,0,
2021-12-02,22642.5,0.0,22642.5,0,
2021-12-03,22642.5,0.0,22642.5,0,
2021-12-05,22642.5,0.0,22642.5,0,
2021-12-06,22642.5,0.0,22642.5,0,
2021-12-07,22642.5,0.0,22642.5,0,
2021-12-08,22642.5,0.0,22642.5,0,
2021-12-09,22642.5,0.0,22642.5,0,
2021-12-10,22642.5,0.0,22642.5,0,
2021-12-12,22642.5,0.0,22642.5,0,
2021-12-13,22642.5,0.0,22642.5,0,
2021-12-14,22642.5,0.0,22642.5,0,
2021-12-15,22642.5,0.0,22642.5,0,
2021-12-16,22642.5,0.0,22642.5,0,
2021-12-17,22642.5,0.0,22642.5,0,
2021-12-19,22642.5,0.0,22642.5,0,
2021-12-20,22642.5,0.0,22642.5,0,
2021-12-21,22642.5,0.0,22642.5,0,
2021-12-22,22642.5,0.0,22642.5,0,
2021-12-23,22642.5,0.0,22642.5,0,
2021-12-26,22642.5,0.0,22642.5,0,
2021-12-27,22642.5,637.5,23280.0,3,Long
2021-12-28,22642.5,591.0,23233.5,3,Long
2021-12-29,22642.5,363.0,23005.5,3,Long
2021-12-30,22642.5,288.0,22930.5,3,Long
2021-12-31,22642.5,-26.25,22616.25,3,Long
2022-01-02,22680.75,0.0,22680.75,0,
2022-01-03,22680.75,0.0,22680.75,0,
2022-01-04,22680.75,0.0,22680.75,0,
2022-01-05,22680.75,0.0,22680.75,0,
2022-01-06,22680.75,0.0,22680.75,0,
2022-01-07,22680.75,0.0,22680.75,0,
2022-01-09,22680.75,0.0,22680.75,0,
2022-01-10,22680.75,0.0,22680.75,0,
2022-01-11,22680.75,0.0,22680.75,0,
2022-01-12,22680.75,0.0,22680.75,0,
2022-01-13,22680.75,0.0,22680.75,0,
2022-01-14,22680.75,0.0,22680.75,0,
2022-01-16,22680.75,0.0,22680.75,0,
2022-01-17,22680.75,0.0,22680.75,0,
2022-01-18,22680.75,0.0,22680.75,0,
2022-01-19,22680.75,0.0,22680.75,0,
2022-01-20,22680.75,0.0,22680.75,0,
2022-01-21,22680.75,0.0,22680.75,0,
2022-01-23,22680.75,0.0,22680.75,0,
2022-01-24,22680.75,0.0,22680.75,0,
2022-01-25,22680.75,0.0,22680.75,0,
2022-01-26,22680.75,0.0,22680.75,0,
2022-01-27,22680.75,0.0,22680.75,0,
2022-01-28,22680.75,0.0,22680.75,0,
2022-01-30,22680.75,0.0,22680.75,0,
2022-01-31,22680.75,0.0,22680.75,0,
2022-02-01,22680.75,0.0,22680.75,0,
2022-02-02,22680.75,0.0,22680.75,0,
2022-02-03,22680.75,0.0,22680.75,0,
2022-02-04,22680.75,0.0,22680.75,0,
2022-02-06,22680.75,0.0,22680.75,0,
2022-02-07,22680.75,0.0,22680.75,0,
2022-02-08,22680.75,0.0,22680.75,0,
2022-02-09,22680.75,0.0,22680.75,0,
2022-02-10,22680.75,0.0,22680.75,0,
2022-02-11,22680.75,0.0,22680.75,0,
2022-02-13,22680.75,0.0,22680.75,0,
2022-02-14,22680.75,0.0,22680.75,0,
2022-02-15,22680.75,0.0,22680.75,0,
2022-02-16,22680.75,0.0,22680.75,0,
2022-02-17,22680.75,0.0,22680.75,0,
2022-02-18,22680.75,0.0,22680.75,0,
2022-02-20,22680.75,0.0,22680.75,0,
2022-02-21,22680.75,0.0,22680.75,0,
2022-02-22,22680.75,0.0,22680.75,0,
2022-02-23,22680.75,0.0,22680.75,0,
2022-02-24,22680.75,0.0,22680.75,0,
2022-02-25,22680.75,0.0,22680.75,0,
2022-02-27,22680.75,0.0,22680.75,0,
2022-02-28,22680.75,0.0,22680.75,0,
2022-03-01,22680.75,0.0,22680.75,0,
2022-03-02,22680.75,0.0,22680.75,0,
2022-03-03,22680.75,0.0,22680.75,0,
2022-03-04,22680.75,0.0,22680.75,0,
2022-03-06,22680.75,0.0,22680.75,0,
2022-03-07,22680.75,0.0,22680.75,0,
2022-03-08,22680.75,0.0,22680.75,0,
2022-03-09,22680.75,0.0,22680.75,0,
2022-03-10,22680.75,0.0,22680.75,0,
2022-03-11,22680.75,0.0,22680.75,0,
2022-03-13,22680.75,0.0,22680.75,0,
2022-03-14,22680.75,0.0,22680.75,0,
2022-03-15,22680.75,0.0,22680.75,0,
2022-03-16,22680.75,0.0,22680.75,0,
2022-03-17,22680.75,0.0,22680.75,0,
2022-03-18,22680.75,0.0,22680.75,0,
2022-03-20,22680.75,0.0,22680.75,0,
2022-03-21,22680.75,0.0,22680.75,0,
2022-03-22,22680.75,0.0,22680.75,0,
2022-03-23,22680.75,0.0,22680.75,0,
2022-03-24,22680.75,0.0,22680.75,0,
2022-03-25,22680.75,0.0,22680.75,0,
2022-03-27,22680.75,0.0,22680.75,0,
2022-03-28,22680.75,0.0,22680.75,0,
2022-03-29,22680.75,0.0,22680.75,0,
2022-03-30,22680.75,0.0,22680.75,0,
2022-03-31,22680.75,0.0,22680.75,0,
2022-04-01,22680.75,0.0,22680.75,0,
2022-04-03,22680.75,0.0,22680.75,0,
2022-04-04,22680.75,0.0,22680.75,0,
2022-04-05,22680.75,0.0,22680.75,0,
2022-04-06,22680.75,0.0,22680.75,0,
2022-04-07,22680.75,0.0,22680.75,0,
2022-04-08,22680.75,0.0,22680.75,0,
2022-04-10,22680.75,0.0,22680.75,0,
2022-04-11,22680.75,0.0,22680.75,0,
2022-04-12,22680.75,0.0,22680.75,0,
2022-04-13,22680.75,0.0,22680.75,0,
2022-04-14,22680.75,0.0,22680.75,0,
2022-04-17,22680.75,0.0,22680.75,0,
2022-04-18,22680.75,0.0,22680.75,0,
2022-04-19,22680.75,0.0,22680.75,0,
2022-04-20,22680.75,0.0,22680.75,0,
2022-04-21,22680.75,0.0,22680.75,0,
2022-04-22,22680.75,0.0,22680.75,0,
2022-04-24,22680.75,0.0,22680.75,0,
2022-04-25,22680.75,0.0,22680.75,0,
2022-04-26,22680.75,0.0,22680.75,0,
2022-04-27,22680.75,0.0,22680.75,0,
2022-04-28,22680.75,0.0,22680.75,0,
2022-04-29,22680.75,0.0,22680.75,0,
2022-05-01,22680.75,0.0,22680.75,0,
2022-05-02,22680.75,0.0,22680.75,0,
2022-05-03,22680.75,0.0,22680.75,0,
2022-05-04,22680.75,0.0,22680.75,0,
2022-05-05,22680.75,0.0,22680.75,0,
2022-05-06,22680.75,0.0,22680.75,0,
2022-05-08,22680.75,0.0,22680.75,0,
2022-05-09,22680.75,0.0,22680.75,0,
2022-05-10,22680.75,0.0,22680.75,0,
2022-05-11,22680.75,0.0,22680.75,0,
2022-05-12,22680.75,0.0,22680.75,0,
2022-05-13,22680.75,0.0,22680.75,0,
2022-05-15,22680.75,0.0,22680.75,0,
2022-05-16,22680.75,0.0,22680.75,0,
2022-05-17,22680.75,0.0,22680.75,0,
2022-05-18,22680.75,0.0,22680.75,0,
2022-05-19,22680.75,0.0,22680.75,0,
2022-05-20,22680.75,0.0,22680.75,0,
2022-05-22,22680.75,0.0,22680.75,0,
2022-05-23,22680.75,0.0,22680.75,0,
2022-05-24,22680.75,0.0,22680.75,0,
2022-05-25,22680.75,0.0,22680.75,0,
2022-05-26,22680.75,0.0,22680.75,0,
2022-05-27,22680.75,0.0,22680.75,0,
2022-05-29,22680.75,0.0,22680.75,0,
2022-05-30,22680.75,0.0,22680.75,0,
2022-05-31,22680.75,0.0,22680.75,0,
2022-06-01,22680.75,0.0,22680.75,0,
2022-06-02,22680.75,0.0,22680.75,0,
2022-06-03,22680.75,0.0,22680.75,0,
2022-06-05,22680.75,0.0,22680.75,0,
2022-06-06,22680.75,0.0,22680.75,0,
2022-06-07,22680.75,0.0,22680.75,0,
2022-06-08,22680.75,0.0,22680.75,0,
2022-06-09,22680.75,0.0,22680.75,0,
2022-06-10,22680.75,0.0,22680.75,0,
2022-06-12,22680.75,0.0,22680.75,0,
2022-06-13,22680.75,0.0,22680.75,0,
2022-06-14,22680.75,0.0,22680.75,0,
2022-06-15,22680.75,0.0,22680.75,0,
2022-06-16,22680.75,0.0,22680.75,0,
2022-06-17,22680.75,0.0,22680.75,0,
2022-06-19,22680.75,0.0,22680.75,0,
2022-06-20,22680.75,0.0,22680.75,0,
2022-06-21,22680.75,0.0,22680.75,0,
2022-06-22,22680.75,0.0,22680.75,0,
2022-06-23,22680.75,0.0,22680.75,0,
2022-06-24,22680.75,0.0,22680.75,0,
2022-06-26,22680.75,0.0,22680.75,0,
2022-06-27,22680.75,0.0,22680.75,0,
2022-06-28,22680.75,0.0,22680.75,0,
2022-06-29,22680.75,0.0,22680.75,0,
2022-06-30,22680.75,0.0,22680.75,0,
2022-07-01,22680.75,0.0,22680.75,0,
2022-07-03,22680.75,0.0,22680.75,0,
2022-07-04,22680.75,0.0,22680.75,0,
2022-07-05,22680.75,0.0,22680.75,0,
2022-07-06,22680.75,0.0,22680.75,0,
2022-07-07,22680.75,0.0,22680.75,0,
2022-07-08,22680.75,0.0,22680.75,0,
2022-07-10,22680.75,0.0,22680.75,0,
2022-07-11,22680.75,0.0,22680.75,0,
2022-07-12,22680.75,0.0,22680.75,0,
2022-07-13,22680.75,0.0,22680.75,0,
2022-07-14,22680.75,0.0,22680.75,0,
2022-07-15,22680.75,0.0,22680.75,0,
2022-07-17,22680.75,0.0,22680.75,0,
2022-07-18,22680.75,0.0,22680.75,0,
2022-07-19,22680.75,0.0,22680.75,0,
2022-07-20,22680.75,0.0,22680.75,0,
2022-07-21,22680.75,0.0,22680.75,0,
2022-07-22,22680.75,0.0,22680.75,0,
2022-07-24,22680.75,0.0,22680.75,0,
2022-07-25,22680.75,0.0,22680.75,0,
2022-07-26,22680.75,0.0,22680.75,0,
2022-07-27,22680.75,0.0,22680.75,0,
2022-07-28,22680.75,0.0,22680.75,0,
2022-07-29,22680.75,0.0,22680.75,0,
2022-07-31,22680.75,0.0,22680.75,0,
2022-08-01,22680.75,0.0,22680.75,0,
2022-08-02,22680.75,0.0,22680.75,0,
2022-08-03,22680.75,0.0,22680.75,0,
2022-08-04,22680.75,0.0,22680.75,0,
2022-08-05,22680.75,0.0,22680.75,0,
2022-08-07,22680.75,0.0,22680.75,0,
2022-08-08,22680.75,0.0,22680.75,0,
2022-08-09,22680.75,0.0,22680.75,0,
2022-08-10,22680.75,0.0,22680.75,0,
2022-08-11,22680.75,0.0,22680.75,0,
2022-08-12,22680.75,0.0,22680.75,0,
2022-08-14,22680.75,0.0,22680.75,0,
2022-08-15,22680.75,0.0,22680.75,0,
2022-08-16,22680.75,0.0,22680.75,0,
2022-08-17,22680.75,0.0,22680.75,0,
2022-08-18,22680.75,0.0,22680.75,0,
2022-08-19,22680.75,0.0,22680.75,0,
2022-08-21,22680.75,0.0,22680.75,0,
2022-08-22,22680.75,0.0,22680.75,0,
2022-08-23,22680.75,0.0,22680.75,0,
2022-08-24,22680.75,0.0,22680.75,0,
2022-08-25,22680.75,0.0,22680.75,0,
2022-08-26,22680.75,0.0,22680.75,0,
2022-08-28,22680.75,0.0,22680.75,0,
2022-08-29,22680.75,0.0,22680.75,0,
2022-08-30,22680.75,0.0,22680.75,0,
2022-08-31,22680.75,0.0,22680.75,0,
2022-09-01,22680.75,0.0,22680.75,0,
2022-09-02,22680.75,0.0,22680.75,0,
2022-09-04,22680.75,0.0,22680.75,0,
2022-09-05,22680.75,0.0,22680.75,0,
2022-09-06,22680.75,0.0,22680.75,0,
2022-09-07,22680.75,0.0,22680.75,0,
2022-09-08,22680.75,0.0,22680.75,0,
2022-09-09,22680.75,0.0,22680.75,0,
2022-09-11,22680.75,0.0,22680.75,0,
2022-09-12,22680.75,0.0,22680.75,0,
2022-09-13,22680.75,0.0,22680.75,0,
2022-09-14,22680.75,0.0,22680.75,0,
2022-09-15,22680.75,0.0,22680.75,0,
2022-09-16,22680.75,0.0,22680.75,0,
2022-09-18,22680.75,0.0,22680.75,0,
2022-09-19,22680.75,0.0,22680.75,0,
2022-09-20,22680.75,0.0,22680.75,0,
2022-09-21,22680.75,0.0,22680.75,0,
2022-09-22,22680.75,0.0,22680.75,0,
2022-09-23,22680.75,0.0,22680.75,0,
2022-09-25,22680.75,0.0,22680.75,0,
2022-09-26,22680.75,0.0,22680.75,0,
2022-09-27,22680.75,0.0,22680.75,0,
2022-09-28,22680.75,0.0,22680.75,0,
2022-09-29,22680.75,0.0,22680.75,0,
2022-09-30,22680.75,0.0,22680.75,0,
2022-10-02,22680.75,0.0,22680.75,0,
2022-10-03,22680.75,0.0,22680.75,0,
2022-10-04,22680.75,0.0,22680.75,0,
2022-10-05,22680.75,0.0,22680.75,0,
2022-10-06,22680.75,0.0,22680.75,0,
2022-10-07,22680.75,0.0,22680.75,0,
2022-10-09,22680.75,0.0,22680.75,0,
2022-10-10,22680.75,0.0,22680.75,0,
2022-10-11,22680.75,0.0,22680.75,0,
2022-10-12,22680.75,0.0,22680.75,0,
2022-10-13,22680.75,0.0,22680.75,0,
2022-10-14,22680.75,0.0,22680.75,0,
2022-10-16,22680.75,0.0,22680.75,0,
2022-10-17,22680.75,0.0,22680.75,0,
2022-10-18,22680.75,0.0,22680.75,0,
2022-10-19,22680.75,0.0,22680.75,0,
2022-10-20,22680.75,0.0,22680.75,0,
2022-10-21,22680.75,0.0,22680.75,0,
2022-10-23,22680.75,0.0,22680.75,0,
2022-10-24,22680.75,0.0,22680.75,0,
2022-10-25,22680.75,0.0,22680.75,0,
2022-10-26,22680.75,0.0,22680.75,0,
2022-10-27,22680.75,0.0,22680.75,0,
2022-10-28,22680.75,0.0,22680.75,0,
2022-10-30,22680.75,0.0,22680.75,0,
2022-10-31,22680.75,0.0,22680.75,0,
2022-11-01,22680.75,0.0,22680.75,0,
2022-11-02,22680.75,0.0,22680.75,0,
2022-11-03,22680.75,0.0,22680.75,0,
2022-11-04,22680.75,0.0,22680.75,0,
2022-11-06,22680.75,0.0,22680.75,0,
2022-11-07,22680.75,0.0,22680.75,0,
2022-11-08,22680.75,0.0,22680.75,0,
2022-11-09,22680.75,0.0,22680.75,0,
2022-11-10,22680.75,0.0,22680.75,0,
2022-11-11,22680.75,0.0,22680.75,0,
2022-11-13,22680.75,0.0,22680.75,0,
2022-11-14,22680.75,0.0,22680.75,0,
2022-11-15,22680.75,0.0,22680.75,0,
2022-11-16,22680.75,0.0,22680.75,0,
2022-11-17,22680.75,0.0,22680.75,0,
2022-11-18,22680.75,0.0,22680.75,0,
2022-11-20,22680.75,0.0,22680.75,0,
2022-11-21,22680.75,0.0,22680.75,0,
2022-11-22,22680.75,0.0,22680.75,0,
2022-11-23,22680.75,0.0,22680.75,0,
2022-11-24,22680.75,0.0,22680.75,0,
2022-11-25,22680.75,0.0,22680.75,0,
2022-11-27,22680.75,0.0,22680.75,0,
2022-11-28,22680.75,0.0,22680.75,0,
2022-11-29,22680.75,0.0,22680.75,0,
2022-11-30,22680.75,0.0,22680.75,0,
2022-12-01,22680.75,0.0,22680.75,0,
2022-12-02,22680.75,0.0,22680.75,0,
2022-12-04,22680.75,0.0,22680.75,0,
2022-12-05,22680.75,0.0,22680.75,0,
2022-12-06,22680.75,0.0,22680.75,0,
2022-12-07,22680.75,0.0,22680.75,0,
2022-12-08,22680.75,0.0,22680.75,0,
2022-12-09,22680.75,0.0,22680.75,0,
2022-12-11,22680.75,0.0,22680.75,0,
2022-12-12,22680.75,0.0,22680.75,0,
2022-12-13,22680.75,0.0,22680.75,0,
2022-12-14,22680.75,0.0,22680.75,0,
2022-12-15,22680.75,0.0,22680.75,0,
2022-12-16,22680.75,0.0,22680.75,0,
2022-12-18,22680.75,0.0,22680.75,0,
2022-12-19,22680.75,0.0,22680.75,0,
2022-12-20,22680.75,0.0,22680.75,0,
2022-12-21,22680.75,0.0,22680.75,0,
2022-12-22,22680.75,0.0,22680.75,0,
2022-12-23,22680.75,0.0,22680.75,0,
2022-12-26,22680.75,0.0,22680.75,0,
2022-12-27,22680.75,0.0,22680.75,0,
2022-12-28,22680.75,0.0,22680.75,0,
2022-12-29,22680.75,0.0,22680.75,0,
2022-12-30,22680.75,0.0,22680.75,0,
2023-01-02,22680.75,0.0,22680.75,0,
2023-01-03,22680.75,0.0,22680.75,0,
2023-01-04,22680.75,0.0,22680.75,0,
2023-01-05,22680.75,0.0,22680.75,0,
2023-01-06,22680.75,0.0,22680.75,0,
2023-01-08,22680.75,0.0,22680.75,0,
2023-01-09,22680.75,0.0,22680.75,0,
2023-01-10,22680.75,0.0,22680.75,0,
2023-01-11,22680.75,0.0,22680.75,0,
2023-01-12,22680.75,0.0,22680.75,0,
2023-01-13,22680.75,0.0,22680.75,0,
2023-01-15,22680.75,0.0,22680.75,0,
2023-01-16,22680.75,0.0,22680.75,0,
2023-01-17,22680.75,0.0,22680.75,0,
2023-01-18,22680.75,0.0,22680.75,0,
2023-01-19,22680.75,0.0,22680.75,0,
2023-01-20,22680.75,0.0,22680.75,0,
2023-01-22,22680.75,0.0,22680.75,0,
2023-01-23,22680.75,0.0,22680.75,0,
2023-01-24,22680.75,0.0,22680.75,0,
2023-01-25,22680.75,0.0,22680.75,0,
2023-01-26,22680.75,0.0,22680.75,0,
2023-01-27,22680.75,0.0,22680.75,0,
2023-01-29,22680.75,0.0,22680.75,0,
2023-01-30,22680.75,0.0,22680.75,0,
2023-01-31,22680.75,0.0,22680.75,0,
2023-02-01,22680.75,0.0,22680.75,0,
2023-02-02,22680.75,0.0,22680.75,0,
2023-02-03,22680.75,0.0,22680.75,0,
2023-02-05,22680.75,0.0,22680.75,0,
2023-02-06,22680.75,0.0,22680.75,0,
2023-02-07,22680.75,0.0,22680.75,0,
2023-02-08,22680.75,0.0,22680.75,0,
2023-02-09,22680.75,0.0,22680.75,0,
2023-02-10,22680.75,0.0,22680.75,0,
2023-02-12,22680.75,0.0,22680.75,0,
2023-02-13,22680.75,0.0,22680.75,0,
2023-02-14,22680.75,0.0,22680.75,0,
2023-02-15,22680.75,0.0,22680.75,0,
2023-02-16,22680.75,0.0,22680.75,0,
2023-02-17,22680.75,0.0,22680.75,0,
2023-02-19,22680.75,0.0,22680.75,0,
2023-02-20,22680.75,0.0,22680.75,0,
2023-02-21,22680.75,0.0,22680.75,0,
2023-02-22,22680.75,0.0,22680.75,0,
2023-02-23,22680.75,0.0,22680.75,0,
2023-02-24,22680.75,0.0,22680.75,0,
2023-02-26,22680.75,0.0,22680.75,0,
2023-02-27,22680.75,0.0,22680.75,0,
2023-02-28,22680.75,0.0,22680.75,0,
2023-03-01,22680.75,0.0,22680.75,0,
2023-03-02,22680.75,0.0,22680.75,0,
2023-03-03,22680.75,0.0,22680.75,0,
2023-03-05,22680.75,0.0,22680.75,0,
2023-03-06,22680.75,0.0,22680.75,0,
2023-03-07,22680.75,0.0,22680.75,0,
2023-03-08,22680.75,0.0,22680.75,0,
2023-03-09,22680.75,0.0,22680.75,0,
2023-03-10,22680.75,0.0,22680.75,0,
2023-03-12,22680.75,0.0,22680.75,0,
2023-03-13,22680.75,0.0,22680.75,0,
2023-03-14,22680.75,0.0,22680.75,0,
2023-03-15,22680.75,0.0,22680.75,0,
2023-03-16,22680.75,0.0,22680.75,0,
2023-03-17,22680.75,0.0,22680.75,0,
2023-03-19,22680.75,0.0,22680.75,0,
2023-03-20,22680.75,0.0,22680.75,0,
2023-03-21,22680.75,0.0,22680.75,0,
2023-03-22,22680.75,0.0,22680.75,0,
2023-03-23,22680.75,0.0,22680.75,0,
2023-03-24,22680.75,0.0,22680.75,0,
2023-03-26,22680.75,0.0,22680.75,0,
2023-03-27,22680.75,0.0,22680.75,0,
2023-03-28,22680.75,0.0,22680.75,0,
2023-03-29,22680.75,0.0,22680.75,0,
2023-03-30,22680.75,0.0,22680.75,0,
2023-03-31,22680.75,0.0,22680.75,0,
2023-04-02,22680.75,0.0,22680.75,0,
2023-04-03,22680.75,0.0,22680.75,0,
2023-04-04,22680.75,0.0,22680.75,0,
2023-04-05,22680.75,0.0,22680.75,0,
2023-04-06,22680.75,0.0,22680.75,0,
2023-04-07,22680.75,0.0,22680.75,0,
2023-04-09,22680.75,0.0,22680.75,0,
2023-04-10,22680.75,0.0,22680.75,0,
2023-04-11,22680.75,0.0,22680.75,0,
2023-04-12,22680.75,0.0,22680.75,0,
2023-04-13,22680.75,0.0,22680.75,0,
2023-04-14,22680.75,0.0,22680.75,0,
2023-04-16,22680.75,0.0,22680.75,0,
2023-04-17,22680.75,0.0,22680.75,0,
2023-04-18,22680.75,0.0,22680.75,0,
2023-04-19,22680.75,0.0,22680.75,0,
2023-04-20,22680.75,0.0,22680.75,0,
2023-04-21,22680.75,0.0,22680.75,0,
2023-04-23,22680.75,0.0,22680.75,0,
2023-04-24,22680.75,0.0,22680.75,0,
2023-04-25,22680.75,0.0,22680.75,0,
2023-04-26,22680.75,0.0,22680.75,0,
2023-04-27,22680.75,0.0,22680.75,0,
2023-04-28,22680.75,0.0,22680.75,0,
2023-04-30,22680.75,0.0,22680.75,0,
2023-05-01,22680.75,0.0,22680.75,0,
2023-05-02,22680.75,0.0,22680.75,0,
2023-05-03,22680.75,0.0,22680.75,0,
2023-05-04,22680.75,0.0,22680.75,0,
2023-05-05,22680.75,0.0,22680.75,0,
2023-05-07,22680.75,0.0,22680.75,0,
2023-05-08,22680.75,0.0,22680.75,0,
2023-05-09,22680.75,0.0,22680.75,0,
2023-05-10,22680.75,0.0,22680.75,0,
2023-05-11,22680.75,0.0,22680.75,0,
2023-05-12,22680.75,0.0,22680.75,0,
2023-05-14,22680.75,0.0,22680.75,0,
2023-05-15,22680.75,0.0,22680.75,0,
2023-05-16,22680.75,0.0,22680.75,0,
2023-05-17,22680.75,0.0,22680.75,0,
2023-05-18,22680.75,0.0,22680.75,0,
2023-05-19,22680.75,0.0,22680.75,0,
2023-05-21,22680.75,0.0,22680.75,0,
2023-05-22,22680.75,0.0,22680.75,0,
2023-05-23,22680.75,0.0,22680.75,0,
2023-05-24,22680.75,0.0,22680.75,0,
2023-05-25,22680.75,0.0,22680.75,0,
2023-05-26,22680.75,0.0,22680.75,0,
2023-05-28,22680.75,0.0,22680.75,0,
2023-05-29,22680.75,0.0,22680.75,0,
2023-05-30,22680.75,0.0,22680.75,0,
2023-05-31,22680.75,0.0,22680.75,0,
2023-06-01,22680.75,0.0,22680.75,0,
2023-06-02,22680.75,0.0,22680.75,0,
2023-06-04,22680.75,0.0,22680.75,0,
2023-06-05,22680.75,0.0,22680.75,0,
2023-06-06,22680.75,0.0,22680.75,0,
2023-06-07,22680.75,0.0,22680.75,0,
2023-06-08,22680.75,0.0,22680.75,0,
2023-06-09,22680.75,0.0,22680.75,0,
2023-06-11,22680.75,0.0,22680.75,0,
2023-06-12,22680.75,0.0,22680.75,0,
2023-06-13,22680.75,0.0,22680.75,0,
2023-06-14,22680.75,0.0,22680.75,0,
2023-06-15,22680.75,0.0,22680.75,0,
2023-06-16,22680.75,0.0,22680.75,0,
2023-06-18,22680.75,0.0,22680.75,0,
2023-06-19,22680.75,0.0,22680.75,0,
2023-06-20,22680.75,0.0,22680.75,0,
2023-06-21,22680.75,0.0,22680.75,0,
2023-06-22,22680.75,0.0,22680.75,0,
2023-06-23,22680.75,0.0,22680.75,0,
2023-06-25,22680.75,0.0,22680.75,0,
2023-06-26,22680.75,0.0,22680.75,0,
2023-06-27,22680.75,0.0,22680.75,0,
2023-06-28,22680.75,0.0,22680.75,0,
2023-06-29,22680.75,0.0,22680.75,0,
2023-06-30,22680.75,0.0,22680.75,0,
2023-07-02,22680.75,0.0,22680.75,0,
2023-07-03,22680.75,0.0,22680.75,0,
2023-07-04,22680.75,0.0,22680.75,0,
2023-07-05,22680.75,0.0,22680.75,0,
2023-07-06,22680.75,0.0,22680.75,0,
2023-07-07,22680.75,0.0,22680.75,0,
2023-07-09,22680.75,0.0,22680.75,0,
2023-07-10,22680.75,0.0,22680.75,0,
2023-07-11,22680.75,0.0,22680.75,0,
2023-07-12,22680.75,0.0,22680.75,0,
2023-07-13,22680.75,0.0,22680.75,0,
2023-07-14,22680.75,0.0,22680.75,0,
2023-07-16,22680.75,0.0,22680.75,0,
2023-07-17,22680.75,0.0,22680.75,0,
2023-07-18,22680.75,0.0,22680.75,0,
2023-07-19,22680.75,0.0,22680.75,0,
2023-07-20,22680.75,0.0,22680.75,0,
2023-07-21,22680.75,0.0,22680.75,0,
2023-07-23,22680.75,0.0,22680.75,0,
2023-07-24,22680.75,0.0,22680.75,0,
2023-07-25,22680.75,0.0,22680.75,0,
2023-07-26,22680.75,0.0,22680.75,0,
2023-07-27,22680.75,0.0,22680.75,0,
2023-07-28,22680.75,0.0,22680.75,0,
2023-07-30,22680.75,0.0,22680.75,0,
2023-07-31,22680.75,0.0,22680.75,0,
2023-08-01,22680.75,0.0,22680.75,0,
2023-08-02,22680.75,0.0,22680.75,0,
2023-08-03,22680.75,0.0,22680.75,0,
2023-08-04,22680.75,0.0,22680.75,0,
2023-08-06,22680.75,0.0,22680.75,0,
2023-08-07,22680.75,0.0,22680.75,0,
2023-08-08,22680.75,0.0,22680.75,0,
2023-08-09,22680.75,0.0,22680.75,0,
2023-08-10,22680.75,0.0,22680.75,0,
2023-08-11,22680.75,0.0,22680.75,0,
2023-08-13,22680.75,0.0,22680.75,0,
2023-08-14,22680.75,0.0,22680.75,0,
2023-08-15,22680.75,0.0,22680.75,0,
2023-08-16,22680.75,0.0,22680.75,0,
2023-08-17,22680.75,0.0,22680.75,0,
2023-08-18,22680.75,0.0,22680.75,0,
2023-08-20,22680.75,0.0,22680.75,0,
2023-08-21,22680.75,0.0,22680.75,0,
2023-08-22,22680.75,0.0,22680.75,0,
2023-08-23,22680.75,0.0,22680.75,0,
2023-08-24,22680.75,0.0,22680.75,0,
2023-08-25,22680.75,0.0,22680.75,0,
2023-08-27,22680.75,0.0,22680.75,0,
2023-08-28,22680.75,0.0,22680.75,0,
2023-08-29,22680.75,1013.25,23694.0,3,Long
2023-08-30,22680.75,1217.25,23898.0,3,Long
2023-08-31,22680.75,1317.75,23998.5,3,Long
2023-09-01,22680.75,1245.75,23926.5,3,Long
2023-09-03,22680.75,1258.5,23939.25,3,Long
2023-09-04,22680.75,1287.0,23967.75,3,Long
2023-09-05,22680.75,1274.25,23955.0,3,Long
2023-09-06,22680.75,882.0,23562.75,3,Long
2023-09-07,22680.75,550.5,23231.25,3,Long
2023-09-08,22680.75,693.25,23374.0,4,Long
2023-09-10,22680.75,726.25,23407.0,4,Long
2023-09-11,22680.75,2069.25,24750.0,4,Long
2023-09-12,22680.75,1457.25,24138.0,4,Long
2023-09-13,22680.75,1753.25,24434.0,4,Long
2023-09-14,22680.75,2143.25,24824.0,4,Long
2023-09-15,22680.75,967.25,23648.0,4,Long
2023-09-17,22680.75,1087.25,23768.0,4,Long
2023-09-18,22680.75,1132.25,23813.0,4,Long
2023-09-19,22680.75,968.25,23649.0,4,Long
2023-09-20,22680.75,-110.75,22570.0,4,Long
2023-09-21,22567.0,0.0,22567.0,0,
2023-09-22,22567.0,0.0,22567.0,0,
2023-09-24,22567.0,0.0,22567.0,0,
2023-09-25,22567.0,0.0,22567.0,0,
2023-09-26,22567.0,0.0,22567.0,0,
2023-09-27,22567.0,0.0,22567.0,0,
2023-09-28,22567.0,0.0,22567.0,0,
2023-09-29,22567.0,0.0,22567.0,0,
2023-10-01,22567.0,0.0,22567.0,0,
2023-10-02,22567.0,0.0,22567.0,0,
2023-10-03,22567.0,0.0,22567.0,0,
2023-10-04,22567.0,0.0,22567.0,0,
2023-10-05,22567.0,0.0,22567.0,0,
2023-10-06,22567.0,0.0,22567.0,0,
2023-10-08,22567.0,0.0,22567.0,0,
2023-10-09,22567.0,0.0,22567.0,0,
2023-10-10,22567.0,0.0,22567.0,0,
2023-10-11,22567.0,382.5,22949.5,3,Long
2023-10-12,22567.0,126.75,22693.75,3,Long
2023-10-13,22567.0,-543.0,22024.0,3,Long
2023-10-15,22063.0,0.0,22063.0,0,
2023-10-16,22063.0,0.0,22063.0,0,
2023-10-17,22063.0,-237.75,21825.25,3,Long
2023-10-18,21822.25,0.0,21822.25,0,
2023-10-19,21822.25,0.0,21822.25,0,
2023-10-20,21822.25,0.0,21822.25,0,
2023-10-22,21822.25,0.0,21822.25,0,
2023-10-23,21822.25,0.0,21822.25,0,
2023-10-24,21822.25,0.0,21822.25,0,
2023-10-25,21822.25,0.0,21822.25,0,
2023-10-26,21822.25,0.0,21822.25,0,
2023-10-27,21822.25,0.0,21822.25,0,
2023-10-29,21822.25,0.0,21822.25,0,
2023-10-30,21822.25,0.0,21822.25,0,
2023-10-31,21822.25,0.0,21822.25,0,
2023-11-01,21822.25,0.0,21822.25,0,
2023-11-02,21822.25,0.0,21822.25,0,
2023-11-03,21822.25,723.0,22545.25,3,Long
2023-11-05,21822.25,696.75,22519.0,3,Long
2023-11-06,21822.25,795.75,22618.0,3,Long
2023-11-07,21822.25,1274.25,23096.5,3,Long
2023-11-08,21822.25,1243.5,23065.75,3,Long
2023-11-09,21822.25,867.75,22690.0,3,Long
2023-11-10,21822.25,1913.25,23735.5,3,Long
2023-11-12,21822.25,1850.25,23672.5,3,Long
2023-11-13,21822.25,1845.0,23667.25,3,Long
2023-11-14,21822.25,2883.75,24706.0,3,Long
2023-11-15,21822.25,2764.5,24586.75,3,Long
2023-11-16,21822.25,2826.75,24649.0,3,Long
2023-11-17,21822.25,2792.25,24614.5,4,Long
2023-11-19,21822.25,2751.25,24573.5,4,Long
2023-11-20,21822.25,3699.25,25521.5,4,Long
2023-11-21,21822.25,3113.25,24935.5,4,Long
2023-11-22,21822.25,3479.25,25301.5,4,Long
2023-11-23,21822.25,3554.25,25376.5,4,Long
2023-11-24,21822.25,3339.25,25161.5,4,Long
2023-11-26,21822.25,3241.25,25063.5,4,Long
2023-11-27,21822.25,3335.25,25157.5,4,Long
2023-11-28,21822.25,3509.25,25331.5,4,Long
2023-11-29,21822.25,3484.25,25306.5,4,Long
2023-11-30,21822.25,3154.25,24976.5,4,Long
2023-12-01,21822.25,3433.0,25255.25,5,Long
2023-12-03,21822.25,3238.0,25060.25,5,Long
2023-12-04,21822.25,2525.5,24347.75,5,Long
2023-12-05,21822.25,2918.0,24740.25,5,Long
2023-12-06,21822.25,2360.5,24182.75,5,Long
2023-12-07,21822.25,3378.0,25200.25,5,Long
2023-12-08,21822.25,3740.5,25562.75,5,Long
2023-12-10,21822.25,3800.5,25622.75,5,Long
2023-12-11,21822.25,5551.75,27374.0,5,Long
2023-12-12,21822.25,6325.5,28147.75,5,Long
2023-12-13,21822.25,7358.0,29180.25,5,Long
2023-12-14,21822.25,7080.5,28902.75,5,Long
2023-12-15,21822.25,7339.0,29161.25,6,Long
2023-12-17,21822.25,7385.5,29207.75,6,Long
2023-12-18,21822.25,7988.5,29810.75,6,Long
2023-12-19,21822.25,8609.5,30431.75,6,Long
2023-12-20,21822.25,7313.5,29135.75,6,Long
2023-12-21,21822.25,8095.0,29917.25,6,Long
2023-12-22,21822.25,8218.0,30040.25,6,Long
2023-12-25,21822.25,8467.0,30289.25,6,Long
2023-12-26,21822.25,8980.0,30802.25,6,Long
2023-12-27,21822.25,9173.5,30995.75,6,Long
2023-12-28,21822.25,9047.5,30869.75,6,Long
2023-12-29,21822.25,8453.5,30275.75,7,Long
2024-01-01,21822.25,8633.75,30456.0,7,Long
2024-01-02,21822.25,6497.0,28319.25,7,Long
2024-01-03,28321.0,0.0,28321.0,0,
2024-01-04,28321.0,0.0,28321.0,0,
2024-01-05,28321.0,0.0,28321.0,0,
2024-01-07,28321.0,0.0,28321.0,0,
2024-01-08,28321.0,0.0,28321.0,0,
2024-01-09,28321.0,0.0,28321.0,0,
2024-01-10,28321.0,0.0,28321.0,0,
2024-01-11,28321.0,0.0,28321.0,0,
2024-01-12,28321.0,0.0,28321.0,0,
2024-01-14,28321.0,0.0,28321.0,0,
2024-01-15,28321.0,0.0,28321.0,0,
2024-01-16,28321.0,0.0,28321.0,0,
2024-01-17,28321.0,0.0,28321.0,0,
2024-01-18,28321.0,0.0,28321.0,0,
2024-01-19,28321.0,0.0,28321.0,0,
2024-01-21,28321.0,0.0,28321.0,0,
2024-01-22,28321.0,0.0,28321.0,0,
2024-01-23,28321.0,0.0,28321.0,0,
2024-01-24,28321.0,0.0,28321.0,0,
2024-01-25,28321.0,0.0,28321.0,0,
2024-01-26,28321.0,0.0,28321.0,0,
2024-01-28,28321.0,0.0,28321.0,0,
2024-01-29,28321.0,0.0,28321.0,0,
2024-01-30,28321.0,0.0,28321.0,0,
2024-01-31,28321.0,0.0,28321.0,0,
2024-02-01,28321.0,0.0,28321.0,0,
2024-02-02,28321.0,0.0,28321.0,0,
2024-02-04,28321.0,0.0,28321.0,0,
2024-02-05,28321.0,0.0,28321.0,0,
2024-02-06,28321.0,0.0,28321.0,0,
2024-02-07,28321.0,0.0,28321.0,0,
2024-02-08,28321.0,0.0,28321.0,0,
2024-02-09,28321.0,0.0,28321.0,0,
2024-02-11,28321.0,0.0,28321.0,0,
2024-02-12,28321.0,0.0,28321.0,0,
2024-02-13,28321.0,0.0,28321.0,0,
2024-02-14,28321.0,0.0,28321.0,0,
2024-02-15,28321.0,0.0,28321.0,0,
2024-02-16,28321.0,0.0,28321.0,0,
2024-02-18,28321.0,0.0,28321.0,0,
2024-02-19,28321.0,0.0,28321.0,0,
2024-02-20,28321.0,0.0,28321.0,0,
2024-02-21,28321.0,0.0,28321.0,0,
2024-02-22,28321.0,0.0,28321.0,0,
2024-02-23,28321.0,0.0,28321.0,0,
2024-02-25,28321.0,0.0,28321.0,0,
2024-02-26,28321.0,0.0,28321.0,0,
2024-02-27,28321.0,0.0,28321.0,0,
2024-02-28,28321.0,0.0,28321.0,0,
2024-02-29,28321.0,0.0,28321.0,0,
2024-03-01,28321.0,0.0,28321.0,0,
2024-03-03,28321.0,0.0,28321.0,0,
2024-03-04,28321.0,0.0,28321.0,0,
2024-03-05,28321.0,0.0,28321.0,0,
2024-03-06,28321.0,0.0,28321.0,0,
2024-03-07,28321.0,0.0,28321.0,0,
2024-03-08,28321.0,0.0,28321.0,0,
2024-03-10,28321.0,0.0,28321.0,0,
2024-03-11,28321.0,0.0,28321.0,0,
2024-03-12,28321.0,0.0,28321.0,0,
2024-03-13,28321.0,0.0,28321.0,0,
2024-03-14,28321.0,0.0,28321.0,0,
2024-03-15,28321.0,0.0,28321.0,0,
2024-03-17,28321.0,0.0,28321.0,0,
2024-03-18,28321.0,0.0,28321.0,0,
2024-03-19,28321.0,0.0,28321.0,0,
2024-03-20,28321.0,0.0,28321.0,0,
2024-03-21,28321.0,0.0,28321.0,0,
2024-03-22,28321.0,0.0,28321.0,0,
2024-03-24,28321.0,0.0,28321.0,0,
2024-03-25,28321.0,0.0,28321.0,0,
2024-03-26,28321.0,0.0,28321.0,0,
2024-03-27,28321.0,0.0,28321.0,0,
2024-03-28,28321.0,0.0,28321.0,0,
2024-03-31,28321.0,0.0,28321.0,0,
2024-04-01,28321.0,0.0,28321.0,0,
2024-04-02,28321.0,0.0,28321.0,0,
2024-04-03,28321.0,0.0,28321.0,0,
2024-04-04,28321.0,0.0,28321.0,0,
2024-04-05,28321.0,0.0,28321.0,0,
2024-04-07,28321.0,0.0,28321.0,0,
2024-04-08,28321.0,0.0,28321.0,0,
2024-04-09,28321.0,0.0,28321.0,0,
2024-04-10,28321.0,0.0,28321.0,0,
2024-04-11,28321.0,0.0,28321.0,0,
2024-04-12,28321.0,0.0,28321.0,0,
2024-04-14,28321.0,0.0,28321.0,0,
2024-04-15,28321.0,0.0,28321.0,0,
2024-04-16,28321.0,0.0,28321.0,0,
2024-04-17,28321.0,0.0,28321.0,0,
2024-04-18,28321.0,0.0,28321.0,0,
2024-04-19,28321.0,0.0,28321.0,0,
2024-04-21,28321.0,0.0,28321.0,0,
2024-04-22,28321.0,0.0,28321.0,0,
2024-04-23,28321.0,0.0,28321.0,0,
2024-04-24,28321.0,0.0,28321.0,0,
2024-04-25,28321.0,0.0,28321.0,0,
2024-04-26,28321.0,0.0,28321.0,0,
2024-04-28,28321.0,0.0,28321.0,0,
2024-04-29,28321.0,0.0,28321.0,0,
2024-04-30,28321.0,0.0,28321.0,0,
2024-05-01,28321.0,0.0,28321.0,0,
2024-05-02,28321.0,0.0,28321.0,0,
2024-05-03,28321.0,0.0,28321.0,0,
2024-05-05,28321.0,0.0,28321.0,0,
2024-05-06,28321.0,0.0,28321.0,0,
2024-05-07,28321.0,0.0,28321.0,0,
2024-05-08,28321.0,0.0,28321.0,0,
2024-05-09,28321.0,0.0,28321.0,0,
2024-05-10,28321.0,0.0,28321.0,0,
2024-05-12,28321.0,0.0,28321.0,0,
2024-05-13,28321.0,0.0,28321.0,0,
2024-05-14,28321.0,0.0,28321.0,0,
2024-05-15,28321.0,0.0,28321.0,0,
2024-05-16,28321.0,0.0,28321.0,0,
2024-05-17,28321.0,0.0,28321.0,0,
2024-05-19,28321.0,0.0,28321.0,0,
2024-05-20,28321.0,0.0,28321.0,0,
2024-05-21,28321.0,0.0,28321.0,0,
2024-05-22,28321.0,0.0,28321.0,0,
2024-05-23,28321.0,0.0,28321.0,0,
2024-05-24,28321.0,0.0,28321.0,0,
2024-05-26,28321.0,0.0,28321.0,0,
2024-05-27,28321.0,0.0,28321.0,0,
2024-05-28,28321.0,0.0,28321.0,0,
2024-05-29,28321.0,0.0,28321.0,0,
2024-05-30,28321.0,0.0,28321.0,0,
2024-05-31,28321.0,0.0,28321.0,0,
2024-06-02,28321.0,0.0,28321.0,0,
2024-06-03,28321.0,0.0,28321.0,0,
2024-06-04,28321.0,0.0,28321.0,0,
2024-06-05,28321.0,0.0,28321.0,0,
2024-06-06,28321.0,0.0,28321.0,0,
2024-06-07,28321.0,0.0,28321.0,0,
2024-06-09,28321.0,0.0,28321.0,0,
2024-06-10,28321.0,0.0,28321.0,0,
2024-06-11,28321.0,0.0,28321.0,0,
2024-06-12,28321.0,0.0,28321.0,0,
2024-06-13,28321.0,0.0,28321.0,0,
2024-06-14,28321.0,0.0,28321.0,0,
2024-06-16,28321.0,0.0,28321.0,0,
2024-06-17,28321.0,0.0,28321.0,0,
2024-06-18,28321.0,0.0,28321.0,0,
2024-06-19,28321.0,0.0,28321.0,0,
2024-06-20,28321.0,0.0,28321.0,0,
2024-06-21,28321.0,0.0,28321.0,0,
2024-06-23,28321.0,0.0,28321.0,0,
2024-06-24,28321.0,0.0,28321.0,0,
2024-06-25,28321.0,0.0,28321.0,0,
2024-06-26,28321.0,0.0,28321.0,0,
2024-06-27,28321.0,0.0,28321.0,0,
2024-06-28,28321.0,0.0,28321.0,0,
2024-06-30,28321.0,0.0,28321.0,0,
2024-07-01,28321.0,0.0,28321.0,0,
2024-07-02,28321.0,0.0,28321.0,0,
2024-07-03,28321.0,0.0,28321.0,0,
2024-07-04,28321.0,0.0,28321.0,0,
2024-07-05,28321.0,0.0,28321.0,0,
2024-07-07,28321.0,0.0,28321.0,0,
2024-07-08,28321.0,0.0,28321.0,0,
2024-07-09,28321.0,0.0,28321.0,0,
2024-07-10,28321.0,0.0,28321.0,0,
2024-07-11,28321.0,0.0,28321.0,0,
2024-07-12,28321.0,0.0,28321.0,0,
2024-07-14,28321.0,0.0,28321.0,0,
2024-07-15,28321.0,0.0,28321.0,0,
2024-07-16,28321.0,0.0,28321.0,0,
2024-07-17,28321.0,0.0,28321.0,0,
2024-07-18,28321.0,0.0,28321.0,0,
2024-07-19,28321.0,0.0,28321.0,0,
2024-07-21,28321.0,0.0,28321.0,0,
2024-07-22,28321.0,0.0,28321.0,0,
2024-07-23,28321.0,0.0,28321.0,0,
2024-07-24,28321.0,0.0,28321.0,0,
2024-07-25,28321.0,0.0,28321.0,0,
2024-07-26,28321.0,0.0,28321.0,0,
2024-07-28,28321.0,0.0,28321.0,0,
2024-07-29,28321.0,0.0,28321.0,0,
2024-07-30,28321.0,0.0,28321.0,0,
2024-07-31,28321.0,0.0,28321.0,0,
2024-08-01,28321.0,0.0,28321.0,0,
2024-08-02,28321.0,0.0,28321.0,0,
2024-08-04,28321.0,0.0,28321.0,0,
2024-08-05,28321.0,0.0,28321.0,0,
2024-08-06,28321.0,0.0,28321.0,0,
2024-08-07,28321.0,0.0,28321.0,0,
2024-08-08,28321.0,0.0,28321.0,0,
2024-08-09,28321.0,0.0,28321.0,0,
2024-08-11,28321.0,0.0,28321.0,0,
2024-08-12,28321.0,0.0,28321.0,0,
2024-08-13,28321.0,1386.75,29707.75,3,Long
2024-08-14,28321.0,1357.5,29678.5,3,Long
2024-08-15,28321.0,2878.5,31199.5,3,Long
2024-08-16,28321.0,2850.0,31171.0,3,Long
2024-08-18,28321.0,2982.0,31303.0,3,Long
2024-08-19,28321.0,3619.5,31940.5,3,Long
2024-08-20,28321.0,3406.5,31727.5,3,Long
2024-08-21,28321.0,3846.0,32167.0,3,Long
2024-08-22,28321.0,2952.75,31273.75,3,Long
2024-08-23,28321.0,3383.5,31704.5,4,Long
2024-08-25,28321.0,3324.5,31645.5,4,Long
2024-08-26,28321.0,2557.5,30878.5,4,Long
2024-08-27,28321.0,2620.5,30941.5,4,Long
2024-08-28,28321.0,1043.5,29364.5,4,Long
2024-08-29,28321.0,1992.5,30313.5,4,Long
2024-08-30,28321.0,2648.5,30969.5,4,Long
2024-09-01,28321.0,2616.5,30937.5,4,Long
2024-09-02,28321.0,2594.5,30915.5,4,Long
2024-09-03,28321.0,102.5,28423.5,4,Long
2024-09-04,28321.0,3.5,28324.5,4,Long
2024-09-05,28321.0,-77.5,28243.5,4,Long
2024-09-06,28239.5,0.0,28239.5,0,
2024-09-08,28239.5,0.0,28239.5,0,
2024-09-09,28239.5,0.0,28239.5,0,
2024-09-10,28239.5,0.0,28239.5,0,
2024-09-11,28239.5,0.0,28239.5,0,
2024-09-12,28239.5,0.0,28239.5,0,
2024-09-13,28239.5,153.75,28393.25,3,Long
2024-09-15,28239.5,257.25,28496.75,3,Long
2024-09-16,28239.5,660.75,28900.25,3,Long
2024-09-17,28239.5,758.25,28997.75,3,Long
2024-09-18,28239.5,932.25,29171.75,3,Long
2024-09-19,28239.5,1789.5,30029.0,3,Long
2024-09-20,28239.5,1685.25,29924.75,3,Long
2024-09-22,28239.5,1828.5,30068.0,3,Long
2024-09-23,28239.5,1847.25,30086.75,3,Long
2024-09-24,28239.5,2181.0,30420.5,3,Long
2024-09-25,28239.5,2475.0,30714.5,3,Long
2024-09-26,28239.5,2673.75,30913.25,3,Long
2024-09-27,28239.5,2202.5,30442.0,4,Long
2024-09-29,28239.5,2518.5,30758.0,4,Long
2024-09-30,28239.5,2418.5,30658.0,4,Long
2024-10-01,28239.5,1158.5,29398.0,4,Long
2024-10-02,28239.5,1647.5,29887.0,4,Long
2024-10-03,28239.5,1360.5,29600.0,4,Long
2024-10-04,28239.5,2241.5,30481.0,4,Long
2024-10-06,28239.5,2350.5,30590.0,4,Long
2024-10-07,28239.5,1360.5,29600.0,4,Long
2024-10-08,28239.5,2520.5,30760.0,4,Long
2024-10-09,28239.5,3229.5,31469.0,4,Long
2024-10-10,28239.5,3234.5,31474.0,4,Long
2024-10-11,28239.5,3016.0,31255.5,5,Long
2024-10-13,28239.5,3089.75,31329.25,5,Long
2024-10-14,28239.5,4113.5,32353.0,5,Long
2024-10-15,28239.5,2713.5,30953.0,5,Long
2024-10-16,28239.5,2523.5,30763.0,5,Long
2024-10-17,28239.5,2979.75,31219.25,5,Long
2024-10-18,28239.5,3376.0,31615.5,5,Long
2024-10-20,28239.5,3522.25,31761.75,5,Long
2024-10-21,28239.5,3533.5,31773.0,5,Long
2024-10-22,28239.5,3602.25,31841.75,5,Long
2024-10-23,28239.5,2404.75,30644.25,5,Long
2024-10-24,28239.5,2859.75,31099.25,5,Long
2024-10-25,28239.5,3298.5,31538.0,6,Long
2024-10-27,28239.5,4026.0,32265.5,6,Long
2024-10-28,28239.5,3483.0,31722.5,6,Long
2024-10-29,28239.5,4923.0,33162.5,6,Long
2024-10-30,28239.5,2994.0,31233.5,6,Long
2024-10-31,28239.5,879.0,29118.5,6,Long
2024-11-01,28239.5,1452.0,29691.5,6,Long
2024-11-03,28239.5,1245.0,29484.5,6,Long
2024-11-04,28239.5,964.5,29204.0,6,Long
2024-11-05,28239.5,2499.0,30738.5,6,Long
2024-11-06,28239.5,5781.0,34020.5,6,Long
2024-11-07,28239.5,7795.5,36035.0,6,Long
2024-11-08,28239.5,7806.0,36045.5,7,Long
2024-11-10,28239.5,8345.0,36584.5,7,Long
2024-11-11,28239.5,7729.0,35968.5,7,Long
2024-11-12,28239.5,7337.0,35576.5,7,Long
2024-11-13,28239.5,7379.0,35618.5,7,Long
2024-11-14,28239.5,5863.5,34103.0,7,Long
2024-11-15,28239.5,2741.5,30981.0,7,Long
2024-11-17,28239.5,3194.75,31434.25,7,Long
2024-11-18,28239.5,3572.75,31812.25,7,Long
2024-11-19,28239.5,4698.0,32937.5,7,Long
2024-11-20,28239.5,4484.5,32724.0,7,Long
2024-11-21,28239.5,4631.5,32871.0,7,Long
2024-11-22,28239.5,5408.5,33648.0,8,Long
2024-11-24,28239.5,5866.5,34106.0,8,Long
2024-11-25,28239.5,5054.5,33294.0,8,Long
2024-11-26,28239.5,6266.5,34506.0,8,Long
2024-11-27,28239.5,4966.5,33206.0,8,Long
2024-11-28,28239.5,5482.5,33722.0,8,Long
2024-11-29,28239.5,6312.5,34552.0,8,Long
2024-12-01,28239.5,6096.5,34336.0,8,Long
2024-12-02,28239.5,8090.5,36330.0,8,Long
2024-12-03,28239.5,9042.5,37282.0,8,Long
2024-12-04,28239.5,10462.5,38702.0,8,Long
2024-12-05,28239.5,10026.5,38266.0,8,Long
2024-12-06,28239.5,11443.5,39683.0,9,Long
2024-12-08,28239.5,11657.25,39896.75,9,Long
2024-12-09,28239.5,9927.0,38166.5,9,Long
2024-12-10,28239.5,9594.0,37833.5,9,Long
2024-12-11,28239.5,12561.75,40801.25,9,Long
2024-12-12,28239.5,12438.0,40677.5,9,Long
2024-12-13,28239.5,12582.0,40821.5,9,Long
2024-12-15,28239.5,12840.75,41080.25,9,Long
2024-12-16,28239.5,15628.5,43868.0,9,Long
2024-12-17,28239.5,17205.75,45445.25,9,Long
2024-12-18,45445.25,0.0,45445.25,0,
2024-12-19,45445.25,0.0,45445.25,0,
2024-12-20,45445.25,0.0,45445.25,0,
2024-12-22,45445.25,0.0,45445.25,0,
2024-12-23,45445.25,0.0,45445.25,0,
2024-12-24,45445.25,0.0,45445.25,0,
2024-12-25,45445.25,0.0,45445.25,0,
2024-12-26,45445.25,0.0,45445.25,0,
2024-12-27,45445.25,0.0,45445.25,0,
2024-12-29,45445.25,0.0,45445.25,0,
2024-12-30,45445.25,0.0,45445.25,0,
2024-12-31,45445.25,0.0,45445.25,0,
2025-01-01,45445.25,0.0,45445.25,0,
2025-01-02,45445.25,0.0,45445.25,0,
2025-01-03,45445.25,0.0,45445.25,0,
2025-01-05,45445.25,0.0,45445.25,0,
2025-01-06,45445.25,0.0,45445.25,0,
2025-01-07,45445.25,0.0,45445.25,0,
2025-01-08,45445.25,0.0,45445.25,0,
2025-01-09,45445.25,0.0,45445.25,0,
2025-01-10,45445.25,0.0,45445.25,0,
2025-01-12,45445.25,0.0,45445.25,0,
2025-01-13,45445.25,0.0,45445.25,0,
2025-01-14,45445.25,0.0,45445.25,0,
2025-01-15,45445.25,0.0,45445.25,0,
2025-01-16,45445.25,0.0,45445.25,0,
2025-01-17,45445.25,0.0,45445.25,0,
2025-01-19,45445.25,0.0,45445.25,0,
2025-01-20,45445.25,0.0,45445.25,0,
2025-01-21,45445.25,0.0,45445.25,0,
2025-01-22,45445.25,0.0,45445.25,0,
2025-01-23,45445.25,0.0,45445.25,0,
2025-01-24,45445.25,0.0,45445.25,0,
2025-01-26,45445.25,0.0,45445.25,0,
2025-01-27,45445.25,0.0,45445.25,0,
2025-01-28,45445.25,0.0,45445.25,0,
2025-01-29,45445.25,0.0,45445.25,0,
2025-01-30,45445.25,0.0,45445.25,0,
2025-01-31,45445.25,0.0,45445.25,0,
2025-02-02,45445.25,0.0,45445.25,0,
2025-02-03,45445.25,0.0,45445.25,0,
2025-02-04,45445.25,0.0,45445.25,0,
2025-02-05,45445.25,0.0,45445.25,0,
2025-02-06,45445.25,0.0,45445.25,0,
2025-02-07,45445.25,0.0,45445.25,0,
2025-02-09,45445.25,0.0,45445.25,0,
2025-02-10,45445.25,0.0,45445.25,0,
2025-02-11,45445.25,0.0,45445.25,0,
2025-02-12,45445.25,0.0,45445.25,0,
2025-02-13,45445.25,0.0,45445.25,0,
2025-02-14,45445.25,0.0,45445.25,0,
2025-02-16,45445.25,0.0,45445.25,0,
2025-02-17,45445.25,0.0,45445.25,0,
2025-02-18,45445.25,0.0,45445.25,0,
2025-02-19,45445.25,0.0,45445.25,0,
2025-02-20,45445.25,0.0,45445.25,0,
2025-02-21,45445.25,0.0,45445.25,0,
2025-02-23,45445.25,0.0,45445.25,0,
2025-02-24,45445.25,0.0,45445.25,0,
2025-02-25,45445.25,0.0,45445.25,0,
2025-02-26,45445.25,0.0,45445.25,0,
2025-02-27,45445.25,0.0,45445.25,0,
2025-02-28,45445.25,0.0,45445.25,0,
2025-03-02,45445.25,0.0,45445.25,0,
2025-03-03,45445.25,0.0,45445.25,0,
2025-03-04,45445.25,0.0,45445.25,0,
2025-03-05,45445.25,0.0,45445.25,0,
2025-03-06,45445.25,0.0,45445.25,0,
2025-03-07,45445.25,0.0,45445.25,0,
2025-03-09,45445.25,0.0,45445.25,0,
2025-03-10,45445.25,0.0,45445.25,0,
2025-03-11,45445.25,0.0,45445.25,0,
2025-03-12,45445.25,0.0,45445.25,0,
2025-03-13,45445.25,0.0,45445.25,0,
2025-03-14,45445.25,0.0,45445.25,0,
2025-03-16,45445.25,0.0,45445.25,0,
2025-03-17,45445.25,0.0,45445.25,0,
2025-03-18,45445.25,0.0,45445.25,0,
2025-03-19,45445.25,0.0,45445.25,0,
2025-03-20,45445.25,0.0,45445.25,0,
2025-03-21,45445.25,0.0,45445.25,0,
2025-03-23,45445.25,0.0,45445.25,0,
2025-03-24,45445.25,0.0,45445.25,0,
2025-03-25,45445.25,0.0,45445.25,0,
2025-03-26,45445.25,0.0,45445.25,0,
2025-03-27,45445.25,0.0,45445.25,0,
2025-03-28,45445.25,0.0,45445.25,0,
2025-03-30,45445.25,0.0,45445.25,0,
2025-03-31,45445.25,0.0,45445.25,0,
2025-04-01,45445.25,0.0,45445.25,0,
2025-04-02,45445.25,0.0,45445.25,0,
2025-04-03,45445.25,0.0,45445.25,0,
2025-04-04,45445.25,0.0,45445.25,0,
2025-04-06,45445.25,0.0,45445.25,0,
2025-04-07,45445.25,0.0,45445.25,0,
2025-04-08,45445.25,0.0,45445.25,0,
2025-04-09,45445.25,0.0,45445.25,0,
2025-04-10,45445.25,0.0,45445.25,0,
2025-04-11,45445.25,0.0,45445.25,0,
2025-04-13,45445.25,0.0,45445.25,0,
2025-04-14,45445.25,0.0,45445.25,0,
2025-04-15,45445.25,0.0,45445.25,0,
2025-04-16,45445.25,0.0,45445.25,0,
2025-04-17,45445.25,0.0,45445.25,0,
2025-04-20,45445.25,0.0,45445.25,0,
2025-04-21,45445.25,0.0,45445.25,0,
2025-04-22,45445.25,0.0,45445.25,0,
2025-04-23,45445.25,0.0,45445.25,0,
2025-04-24,45445.25,0.0,45445.25,0,
2025-04-25,45445.25,0.0,45445.25,0,
2025-04-27,45445.25,0.0,45445.25,0,
2025-04-28,45445.25,0.0,45445.25,0,
2025-04-29,45445.25,0.0,45445.25,0,
2025-04-30,45445.25,0.0,45445.25,0,
2025-05-01,45445.25,0.0,45445.25,0,
2025-05-02,45445.25,0.0,45445.25,0,
2025-05-04,45445.25,0.0,45445.25,0,
2025-05-05,45445.25,0.0,45445.25,0,
2025-05-06,45445.25,0.0,45445.25,0,
2025-05-07,45445.25,0.0,45445.25,0,
2025-05-08,45445.25,0.0,45445.25,0,
2025-05-09,45445.25,0.0,45445.25,0,
2025-05-11,45445.25,0.0,45445.25,0,
2025-05-12,45445.25,0.0,45445.25,0,
2025-05-13,45445.25,0.0,45445.25,0,
2025-05-14,45445.25,0.0,45445.25,0,
2025-05-15,45445.25,0.0,45445.25,0,
2025-05-16,45445.25,0.0,45445.25,0,
2025-05-18,45445.25,0.0,45445.25,0,
2025-05-19,45445.25,0.0,45445.25,0,
2025-05-20,45445.25,0.0,45445.25,0,
2025-05-21,45445.25,0.0,45445.25,0,
2025-05-22,45445.25,0.0,45445.25,0,
2025-05-23,45445.25,0.0,45445.25,0,
2025-05-25,45445.25,0.0,45445.25,0,
2025-05-26,45445.25,0.0,45445.25,0,
2025-05-27,45445.25,0.0,45445.25,0,
2025-05-28,45445.25,0.0,45445.25,0,
2025-05-29,45445.25,0.0,45445.25,0,
2025-05-30,45445.25,0.0,45445.25,0,
2025-06-01,45445.25,0.0,45445.25,0,
2025-06-02,45445.25,0.0,45445.25,0,
2025-06-03,45445.25,0.0,45445.25,0,
2025-06-04,45445.25,0.0,45445.25,0,
2025-06-05,45445.25,0.0,45445.25,0,
2025-06-06,45445.25,0.0,45445.25,0,
2025-06-08,45445.25,0.0,45445.25,0,
2025-06-09,45445.25,0.0,45445.25,0,
2025-06-10,45445.25,0.0,45445.25,0,
2025-06-11,45445.25,0.0,45445.25,0,
2025-06-12,45445.25,0.0,45445.25,0,
2025-06-13,45445.25,0.0,45445.25,0,
2025-06-15,45445.25,0.0,45445.25,0,
2025-06-16,45445.25,0.0,45445.25,0,
2025-06-17,45445.25,0.0,45445.25,0,
2025-06-18,45445.25,0.0,45445.25,0,
2025-06-19,45445.25,0.0,45445.25,0,
2025-06-20,45445.25,0.0,45445.25,0,
2025-06-22,45445.25,0.0,45445.25,0,
2025-06-23,45445.25,0.0,45445.25,0,
2025-06-24,45445.25,0.0,45445.25,0,
2025-06-25,45445.25,0.0,45445.25,0,
2025-06-26,45445.25,0.0,45445.25,0,
2025-06-27,45445.25,0.0,45445.25,0,
2025-06-29,45445.25,0.0,45445.25,0,
2025-06-30,45445.25,0.0,45445.25,0,
2025-07-01,45445.25,0.0,45445.25,0,
2025-07-02,45445.25,0.0,45445.25,0,
2025-07-03,45445.25,0.0,45445.25,0,
2025-07-04,45445.25,0.0,45445.25,0,
2025-07-06,45445.25,0.0,45445.25,0,
2025-07-07,45445.25,0.0,45445.25,0,
2025-07-08,45445.25,0.0,45445.25,0,
2025-07-09,45445.25,0.0,45445.25,0,
2025-07-10,45445.25,0.0,45445.25,0,
2025-07-11,45445.25,0.0,45445.25,0,
2025-07-13,45445.25,0.0,45445.25,0,
2025-07-14,45445.25,0.0,45445.25,0,
2025-07-15,45445.25,0.0,45445.25,0,
2025-07-16,45445.25,0.0,45445.25,0,
2025-07-17,45445.25,0.0,45445.25,0,
2025-07-18,45445.25,0.0,45445.25,0,
2025-07-20,45445.25,0.0,45445.25,0,
2025-07-21,45445.25,0.0,45445.25,0,
2025-07-22,45445.25,0.0,45445.25,0,
2025-07-23,45445.25,0.0,45445.25,0,
2025-07-24,45445.25,0.0,45445.25,0,
2025-07-25,45445.25,0.0,45445.25,0,
2025-07-27,45445.25,0.0,45445.25,0,
2025-07-28,45445.25,0.0,45445.25,0,
2025-07-29,45445.25,0.0,45445.25,0,
2025-07-30,45445.25,0.0,45445.25,0,
2025-07-31,45445.25,0.0,45445.25,0,
2025-08-01,45445.25,0.0,45445.25,0,
2025-08-03,45445.25,0.0,45445.25,0,
2025-08-04,45445.25,0.0,45445.25,0,
2025-08-05,45445.25,0.0,45445.25,0,
2025-08-06,45445.25,0.0,45445.25,0,
2025-08-07,45445.25,0.0,45445.25,0,
2025-08-08,45445.25,682.5,46127.75,3,Long
2025-08-10,45445.25,504.0,45949.25,3,Long
2025-08-11,45445.25,291.0,45736.25,3,Long
2025-08-12,45445.25,1262.25,46707.5,3,Long
2025-08-13,45445.25,1228.5,46673.75,3,Long
2025-08-14,45445.25,1047.0,46492.25,3,Long
2025-08-15,45445.25,770.25,46215.5,3,Long
2025-08-17,45445.25,933.75,46379.0,3,Long
2025-08-18,45445.25,795.0,46240.25,3,Long
2025-08-19,45445.25,-353.25,45092.0,3,Long
2025-08-20,45094.25,0.0,45094.25,0,
2025-08-21,45094.25,0.0,45094.25,0,
2025-08-22,45094.25,0.0,45094.25,0,
2025-08-24,45094.25,-76.5,45017.75,3,Long
2025-08-25,45094.25,-310.5,44783.75,3,Long
2025-08-26,44783.0,0.0,44783.0,0,
2025-08-27,44783.0,-318.75,44464.25,3,Long
2025-08-28,44464.25,0.0,44464.25,0,
2025-08-29,44464.25,-879.0,43585.25,3,Long
2025-08-31,43657.25,0.0,43657.25,0,
2025-09-01,43657.25,0.0,43657.25,0,
2025-09-02,43657.25,0.0,43657.25,0,
2025-09-03,43657.25,0.0,43657.25,0,
2025-09-04,43657.25,0.0,43657.25,0,
2025-09-05,43657.25,-99.75,43557.5,3,Long
2025-09-07,43657.25,214.5,43871.75,3,Long
2025-09-08,43657.25,303.0,43960.25,3,Long
2025-09-09,43657.25,538.5,44195.75,3,Long
2025-09-10,43657.25,583.5,44240.75,3,Long
2025-09-11,43657.25,939.0,44596.25,3,Long
2025-09-12,43657.25,1224.75,44882.0,3,Long
2025-09-14,43657.25,1214.25,44871.5,3,Long
2025-09-15,43657.25,1796.25,45453.5,3,Long
2025-09-16,43657.25,2510.25,46167.5,3,Long
2025-09-17,43657.25,2633.25,46290.5,3,Long
2025-09-18,43657.25,3101.25,46758.5,3,Long
2025-09-19,43657.25,3482.25,47139.5,4,Long
2025-09-21,43657.25,3442.25,47099.5,4,Long
2025-09-22,43657.25,4027.25,47684.5,4,Long
2025-09-23,43657.25,3400.25,47057.5,4,Long
2025-09-24,43657.25,3060.25,46717.5,4,Long
2025-09-25,43657.25,2504.25,46161.5,4,Long
2025-09-26,43657.25,2947.25,46604.5,4,Long
2025-09-28,43657.25,3126.25,46783.5,4,Long
2025-09-29,43657.25,3333.25,46990.5,4,Long
2025-09-30,43657.25,3358.25,47015.5,4,Long
2025-10-01,43657.25,4127.25,47784.5,4,Long
2025-10-02,43657.25,4534.25,48191.5,4,Long
2025-10-03,43657.25,3926.0,47583.25,5,Long
2025-10-05,43657.25,4352.25,48009.5,5,Long
2025-10-06,43657.25,4728.5,48385.75,5,Long
2025-10-07,43657.25,4186.0,47843.25,5,Long
2025-10-08,43657.25,5913.5,49570.75,5,Long
2025-10-09,43657.25,5693.5,49350.75,5,Long
2025-10-10,49353.25,0.0,49353.25,0,
2025-10-12,49353.25,0.0,49353.25,0,
2025-10-13,49353.25,0.0,49353.25,0,
2025-10-14,49353.25,0.0,49353.25,0,
2025-10-15,49353.25,0.0,49353.25,0,
2025-10-16,49353.25,0.0,49353.25,0,
2025-10-17,49353.25,0.0,49353.25,0,
2025-10-19,49353.25,0.0,49353.25,0,
2025-10-20,49353.25,0.0,49353.25,0,
2025-10-21,49353.25,0.0,49353.25,0,
2025-10-22,49353.25,0.0,49353.25,0,
2025-10-23,49353.25,0.0,49353.25,0,
2025-10-24,49353.25,0.0,49353.25,0,
2025-10-26,49353.25,56.25,49409.5,3,Long
2025-10-27,49353.25,888.75,50242.0,3,Long
2025-10-28,49353.25,1456.5,50809.75,3,Long
2025-10-29,49353.25,1611.75,50965.0,3,Long
2025-10-30,49353.25,1416.0,50769.25,3,Long
2025-10-31,49353.25,855.75,50209.0,3,Long
2025-11-02,49353.25,1146.75,50500.0,3,Long
2025-11-03,49353.25,1111.5,50464.75,3,Long
2025-11-04,49353.25,-584.25,48769.0,3,Long
2025-11-05,48770.5,0.0,48770.5,0,
2025-11-06,48770.5,-1368.0,47402.5,3,Long
2025-11-07,47402.5,0.0,47402.5,0,
2025-11-09,47402.5,0.0,47402.5,0,
2025-11-10,47402.5,0.0,47402.5,0,
2025-11-11,47402.5,-275.25,47127.25,3,Long
2025-11-12,47128.0,0.0,47128.0,0,
2025-11-13,47128.0,0.0,47128.0,0,
2025-11-14,47128.0,0.0,47128.0,0,
2025-11-16,47128.0,0.0,47128.0,0,
2025-11-17,47128.0,0.0,47128.0,0,
2025-11-18,47128.0,0.0,47128.0,0,
2025-11-19,47128.0,0.0,47128.0,0,
2025-11-20,47128.0,0.0,47128.0,0,
2025-11-21,47128.0,0.0,47128.0,0,
2025-11-23,47128.0,0.0,47128.0,0,
2025-11-24,47128.0,0.0,47128.0,0,
2025-11-25,47128.0,0.0,47128.0,0,
2025-11-26,47128.0,0.0,47128.0,0,
2025-11-27,47128.0,0.0,47128.0,0,
2025-11-28,47128.0,0.0,47128.0,0,
2025-11-30,47128.0,0.0,47128.0,0,
2025-12-01,47128.0,0.0,47128.0,0,
2025-12-02,47128.0,0.0,47128.0,0,
2025-12-03,47128.0,0.0,47128.0,0,
2025-12-04,47128.0,0.0,47128.0,0,
2025-12-05,47128.0,0.0,47128.0,0,
2025-12-07,47128.0,0.0,47128.0,0,
2025-12-08,47128.0,0.0,47128.0,0,
2025-12-09,47128.0,0.0,47128.0,0,
2025-12-10,47128.0,0.0,47128.0,0,
2025-12-11,47128.0,0.0,47128.0,0,
2025-12-12,47128.0,0.0,47128.0,0,
2025-12-14,47128.0,0.0,47128.0,0,
2025-12-15,47128.0,0.0,47128.0,0,
2025-12-16,47128.0,0.0,47128.0,0,
2025-12-17,47128.0,0.0,47128.0,0,
2025-12-18,47128.0,0.0,47128.0,0,
2025-12-19,47128.0,0.0,47128.0,0,
2025-12-21,47128.0,0.0,47128.0,0,
2025-12-22,47128.0,0.0,47128.0,0,
2025-12-23,47128.0,0.0,47128.0,0,
2025-12-24,47128.0,155.25,47283.25,3,Long
2025-12-25,47128.0,231.75,47359.75,3,Long
2025-12-26,47128.0,141.0,47269.0,3,Long
2025-12-28,47128.0,180.0,47308.0,3,Long
2025-12-29,47128.0,-309.0,46819.0,3,Long
2025-12-30,46819.75,0.0,46819.75,0,
2025-12-31,46819.75,0.0,46819.75,0,
2026-01-01,46819.75,0.0,46819.75,0,
2026-01-02,46819.75,0.0,46819.75,0,
2026-01-04,46819.75,0.0,46819.75,0,
2026-01-05,46819.75,0.0,46819.75,0,
2026-01-06,46819.75,0.0,46819.75,0,
2026-01-07,46819.75,0.0,46819.75,0,
2026-01-08,46819.75,0.0,46819.75,0,
2026-01-09,46819.75,0.0,46819.75,0,
2026-01-11,46819.75,0.0,46819.75,0,
2026-01-12,46819.75,0.0,46819.75,0,
2026-01-13,46819.75,0.0,46819.75,0,
2026-01-14,46819.75,0.0,46819.75,0,
2026-01-15,46819.75,0.0,46819.75,0,
2026-01-16,46819.75,0.0,46819.75,0,
2026-01-18,46819.75,0.0,46819.75,0,
2026-01-19,46819.75,0.0,46819.75,0,
2026-01-20,46819.75,0.0,46819.75,0,
2026-01-21,46819.75,0.0,46819.75,0,
2026-01-22,46819.75,0.0,46819.75,0,
2026-01-23,46819.75,0.0,46819.75,0,
2026-01-25,46819.75,0.0,46819.75,0,
2026-01-26,46819.75,0.0,46819.75,0,
2026-01-27,46819.75,0.0,46819.75,0,
2026-01-28,46819.75,0.0,46819.75,0,
2026-01-29,46819.75,0.0,46819.75,0,
2026-01-30,46819.75,0.0,46819.75,0,
2026-02-01,46819.75,0.0,46819.75,0,
2026-02-02,46819.75,0.0,46819.75,0,
2026-02-03,46819.75,0.0,46819.75,0,
2026-02-04,46819.75,0.0,46819.75,0,
2026-02-05,46819.75,0.0,46819.75,0,
2026-02-06,46819.75,0.0,46819.75,0,
2026-02-08,46819.75,0.0,46819.75,0,
2026-02-09,46819.75,0.0,46819.75,0,
2026-02-10,46819.75,0.0,46819.75,0,
2026-02-11,46819.75,0.0,46819.75,0,
2026-02-12,46819.75,0.0,46819.75,0,
2026-02-13,46819.75,0.0,46819.75,0,
2026-02-15,46819.75,0.0,46819.75,0,
2026-02-16,46819.75,0.0,46819.75,0,
2026-02-17,46819.75,0.0,46819.75,0,
2026-02-18,46819.75,0.0,46819.75,0,
2026-02-19,46819.75,0.0,46819.75,0,
2026-02-20,46819.75,0.0,46819.75,0,
2026-02-22,46819.75,0.0,46819.75,0,
2026-02-23,46819.75,0.0,46819.75,0,
2026-02-24,46819.75,0.0,46819.75,0,
2026-02-25,46819.75,0.0,46819.75,0,
2026-02-26,46819.75,0.0,46819.75,0,
2026-02-27,46819.75,0.0,46819.75,0,
2026-03-01,46819.75,0.0,46819.75,0,
2026-03-02,46819.75,0.0,46819.75,0,
2026-03-03,46819.75,0.0,46819.75,0,
2026-03-04,46819.75,0.0,46819.75,0,
2026-03-05,46819.75,0.0,46819.75,0,
2026-03-06,46819.75,0.0,46819.75,0,
2026-03-08,46819.75,0.0,46819.75,0,
