date,realized_points,open_unrealized_points,total_equity_points,open_units,direction
2019-05-05,0.0,0.0,0.0,0,
2019-05-06,0.0,0.0,0.0,0,
2019-05-07,0.0,0.0,0.0,0,
2019-05-08,0.0,0.0,0.0,0,
2019-05-09,0.0,0.0,0.0,0,
2019-05-10,0.0,0.0,0.0,0,
2019-05-12,0.0,0.0,0.0,0,
2019-05-13,0.0,0.0,0.0,0,
2019-05-14,0.0,0.0,0.0,0,
2019-05-15,0.0,0.0,0.0,0,
2019-05-16,0.0,0.0,0.0,0,
2019-05-17,0.0,0.0,0.0,0,
2019-05-19,0.0,0.0,0.0,0,
2019-05-20,0.0,0.0,0.0,0,
2019-05-21,0.0,0.0,0.0,0,
2019-05-22,0.0,0.0,0.0,0,
2019-05-23,0.0,0.0,0.0,0,
2019-05-24,0.0,0.0,0.0,0,
2019-05-26,0.0,0.0,0.0,0,
2019-05-27,0.0,0.0,0.0,0,
2019-05-28,0.0,0.0,0.0,0,
2019-05-29,0.0,0.0,0.0,0,
2019-05-30,0.0,0.0,0.0,0,
2019-05-31,0.0,0.0,0.0,0,
2019-06-02,0.0,0.0,0.0,0,
2019-06-03,0.0,0.0,0.0,0,
2019-06-04,0.0,0.0,0.0,0,
2019-06-05,0.0,0.0,0.0,0,
2019-06-06,0.0,0.0,0.0,0,
2019-06-07,0.0,0.0,0.0,0,
2019-06-09,0.0,-5.25,-5.25,1,Long
2019-06-10,0.0,46.5,46.5,1,Long
2019-06-11,0.0,53.0,53.0,1,Long
2019-06-12,0.0,28.75,28.75,1,Long
2019-06-13,0.0,34.5,34.5,1,Long
2019-06-14,0.0,23.0,23.0,1,Long
2019-06-16,0.0,65.0,65.0,1,Long
2019-06-17,0.0,101.75,101.75,1,Long
2019-06-18,0.0,224.0,224.0,1,Long
2019-06-19,0.0,266.25,266.25,1,Long
2019-06-20,0.0,302.75,302.75,1,Long
2019-06-21,0.0,285.25,285.25,2,Long
2019-06-23,0.0,332.75,332.75,2,Long
2019-06-24,0.0,310.25,310.25,2,Long
2019-06-25,0.0,44.75,44.75,2,Long
2019-06-26,0.0,99.75,99.75,2,Long
2019-06-27,0.0,183.75,183.75,2,Long
2019-06-28,0.0,240.25,240.25,2,Long
2019-06-30,0.0,397.25,397.25,2,Long
2019-07-01,0.0,347.25,347.25,2,Long
2019-07-02,0.0,463.25,463.25,2,Long
2019-07-03,0.0,572.25,572.25,2,Long
2019-07-04,0.0,600.75,600.75,2,Long
2019-07-05,0.0,501.75,501.75,3,Long
2019-07-07,0.0,465.75,465.75,3,Long
2019-07-08,0.0,319.5,319.5,3,Long
2019-07-09,0.0,478.5,478.5,3,Long
2019-07-10,0.0,719.25,719.25,3,Long
2019-07-11,0.0,702.75,702.75,3,Long
2019-07-12,0.0,811.5,811.5,3,Long
2019-07-14,0.0,793.5,793.5,3,Long
2019-07-15,0.0,921.0,921.0,3,Long
2019-07-16,0.0,762.0,762.0,3,Long
2019-07-17,0.0,556.5,556.5,3,Long
2019-07-18,0.0,774.75,774.75,3,Long
2019-07-19,0.0,394.5,394.5,4,Long
2019-07-21,0.0,522.5,522.5,4,Long
2019-07-22,0.0,833.5,833.5,4,Long
2019-07-23,0.0,932.5,932.5,4,Long
2019-07-24,0.0,1185.5,1185.5,4,Long
2019-07-25,0.0,1089.5,1089.5,4,Long
2019-07-26,0.0,1178.5,1178.5,4,Long
2019-07-28,0.0,1190.5,1190.5,4,Long
2019-07-29,0.0,1158.5,1158.5,4,Long
2019-07-30,0.0,1076.5,1076.5,4,Long
2019-07-31,0.0,468.5,468.5,4,Long
2019-08-01,0.0,261.5,261.5,4,Long
2019-08-02,265.5,0.0,265.5,0,
2019-08-04,265.5,0.0,265.5,0,
2019-08-05,265.5,0.0,265.5,0,
2019-08-06,265.5,0.0,265.5,0,
2019-08-07,265.5,0.0,265.5,0,
2019-08-08,265.5,0.0,265.5,0,
2019-08-09,265.5,0.0,265.5,0,
2019-08-11,265.5,0.0,265.5,0,
2019-08-12,265.5,0.0,265.5,0,
2019-08-13,265.5,0.0,265.5,0,
2019-08-14,265.5,0.0,265.5,0,
2019-08-15,265.5,0.0,265.5,0,
2019-08-16,265.5,0.0,265.5,0,
2019-08-18,265.5,0.0,265.5,0,
2019-08-19,265.5,0.0,265.5,0,
2019-08-20,265.5,0.0,265.5,0,
2019-08-21,265.5,0.0,265.5,0,
2019-08-22,265.5,0.0,265.5,0,
2019-08-23,265.5,0.0,265.5,0,
2019-08-25,265.5,0.0,265.5,0,
2019-08-26,265.5,0.0,265.5,0,
2019-08-27,265.5,0.0,265.5,0,
2019-08-28,265.5,0.0,265.5,0,
2019-08-29,265.5,0.0,265.5,0,
2019-08-30,265.5,0.0,265.5,0,
2019-09-01,265.5,0.0,265.5,0,
2019-09-02,265.5,0.0,265.5,0,
2019-09-03,265.5,0.0,265.5,0,
2019-09-04,265.5,0.0,265.5,0,
2019-09-05,265.5,0.0,265.5,0,
2019-09-06,265.5,-8.0,257.5,1,Long
2019-09-08,265.5,-9.25,256.25,1,Long
2019-09-09,265.5,-30.25,235.25,1,Long
2019-09-10,265.5,-62.25,203.25,1,Long
2019-09-11,265.5,78.75,344.25,1,Long
2019-09-12,265.5,60.25,325.75,1,Long
2019-09-13,265.5,38.25,303.75,1,Long
2019-09-15,265.5,-33.75,231.75,1,Long
2019-09-16,265.5,12.0,277.5,1,Long
2019-09-17,265.5,38.25,303.75,1,Long
2019-09-18,265.5,33.0,298.5,1,Long
2019-09-19,265.5,54.0,319.5,1,Long
2019-09-20,265.5,-41.25,224.25,2,Long
2019-09-22,265.5,47.25,312.75,2,Long
2019-09-23,265.5,64.75,330.25,2,Long
2019-09-24,265.5,-200.25,65.25,2,Long
2019-09-25,265.5,-73.25,192.25,2,Long
2019-09-26,265.5,-151.25,114.25,2,Long
2019-09-27,265.5,-274.75,-9.25,2,Long
2019-09-29,265.5,-259.25,6.25,2,Long
2019-09-30,265.5,-143.25,122.25,2,Long
2019-10-01,265.5,-261.75,3.75,2,Long
2019-10-02,1.75,0.0,1.75,0,
2019-10-03,1.75,0.0,1.75,0,
2019-10-04,1.75,0.0,1.75,0,
2019-10-06,1.75,0.0,1.75,0,
2019-10-07,1.75,0.0,1.75,0,
2019-10-08,1.75,0.0,1.75,0,
2019-10-09,1.75,0.0,1.75,0,
2019-10-10,1.75,0.0,1.75,0,
2019-10-11,1.75,0.0,1.75,0,
2019-10-13,1.75,0.0,1.75,0,
2019-10-14,1.75,0.0,1.75,0,
2019-10-15,1.75,0.0,1.75,0,
2019-10-16,1.75,0.0,1.75,0,
2019-10-17,1.75,0.0,1.75,0,
2019-10-18,1.75,0.0,1.75,0,
2019-10-20,1.75,0.0,1.75,0,
2019-10-21,1.75,0.0,1.75,0,
2019-10-22,1.75,0.0,1.75,0,
2019-10-23,1.75,0.0,1.75,0,
2019-10-24,1.75,0.0,1.75,0,
2019-10-25,1.75,0.0,1.75,0,
2019-10-27,1.75,9.0,10.75,1,Long
2019-10-28,1.75,64.75,66.5,1,Long
2019-10-29,1.75,11.0,12.75,1,Long
2019-10-30,1.75,75.25,77.0,1,Long
2019-10-31,1.75,41.5,43.25,1,Long
2019-11-01,1.75,115.0,116.75,1,Long
2019-11-03,1.75,128.75,130.5,1,Long
2019-11-04,1.75,191.75,193.5,1,Long
2019-11-05,1.75,165.25,167.0,1,Long
2019-11-06,1.75,155.25,157.0,1,Long
2019-11-07,1.75,189.25,191.0,1,Long
2019-11-08,1.75,212.0,213.75,2,Long
2019-11-10,1.75,196.5,198.25,2,Long
2019-11-11,1.75,180.0,181.75,2,Long
2019-11-12,1.75,221.0,222.75,2,Long
2019-11-13,1.75,220.5,222.25,2,Long
2019-11-14,1.75,235.0,236.75,2,Long
2019-11-15,1.75,339.5,341.25,2,Long
2019-11-17,1.75,312.5,314.25,2,Long
2019-11-18,1.75,347.5,349.25,2,Long
2019-11-19,1.75,327.5,329.25,2,Long
2019-11-20,1.75,232.5,234.25,2,Long
2019-11-21,1.75,232.0,233.75,2,Long
2019-11-22,1.75,256.0,257.75,3,Long
2019-11-24,1.75,330.25,332.0,3,Long
2019-11-25,1.75,536.5,538.25,3,Long
2019-11-26,1.75,614.5,616.25,3,Long
2019-11-27,1.75,686.5,688.25,3,Long
2019-11-28,1.75,757.75,759.5,3,Long
2019-11-29,1.75,673.75,675.5,3,Long
2019-12-01,1.75,703.0,704.75,3,Long
2019-12-02,1.75,322.75,324.5,3,Long
2019-12-03,1.75,195.25,197.0,3,Long
2019-12-04,1.75,282.25,284.0,3,Long
2019-12-05,1.75,354.25,356.0,3,Long
2019-12-06,1.75,619.75,621.5,4,Long
2019-12-08,1.75,624.75,626.5,4,Long
2019-12-09,1.75,439.75,441.5,4,Long
2019-12-10,1.75,450.75,452.5,4,Long
2019-12-11,1.75,665.75,667.5,4,Long
2019-12-12,1.75,1014.75,1016.5,4,Long
2019-12-13,1.75,1095.75,1097.5,4,Long
2019-12-15,1.75,1148.75,1150.5,4,Long
2019-12-16,1.75,1401.75,1403.5,4,Long
2019-12-17,1.75,1419.75,1421.5,4,Long
2019-12-18,1.75,1494.75,1496.5,4,Long
2019-12-19,1.75,1726.75,1728.5,4,Long
2019-12-20,1.75,1847.75,1849.5,5,Long
2019-12-22,1.75,1907.75,1909.5,5,Long
2019-12-23,1.75,1942.75,1944.5,5,Long
2019-12-24,1.75,1946.5,1948.25,5,Long
2019-12-25,1.75,1947.75,1949.5,5,Long
2019-12-26,1.75,2336.5,2338.25,5,Long
2019-12-27,1.75,2190.25,2192.0,5,Long
2019-12-29,1.75,2285.25,2287.0,5,Long
2019-12-30,1.75,1971.5,1973.25,5,Long
2019-12-31,1.75,2154.0,2155.75,5,Long
2020-01-01,1.75,2176.5,2178.25,5,Long
2020-01-02,1.75,2790.25,2792.0,5,Long
2020-01-03,1.75,2347.75,2349.5,5,Long
2020-01-05,1.75,2186.5,2188.25,5,Long
2020-01-06,1.75,2541.5,2543.25,5,Long
2020-01-07,1.75,2056.5,2058.25,5,Long
2020-01-08,1.75,3056.5,3058.25,5,Long
2020-01-09,1.75,3374.0,3375.75,5,Long
2020-01-10,1.75,3187.75,3189.5,5,Long
2020-01-12,1.75,3234.0,3235.75,5,Long
2020-01-13,1.75,3821.5,3823.25,5,Long
2020-01-14,1.75,3451.5,3453.25,5,Long
2020-01-15,1.75,3667.75,3669.5,5,Long
2020-01-16,1.75,4025.25,4027.0,5,Long
2020-01-17,1.75,4152.75,4154.5,5,Long
2020-01-19,1.75,4220.25,4222.0,5,Long
2020-01-20,1.75,4146.5,4148.25,5,Long
2020-01-21,1.75,4187.75,4189.5,5,Long
2020-01-22,1.75,4209.0,4210.75,5,Long
2020-01-23,1.75,4646.5,4648.25,5,Long
2020-01-24,1.75,3982.75,3984.5,5,Long
2020-01-26,1.75,3369.0,3370.75,5,Long
2020-01-27,1.75,3190.25,3192.0,5,Long
2020-01-28,1.75,3796.5,3798.25,5,Long
2020-01-29,1.75,3905.25,3907.0,5,Long
2020-01-30,1.75,4386.5,4388.25,5,Long
2020-01-31,1.75,3359.0,3360.75,5,Long
2020-02-02,1.75,3397.75,3399.5,5,Long
2020-02-03,1.75,3745.25,3747.0,5,Long
2020-02-04,1.75,4986.5,4988.25,5,Long
2020-02-05,1.75,5201.5,5203.25,5,Long
2020-02-06,1.75,5630.25,5632.0,5,Long
2020-02-07,1.75,5296.5,5298.25,5,Long
2020-02-09,1.75,5077.75,5079.5,5,Long
2020-02-10,1.75,5922.75,5924.5,5,Long
2020-02-11,1.75,6002.75,6004.5,5,Long
2020-02-12,1.75,6179.0,6180.75,5,Long
2020-02-13,1.75,6345.25,6347.0,5,Long
2020-02-14,1.75,6450.25,6452.0,5,Long
2020-02-16,1.75,6616.5,6618.25,5,Long
2020-02-17,1.75,6310.25,6312.0,5,Long
2020-02-18,1.75,6617.75,6619.5,5,Long
2020-02-19,1.75,7021.5,7023.25,5,Long
2020-02-20,1.75,6160.25,6162.0,5,Long
2020-02-21,1.75,5577.75,5579.5,5,Long
2020-02-23,5127.0,0.0,5127.0,0,
2020-02-24,5127.0,0.0,5127.0,0,
2020-02-25,5127.0,0.0,5127.0,0,
2020-02-26,5127.0,0.0,5127.0,0,
2020-02-27,5127.0,0.0,5127.0,0,
2020-02-28,5127.0,0.0,5127.0,0,
2020-03-01,5127.0,0.0,5127.0,0,
2020-03-02,5127.0,0.0,5127.0,0,
2020-03-03,5127.0,0.0,5127.0,0,
2020-03-04,5127.0,0.0,5127.0,0,
2020-03-05,5127.0,0.0,5127.0,0,
2020-03-06,5127.0,0.0,5127.0,0,
2020-03-08,5127.0,0.0,5127.0,0,
2020-03-09,5127.0,0.0,5127.0,0,
2020-03-10,5127.0,0.0,5127.0,0,
2020-03-11,5127.0,0.0,5127.0,0,
2020-03-12,5127.0,0.0,5127.0,0,
2020-03-13,5127.0,0.0,5127.0,0,
2020-03-15,5127.0,0.0,5127.0,0,
2020-03-16,5127.0,0.0,5127.0,0,
2020-03-17,5127.0,0.0,5127.0,0,
2020-03-18,5127.0,0.0,5127.0,0,
2020-03-19,5127.0,0.0,5127.0,0,
2020-03-20,5127.0,0.0,5127.0,0,
2020-03-22,5127.0,0.0,5127.0,0,
2020-03-23,5127.0,0.0,5127.0,0,
2020-03-24,5127.0,0.0,5127.0,0,
2020-03-25,5127.0,0.0,5127.0,0,
2020-03-26,5127.0,0.0,5127.0,0,
2020-03-27,5127.0,0.0,5127.0,0,
2020-03-29,5127.0,0.0,5127.0,0,
2020-03-30,5127.0,0.0,5127.0,0,
2020-03-31,5127.0,0.0,5127.0,0,
2020-04-01,5127.0,0.0,5127.0,0,
2020-04-02,5127.0,0.0,5127.0,0,
2020-04-03,5127.0,0.0,5127.0,0,
2020-04-05,5127.0,0.0,5127.0,0,
2020-04-06,5127.0,0.0,5127.0,0,
2020-04-07,5127.0,0.0,5127.0,0,
2020-04-08,5127.0,0.0,5127.0,0,
2020-04-09,5127.0,13.25,5140.25,1,Long
2020-04-12,5127.0,-108.25,5018.75,1,Long
2020-04-13,5127.0,139.0,5266.0,1,Long
2020-04-14,5127.0,447.0,5574.0,1,Long
2020-04-15,5127.0,306.25,5433.25,1,Long
2020-04-16,5127.0,706.75,5833.75,1,Long
2020-04-17,5127.0,581.5,5708.5,1,Long
2020-04-19,5127.0,520.5,5647.5,1,Long
2020-04-20,5127.0,503.75,5630.75,1,Long
2020-04-21,5127.0,231.5,5358.5,1,Long
2020-04-22,5127.0,390.0,5517.0,1,Long
2020-04-23,5127.0,325.75,5452.75,1,Long
2020-04-24,5127.0,540.75,5667.75,2,Long
2020-04-26,5127.0,513.25,5640.25,2,Long
2020-04-27,5127.0,653.25,5780.25,2,Long
2020-04-28,5127.0,541.75,5668.75,2,Long
2020-04-29,5127.0,1188.25,6315.25,2,Long
2020-04-30,5127.0,682.75,5809.75,2,Long
2020-05-01,5127.0,410.25,5537.25,2,Long
2020-05-03,5127.0,172.25,5299.25,2,Long
2020-05-04,5127.0,653.75,5780.75,2,Long
2020-05-05,5127.0,918.75,6045.75,2,Long
2020-05-06,5127.0,935.75,6062.75,2,Long
2020-05-07,5127.0,1288.75,6415.75,2,Long
2020-05-08,5127.0,1448.75,6575.75,3,Long
2020-05-10,5127.0,1545.5,6672.5,3,Long
2020-05-11,5127.0,1616.75,6743.75,3,Long
2020-05-12,5127.0,827.75,5954.75,3,Long
2020-05-13,5127.0,819.5,5946.5,3,Long
2020-05-14,5127.0,1108.25,6235.25,3,Long
2020-05-15,5127.0,1144.25,6271.25,3,Long
2020-05-17,5127.0,1279.25,6406.25,3,Long
2020-05-18,5127.0,1817.75,6944.75,3,Long
2020-05-19,5127.0,1739.75,6866.75,3,Long
2020-05-20,5127.0,2242.25,7369.25,3,Long
2020-05-21,5127.0,1993.25,7120.25,3,Long
2020-05-22,5127.0,2053.25,7180.25,4,Long
2020-05-24,5127.0,2186.25,7313.25,4,Long
2020-05-25,5127.0,2403.25,7530.25,4,Long
2020-05-26,5127.0,1940.25,7067.25,4,Long
2020-05-27,5127.0,2131.25,7258.25,4,Long
2020-05-28,5127.0,2035.25,7162.25,4,Long
2020-05-29,5127.0,2718.25,7845.25,4,Long
2020-05-31,5127.0,2391.25,7518.25,4,Long
2020-06-01,5127.0,2625.25,7752.25,4,Long
2020-06-02,5127.0,3062.25,8189.25,4,Long
2020-06-03,5127.0,3149.25,8276.25,4,Long
2020-06-04,5127.0,2837.25,7964.25,4,Long
2020-06-05,5127.0,3592.25,8719.25,5,Long
2020-06-07,5127.0,3908.5,9035.5,5,Long
2020-06-08,5127.0,3954.75,9081.75,5,Long
2020-06-09,5127.0,4501.0,9628.0,5,Long
2020-06-10,5127.0,4772.25,9899.25,5,Long
2020-06-11,5127.0,2948.5,8075.5,5,Long
2020-06-12,5127.0,2766.0,7893.0,5,Long
2020-06-14,5127.0,2246.0,7373.0,5,Long
2020-06-15,5127.0,3881.0,9008.0,5,Long
2020-06-16,5127.0,4474.75,9601.75,5,Long
2020-06-17,5127.0,4302.25,9429.25,5,Long
2020-06-18,5127.0,4658.5,9785.5,5,Long
2020-06-19,5127.0,4177.25,9304.25,5,Long
2020-06-21,5127.0,4079.75,9206.75,5,Long
2020-06-22,5127.0,5303.5,10430.5,5,Long
2020-06-23,5127.0,5458.5,10585.5,5,Long
2020-06-24,5127.0,4422.25,9549.25,5,Long
2020-06-25,5127.0,5086.0,10213.0,5,Long
2020-06-26,5127.0,3774.75,8901.75,5,Long
2020-06-28,5127.0,3689.75,8816.75,5,Long
2020-06-29,5127.0,4518.5,9645.5,5,Long
2020-06-30,5127.0,4728.5,9855.5,5,Long
2020-07-01,5127.0,5902.25,11029.25,5,Long
2020-07-02,5127.0,6304.75,11431.75,5,Long
2020-07-03,5127.0,6181.0,11308.0,5,Long
2020-07-05,5127.0,6519.75,11646.75,5,Long
2020-07-06,5127.0,7754.75,12881.75,5,Long
2020-07-07,5127.0,7306.0,12433.0,5,Long
2020-07-08,5127.0,7967.25,13094.25,5,Long
2020-07-09,5127.0,8326.0,13453.0,5,Long
2020-07-10,5127.0,8768.5,13895.5,5,Long
2020-07-12,5127.0,8938.5,14065.5,5,Long
2020-07-13,5127.0,7782.25,12909.25,5,Long
2020-07-14,5127.0,8142.25,13269.25,5,Long
2020-07-15,5127.0,7791.0,12918.0,5,Long
2020-07-16,5127.0,7388.5,12515.5,5,Long
2020-07-17,5127.0,7672.25,12799.25,5,Long
2020-07-19,5127.0,7792.25,12919.25,5,Long
2020-07-20,5127.0,9303.5,14430.5,5,Long
2020-07-21,5127.0,8921.0,14048.0,5,Long
2020-07-22,5127.0,8669.75,13796.75,5,Long
2020-07-23,5127.0,7468.5,12595.5,5,Long
2020-07-24,5127.0,6869.75,11996.75,5,Long
2020-07-26,5127.0,6749.75,11876.75,5,Long
2020-07-27,5127.0,8047.25,13174.25,5,Long
2020-07-28,5127.0,7374.75,12501.75,5,Long
2020-07-29,5127.0,7952.25,13079.25,5,Long
2020-07-30,5127.0,9082.25,14209.25,5,Long
2020-07-31,5127.0,9132.25,14259.25,5,Long
2020-08-02,5127.0,9113.5,14240.5,5,Long
2020-08-03,5127.0,9737.25,14864.25,5,Long
2020-08-04,5127.0,9923.5,15050.5,5,Long
2020-08-05,5127.0,10001.0,15128.0,5,Long
2020-08-06,5127.0,10817.25,15944.25,5,Long
2020-08-07,5127.0,10209.75,15336.75,5,Long
2020-08-09,5127.0,10091.0,15218.0,5,Long
2020-08-10,5127.0,9924.75,15051.75,5,Long
2020-08-11,5127.0,9168.5,14295.5,5,Long
2020-08-12,5127.0,10213.5,15340.5,5,Long
2020-08-13,5127.0,10581.0,15708.0,5,Long
2020-08-14,5127.0,10283.5,15410.5,5,Long
2020-08-16,5127.0,10362.25,15489.25,5,Long
2020-08-17,5127.0,11079.75,16206.75,5,Long
2020-08-18,5127.0,11637.25,16764.25,5,Long
2020-08-19,5127.0,11007.25,16134.25,5,Long
2020-08-20,5127.0,12052.25,17179.25,5,Long
2020-08-21,5127.0,12369.75,17496.75,5,Long
2020-08-23,5127.0,12472.25,17599.25,5,Long
2020-08-24,5127.0,12788.5,17915.5,5,Long
2020-08-25,5127.0,13288.5,18415.5,5,Long
2020-08-26,5127.0,14393.5,19520.5,5,Long
2020-08-27,5127.0,14401.0,19528.0,5,Long
2020-08-28,5127.0,14573.5,19700.5,5,Long
2020-08-30,5127.0,14793.5,19920.5,5,Long
2020-08-31,5127.0,15181.0,20308.0,5,Long
2020-09-01,5127.0,16357.25,21484.25,5,Long
2020-09-02,5127.0,16663.5,21790.5,5,Long
2020-09-03,21789.25,0.0,21789.25,0,
2020-09-04,21789.25,0.0,21789.25,0,
2020-09-06,21789.25,0.0,21789.25,0,
2020-09-07,21789.25,0.0,21789.25,0,
2020-09-08,21789.25,0.0,21789.25,0,
2020-09-09,21789.25,0.0,21789.25,0,
2020-09-10,21789.25,0.0,21789.25,0,
2020-09-11,21789.25,0.0,21789.25,0,
2020-09-13,21789.25,0.0,21789.25,0,
2020-09-14,21789.25,0.0,21789.25,0,
2020-09-15,21789.25,0.0,21789.25,0,
2020-09-16,21789.25,0.0,21789.25,0,
2020-09-17,21789.25,0.0,21789.25,0,
2020-09-18,21789.25,0.0,21789.25,0,
2020-09-20,21789.25,0.0,21789.25,0,
2020-09-21,21789.25,0.0,21789.25,0,
2020-09-22,21789.25,0.0,21789.25,0,
2020-09-23,21789.25,0.0,21789.25,0,
2020-09-24,21789.25,0.0,21789.25,0,
2020-09-25,21789.25,0.0,21789.25,0,
2020-09-27,21789.25,0.0,21789.25,0,
2020-09-28,21789.25,0.0,21789.25,0,
2020-09-29,21789.25,0.0,21789.25,0,
2020-09-30,21789.25,0.0,21789.25,0,
2020-10-01,21789.25,0.0,21789.25,0,
2020-10-02,21789.25,0.0,21789.25,0,
2020-10-04,21789.25,0.0,21789.25,0,
2020-10-05,21789.25,0.0,21789.25,0,
2020-10-06,21789.25,0.0,21789.25,0,
2020-10-07,21789.25,0.0,21789.25,0,
2020-10-08,21789.25,0.0,21789.25,0,
2020-10-09,21789.25,0.0,21789.25,0,
2020-10-11,21789.25,0.0,21789.25,0,
2020-10-12,21789.25,365.75,22155.0,1,Long
2020-10-13,21789.25,371.25,22160.5,1,Long
2020-10-14,21789.25,217.5,22006.75,1,Long
2020-10-15,21789.25,172.0,21961.25,1,Long
2020-10-16,21789.25,49.75,21839.0,1,Long
2020-10-18,21789.25,129.5,21918.75,1,Long
2020-10-19,21789.25,-28.5,21760.75,1,Long
2020-10-20,21789.25,-39.75,21749.5,1,Long
2020-10-21,21789.25,-118.25,21671.0,1,Long
2020-10-22,21789.25,-78.75,21710.5,1,Long
2020-10-23,21789.25,-74.0,21715.25,2,Long
2020-10-25,21789.25,-158.5,21630.75,2,Long
2020-10-26,21789.25,-434.5,21354.75,2,Long
2020-10-27,21789.25,-337.5,21451.75,2,Long
2020-10-28,21452.75,0.0,21452.75,0,
2020-10-29,21452.75,0.0,21452.75,0,
2020-10-30,21452.75,0.0,21452.75,0,
2020-11-01,21452.75,0.0,21452.75,0,
2020-11-02,21452.75,0.0,21452.75,0,
2020-11-03,21452.75,0.0,21452.75,0,
2020-11-04,21452.75,0.0,21452.75,0,
2020-11-05,21452.75,272.25,21725.0,1,Long
2020-11-06,21452.75,300.25,21753.0,1,Long
2020-11-08,21452.75,438.0,21890.75,1,Long
2020-11-09,21452.75,59.75,21512.5,1,Long
2020-11-10,21452.75,-197.0,21255.75,1,Long
2020-11-11,21452.75,102.0,21554.75,1,Long
2020-11-12,21452.75,57.0,21509.75,1,Long
2020-11-13,21452.75,151.75,21604.5,2,Long
2020-11-15,21452.75,350.25,21803.0,2,Long
2020-11-16,21452.75,356.75,21809.5,2,Long
2020-11-17,21452.75,217.75,21670.5,2,Long
2020-11-18,21452.75,20.25,21473.0,2,Long
2020-11-19,21452.75,134.25,21587.0,2,Long
2020-11-20,21452.75,81.75,21534.5,2,Long
2020-11-22,21452.75,122.25,21575.0,2,Long
2020-11-23,21452.75,163.25,21616.0,2,Long
2020-11-24,21452.75,511.75,21964.5,2,Long
2020-11-25,21452.75,618.75,22071.5,2,Long
2020-11-26,21452.75,568.75,22021.5,2,Long
2020-11-27,21452.75,806.75,22259.5,3,Long
2020-11-29,21452.75,936.5,22389.25,3,Long
2020-11-30,21452.75,1032.5,22485.25,3,Long
2020-12-01,21452.75,1338.5,22791.25,3,Long
2020-12-02,21452.75,1384.25,22837.0,3,Long
2020-12-03,21452.75,1441.25,22894.0,3,Long
2020-12-04,21452.75,1516.25,22969.0,3,Long
2020-12-06,21452.75,1619.75,23072.5,3,Long
2020-12-07,21452.75,1711.25,23164.0,3,Long
2020-12-08,21452.75,1927.25,23380.0,3,Long
2020-12-09,21452.75,1075.25,22528.0,3,Long
2020-12-10,21452.75,1195.25,22648.0,3,Long
2020-12-11,21452.75,1085.0,22537.75,4,Long
2020-12-13,21452.75,1285.0,22737.75,4,Long
2020-12-14,21452.75,1537.0,22989.75,4,Long
2020-12-15,21452.75,1999.0,23451.75,4,Long
2020-12-16,21452.75,2350.0,23802.75,4,Long
2020-12-17,21452.75,2619.0,24071.75,4,Long
2020-12-18,21452.75,2612.0,24064.75,4,Long
2020-12-20,21452.75,2615.0,24067.75,4,Long
2020-12-21,21452.75,2424.0,23876.75,4,Long
2020-12-22,21452.75,2500.0,23952.75,4,Long
2020-12-23,21452.75,2238.0,23690.75,4,Long
2020-12-24,21452.75,2435.0,23887.75,4,Long
2020-12-27,21452.75,2556.0,24008.75,4,Long
2020-12-28,21452.75,3026.0,24478.75,4,Long
2020-12-29,21452.75,2997.0,24449.75,4,Long
2020-12-30,21452.75,3013.0,24465.75,4,Long
2020-12-31,21452.75,3156.0,24608.75,4,Long
2021-01-03,21452.75,3074.0,24526.75,4,Long
2021-01-04,21452.75,2318.0,23770.75,4,Long
2021-01-05,21452.75,2798.0,24250.75,4,Long
2021-01-06,21452.75,2310.0,23762.75,4,Long
2021-01-07,21452.75,3372.0,24824.75,4,Long
2021-01-08,21452.75,4117.0,25569.75,5,Long
2021-01-10,21452.75,3907.0,25359.75,5,Long
2021-01-11,21452.75,3104.5,24557.25,5,Long
2021-01-12,21452.75,2978.25,24431.0,5,Long
2021-01-13,21452.75,3344.5,24797.25,5,Long
2021-01-14,21452.75,3079.5,24532.25,5,Long
2021-01-15,21452.75,2313.25,23766.0,5,Long
2021-01-17,21452.75,2224.5,23677.25,5,Long
2021-01-18,21452.75,2652.0,24104.75,5,Long
2021-01-19,21452.75,3743.25,25196.0,5,Long
2021-01-20,21452.75,5067.0,26519.75,5,Long
2021-01-21,21452.75,5413.25,26866.0,5,Long
2021-01-22,21452.75,5253.25,26706.0,5,Long
2021-01-24,21452.75,5484.5,26937.25,5,Long
2021-01-25,21452.75,5804.5,27257.25,5,Long
2021-01-26,21452.75,6290.75,27743.5,5,Long
2021-01-27,21452.75,3384.5,24837.25,5,Long
2021-01-28,21452.75,4178.25,25631.0,5,Long
2021-01-29,25632.25,0.0,25632.25,0,
2021-01-31,25632.25,0.0,25632.25,0,
2021-02-01,25632.25,0.0,25632.25,0,
2021-02-02,25632.25,0.0,25632.25,0,
2021-02-03,25632.25,0.0,25632.25,0,
2021-02-04,25632.25,0.0,25632.25,0,
2021-02-05,25632.25,50.75,25683.0,1,Long
2021-02-07,25632.25,85.75,25718.0,1,Long
2021-02-08,25632.25,128.5,25760.75,1,Long
2021-02-09,25632.25,134.5,25766.75,1,Long
2021-02-10,25632.25,100.75,25733.0,1,Long
2021-02-11,25632.25,178.0,25810.25,1,Long
2021-02-12,25632.25,268.75,25901.0,1,Long
2021-02-14,25632.25,272.75,25905.0,1,Long
2021-02-15,25632.25,305.0,25937.25,1,Long
2021-02-16,25632.25,178.5,25810.75,1,Long
2021-02-17,25632.25,150.0,25782.25,1,Long
2021-02-18,25632.25,62.5,25694.75,1,Long
2021-02-19,25632.25,19.0,25651.25,2,Long
2021-02-21,25632.25,59.0,25691.25,2,Long
2021-02-22,25691.25,0.0,25691.25,0,
2021-02-23,25691.25,0.0,25691.25,0,
2021-02-24,25691.25,0.0,25691.25,0,
2021-02-25,25691.25,0.0,25691.25,0,
2021-02-26,25691.25,0.0,25691.25,0,
2021-02-28,25691.25,0.0,25691.25,0,
2021-03-01,25691.25,0.0,25691.25,0,
2021-03-02,25691.25,0.0,25691.25,0,
2021-03-03,25691.25,0.0,25691.25,0,
2021-03-04,25691.25,0.0,25691.25,0,
2021-03-05,25691.25,0.0,25691.25,0,
2021-03-07,25691.25,0.0,25691.25,0,
2021-03-08,25691.25,0.0,25691.25,0,
2021-03-09,25691.25,0.0,25691.25,0,
2021-03-10,25691.25,0.0,25691.25,0,
2021-03-11,25691.25,0.0,25691.25,0,
2021-03-12,25691.25,0.0,25691.25,0,
2021-03-14,25691.25,0.0,25691.25,0,
2021-03-15,25691.25,0.0,25691.25,0,
2021-03-16,25691.25,0.0,25691.25,0,
2021-03-17,25691.25,0.0,25691.25,0,
2021-03-18,25691.25,0.0,25691.25,0,
2021-03-19,25691.25,0.0,25691.25,0,
2021-03-21,25691.25,0.0,25691.25,0,
2021-03-22,25691.25,0.0,25691.25,0,
2021-03-23,25691.25,0.0,25691.25,0,
2021-03-24,25691.25,0.0,25691.25,0,
2021-03-25,25691.25,0.0,25691.25,0,
2021-03-26,25691.25,0.0,25691.25,0,
2021-03-28,25691.25,0.0,25691.25,0,
2021-03-29,25691.25,0.0,25691.25,0,
2021-03-30,25691.25,0.0,25691.25,0,
2021-03-31,25691.25,0.0,25691.25,0,
2021-04-01,25691.25,0.0,25691.25,0,
2021-04-02,25691.25,0.0,25691.25,0,
2021-04-04,25691.25,0.0,25691.25,0,
2021-04-05,25691.25,0.0,25691.25,0,
2021-04-06,25691.25,-21.5,25669.75,1,Long
2021-04-07,25691.25,22.25,25713.5,1,Long
2021-04-08,25691.25,186.25,25877.5,1,Long
2021-04-09,25691.25,193.0,25884.25,1,Long
2021-04-11,25691.25,163.0,25854.25,1,Long
2021-04-12,25691.25,201.5,25892.75,1,Long
2021-04-13,25691.25,351.0,26042.25,1,Long
2021-04-14,25691.25,195.75,25887.0,1,Long
2021-04-15,25691.25,394.5,26085.75,1,Long
2021-04-16,25691.25,402.5,26093.75,2,Long
2021-04-18,25691.25,340.0,26031.25,2,Long
2021-04-19,25691.25,192.5,25883.75,2,Long
2021-04-20,25691.25,-150.0,25541.25,2,Long
2021-04-21,25691.25,124.5,25815.75,2,Long
2021-04-22,25691.25,-123.0,25568.25,2,Long
2021-04-23,25691.25,169.0,25860.25,2,Long
2021-04-25,25691.25,178.5,25869.75,2,Long
2021-04-26,25691.25,413.0,26104.25,2,Long
2021-04-27,25691.25,284.0,25975.25,2,Long
2021-04-28,25691.25,302.0,25993.25,2,Long
2021-04-29,25691.25,189.5,25880.75,2,Long
2021-04-30,25691.25,98.0,25789.25,3,Long
2021-05-02,25691.25,140.75,25832.0,3,Long
2021-05-03,25691.25,-191.5,25499.75,3,Long
2021-05-04,25691.25,-925.0,24766.25,3,Long
2021-05-05,25691.25,-997.75,24693.5,3,Long
2021-05-06,25691.25,-663.25,25028.0,3,Long
2021-05-07,25691.25,-346.75,25344.5,3,Long
2021-05-09,25691.25,-283.0,25408.25,3,Long
2021-05-10,25409.0,0.0,25409.0,0,
2021-05-11,25409.0,0.0,25409.0,0,
2021-05-12,25409.0,0.0,25409.0,0,
2021-05-13,25409.0,0.0,25409.0,0,
2021-05-14,25409.0,0.0,25409.0,0,
2021-05-16,25409.0,0.0,25409.0,0,
2021-05-17,25409.0,0.0,25409.0,0,
2021-05-18,25409.0,0.0,25409.0,0,
2021-05-19,25409.0,0.0,25409.0,0,
2021-05-20,25409.0,0.0,25409.0,0,
2021-05-21,25409.0,0.0,25409.0,0,
2021-05-23,25409.0,0.0,25409.0,0,
2021-05-24,25409.0,0.0,25409.0,0,
2021-05-25,25409.0,0.0,25409.0,0,
2021-05-26,25409.0,0.0,25409.0,0,
2021-05-27,25409.0,0.0,25409.0,0,
2021-05-28,25409.0,0.0,25409.0,0,
2021-05-30,25409.0,0.0,25409.0,0,
2021-05-31,25409.0,0.0,25409.0,0,
2021-06-01,25409.0,0.0,25409.0,0,
2021-06-02,25409.0,0.0,25409.0,0,
2021-06-03,25409.0,0.0,25409.0,0,
2021-06-04,25409.0,0.0,25409.0,0,
2021-06-06,25409.0,-4.5,25404.5,1,Long
2021-06-07,25409.0,50.75,25459.75,1,Long
2021-06-08,25409.0,45.0,25454.0,1,Long
2021-06-09,25409.0,43.0,25452.0,1,Long
2021-06-10,25409.0,195.75,25604.75,1,Long
2021-06-11,25409.0,212.75,25621.75,1,Long
2021-06-13,25409.0,237.5,25646.5,1,Long
2021-06-14,25409.0,334.25,25743.25,1,Long
2021-06-15,25409.0,259.25,25668.25,1,Long
2021-06-16,25409.0,114.5,25523.5,1,Long
2021-06-17,25409.0,403.5,25812.5,1,Long
2021-06-18,25409.0,201.5,25610.5,2,Long
2021-06-20,25409.0,242.0,25651.0,2,Long
2021-06-21,25409.0,435.5,25844.5,2,Long
2021-06-22,25409.0,710.5,26119.5,2,Long
2021-06-23,25409.0,738.0,26147.0,2,Long
2021-06-24,25409.0,858.5,26267.5,2,Long
2021-06-25,25409.0,828.0,26237.0,2,Long
2021-06-27,25409.0,875.0,26284.0,2,Long
2021-06-28,25409.0,1149.0,26558.0,2,Long
2021-06-29,25409.0,1341.0,26750.0,2,Long
2021-06-30,25409.0,1286.5,26695.5,2,Long
2021-07-01,25409.0,1231.5,26640.5,2,Long
2021-07-02,25409.0,1551.5,26960.5,3,Long
2021-07-04,25409.0,1593.5,27002.5,3,Long
2021-07-05,25409.0,1592.75,27001.75,3,Long
2021-07-06,25409.0,1744.25,27153.25,3,Long
2021-07-07,25409.0,1880.75,27289.75,3,Long
2021-07-08,25409.0,1526.0,26935.0,3,Long
2021-07-09,25409.0,1893.5,27302.5,3,Long
2021-07-11,25409.0,1938.5,27347.5,3,Long
2021-07-12,25409.0,2089.25,27498.25,3,Long
2021-07-13,25409.0,1985.0,27394.0,3,Long
2021-07-14,25409.0,2162.75,27571.75,3,Long
2021-07-15,25409.0,1721.0,27130.0,3,Long
2021-07-16,25409.0,1471.0,26880.0,4,Long
2021-07-18,25409.0,1361.0,26770.0,4,Long
2021-07-19,25409.0,1148.0,26557.0,4,Long
2021-07-20,25409.0,1762.0,27171.0,4,Long
2021-07-21,25409.0,2132.0,27541.0,4,Long
2021-07-22,25409.0,2673.0,28082.0,4,Long
2021-07-23,25409.0,3160.0,28569.0,4,Long
2021-07-25,25409.0,3274.0,28683.0,4,Long
2021-07-26,25409.0,3236.0,28645.0,4,Long
2021-07-27,25409.0,2471.0,27880.0,4,Long
2021-07-28,25409.0,2743.0,28152.0,4,Long
2021-07-29,25409.0,2270.0,27679.0,4,Long
2021-07-30,25409.0,2680.0,28089.0,5,Long
2021-08-01,25409.0,2852.5,28261.5,5,Long
2021-08-02,25409.0,2650.0,28059.0,5,Long
2021-08-03,25409.0,2998.75,28407.75,5,Long
2021-08-04,25409.0,3262.5,28671.5,5,Long
2021-08-05,25409.0,3646.25,29055.25,5,Long
2021-08-06,25409.0,3307.5,28716.5,5,Long
2021-08-08,25409.0,2953.75,28362.75,5,Long
2021-08-09,25409.0,3437.5,28846.5,5,Long
2021-08-10,25409.0,3021.25,28430.25,5,Long
2021-08-11,25409.0,2822.5,28231.5,5,Long
2021-08-12,25409.0,3182.5,28591.5,5,Long
2021-08-13,25409.0,3462.5,28871.5,5,Long
2021-08-15,25409.0,3413.75,28822.75,5,Long
2021-08-16,25409.0,3496.25,28905.25,5,Long
2021-08-17,25409.0,2628.75,28037.75,5,Long
2021-08-18,25409.0,2071.25,27480.25,5,Long
2021-08-19,25409.0,2427.5,27836.5,5,Long
2021-08-20,25409.0,3318.75,28727.75,5,Long
2021-08-22,25409.0,3380.0,28789.0,5,Long
2021-08-23,25409.0,4491.25,29900.25,5,Long
2021-08-24,25409.0,4632.5,30041.5,5,Long
2021-08-25,25409.0,4652.5,30061.5,5,Long
2021-08-26,25409.0,4235.0,29644.0,5,Long
2021-08-27,25409.0,4983.75,30392.75,5,Long
2021-08-29,25409.0,5106.25,30515.25,5,Long
2021-08-30,25409.0,5835.0,31244.0,5,Long
2021-08-31,25409.0,5828.75,31237.75,5,Long
2021-09-01,25409.0,5936.25,31345.25,5,Long
2021-09-02,25409.0,5828.75,31237.75,5,Long
2021-09-03,25409.0,6111.25,31520.25,5,Long
2021-09-05,25409.0,6095.0,31504.0,5,Long
2021-09-06,25409.0,6290.0,31699.0,5,Long
2021-09-07,25409.0,6153.75,31562.75,5,Long
2021-09-08,25409.0,5843.75,31252.75,5,Long
2021-09-09,25409.0,5663.75,31072.75,5,Long
2021-09-10,25409.0,5032.5,30441.5,5,Long
2021-09-12,25409.0,5266.25,30675.25,5,Long
2021-09-13,25409.0,5070.0,30479.0,5,Long
2021-09-14,25409.0,4878.75,30287.75,5,Long
2021-09-15,25409.0,5352.5,30761.5,5,Long
2021-09-16,25409.0,5251.25,30660.25,5,Long
2021-09-17,30660.25,0.0,30660.25,0,
2021-09-19,30660.25,0.0,30660.25,0,
2021-09-20,30660.25,0.0,30660.25,0,
2021-09-21,30660.25,0.0,30660.25,0,
2021-09-22,30660.25,0.0,30660.25,0,
2021-09-23,30660.25,0.0,30660.25,0,
2021-09-24,30660.25,0.0,30660.25,0,
2021-09-26,30660.25,0.0,30660.25,0,
2021-09-27,30660.25,0.0,30660.25,0,
2021-09-28,30660.25,0.0,30660.25,0,
2021-09-29,30660.25,0.0,30660.25,0,
2021-09-30,30660.25,0.0,30660.25,0,
2021-10-01,30660.25,0.0,30660.25,0,
2021-10-03,30660.25,0.0,30660.25,0,
2021-10-04,30660.25,0.0,30660.25,0,
2021-10-05,30660.25,0.0,30660.25,0,
2021-10-06,30660.25,0.0,30660.25,0,
2021-10-07,30660.25,0.0,30660.25,0,
2021-10-08,30660.25,0.0,30660.25,0,
2021-10-10,30660.25,0.0,30660.25,0,
2021-10-11,30660.25,0.0,30660.25,0,
2021-10-12,30660.25,0.0,30660.25,0,
2021-10-13,30660.25,0.0,30660.25,0,
2021-10-14,30660.25,0.0,30660.25,0,
2021-10-15,30660.25,0.0,30660.25,0,
2021-10-17,30660.25,0.0,30660.25,0,
2021-10-18,30660.25,0.0,30660.25,0,
2021-10-19,30660.25,117.0,30777.25,1,Long
2021-10-20,30660.25,43.0,30703.25,1,Long
2021-10-21,30660.25,99.5,30759.75,1,Long
2021-10-22,30660.25,31.75,30692.0,1,Long
2021-10-24,30660.25,14.0,30674.25,1,Long
2021-10-25,30660.25,246.75,30907.0,1,Long
2021-10-26,30660.25,267.75,30928.0,1,Long
2021-10-27,30660.25,334.0,30994.25,1,Long
2021-10-28,30660.25,380.0,31040.25,1,Long
2021-10-29,30660.25,644.5,31304.75,2,Long
2021-10-31,30660.25,667.5,31327.75,2,Long
2021-11-01,30660.25,659.0,31319.25,2,Long
2021-11-02,30660.25,792.0,31452.25,2,Long
2021-11-03,30660.25,1278.5,31938.75,2,Long
2021-11-04,30660.25,1587.0,32247.25,2,Long
2021-11-05,30660.25,1593.0,32253.25,2,Long
2021-11-07,30660.25,1531.0,32191.25,2,Long
2021-11-08,30660.25,1528.0,32188.25,2,Long
2021-11-09,30660.25,1278.0,31938.25,2,Long
2021-11-10,30660.25,887.5,31547.75,2,Long
2021-11-11,30660.25,1035.5,31695.75,2,Long
2021-11-12,30660.25,1330.5,31990.75,3,Long
2021-11-14,30660.25,1404.0,32064.25,3,Long
2021-11-15,30660.25,1294.5,31954.75,3,Long
2021-11-16,30660.25,1641.0,32301.25,3,Long
2021-11-17,30660.25,1713.75,32374.0,3,Long
2021-11-18,30660.25,2213.25,32873.5,3,Long
2021-11-19,30660.25,2490.0,33150.25,3,Long
2021-11-21,30660.25,2491.5,33151.75,3,Long
2021-11-22,30660.25,1915.5,32575.75,3,Long
2021-11-23,30660.25,1584.75,32245.0,3,Long
2021-11-24,30660.25,1798.5,32458.75,3,Long
2021-11-25,30660.25,1838.25,32498.5,3,Long
2021-11-26,32496.25,0.0,32496.25,0,
2021-11-28,32496.25,0.0,32496.25,0,
2021-11-29,32496.25,0.0,32496.25,0,
2021-11-30,32496.25,0.0,32496.25,0,
2021-12-01,32496.25,0.0,32496.25,0,
2021-12-02,32496.25,0.0,32496.25,0,
2021-12-03,32496.25,0.0,32496.25,0,
2021-12-05,32496.25,0.0,32496.25,0,
2021-12-06,32496.25,0.0,32496.25,0,
2021-12-07,32496.25,0.0,32496.25,0,
2021-12-08,32496.25,0.0,32496.25,0,
2021-12-09,32496.25,0.0,32496.25,0,
2021-12-10,32496.25,0.0,32496.25,0,
2021-12-12,32496.25,0.0,32496.25,0,
2021-12-13,32496.25,0.0,32496.25,0,
2021-12-14,32496.25,0.0,32496.25,0,
2021-12-15,32496.25,0.0,32496.25,0,
2021-12-16,32496.25,0.0,32496.25,0,
2021-12-17,32496.25,0.0,32496.25,0,
2021-12-19,32496.25,0.0,32496.25,0,
2021-12-20,32496.25,0.0,32496.25,0,
2021-12-21,32496.25,0.0,32496.25,0,
2021-12-22,32496.25,0.0,32496.25,0,
2021-12-23,32496.25,0.0,32496.25,0,
2021-12-26,32496.25,0.0,32496.25,0,
2021-12-27,32496.25,0.0,32496.25,0,
2021-12-28,32496.25,-15.75,32480.5,1,Long
2021-12-29,32496.25,-91.75,32404.5,1,Long
2021-12-30,32496.25,-116.75,32379.5,1,Long
2021-12-31,32496.25,-221.5,32274.75,1,Long
2022-01-02,32496.25,-170.75,32325.5,1,Long
2022-01-03,32496.25,-71.0,32425.25,1,Long
2022-01-04,32496.25,-322.0,32174.25,1,Long
2022-01-05,32496.25,-770.5,31725.75,1,Long
2022-01-06,32496.25,-737.5,31758.75,1,Long
2022-01-07,31758.5,0.0,31758.5,0,
2022-01-09,31758.5,0.0,31758.5,0,
2022-01-10,31758.5,0.0,31758.5,0,
2022-01-11,31758.5,0.0,31758.5,0,
2022-01-12,31758.5,0.0,31758.5,0,
2022-01-13,31758.5,0.0,31758.5,0,
2022-01-14,31758.5,0.0,31758.5,0,
2022-01-16,31758.5,0.0,31758.5,0,
2022-01-17,31758.5,0.0,31758.5,0,
2022-01-18,31758.5,0.0,31758.5,0,
2022-01-19,31758.5,0.0,31758.5,0,
2022-01-20,31758.5,0.0,31758.5,0,
2022-01-21,31758.5,0.0,31758.5,0,
2022-01-23,31758.5,0.0,31758.5,0,
2022-01-24,31758.5,0.0,31758.5,0,
2022-01-25,31758.5,0.0,31758.5,0,
2022-01-26,31758.5,0.0,31758.5,0,
2022-01-27,31758.5,0.0,31758.5,0,
2022-01-28,31758.5,0.0,31758.5,0,
2022-01-30,31758.5,0.0,31758.5,0,
2022-01-31,31758.5,0.0,31758.5,0,
2022-02-01,31758.5,0.0,31758.5,0,
2022-02-02,31758.5,0.0,31758.5,0,
2022-02-03,31758.5,0.0,31758.5,0,
2022-02-04,31758.5,0.0,31758.5,0,
2022-02-06,31758.5,0.0,31758.5,0,
2022-02-07,31758.5,0.0,31758.5,0,
2022-02-08,31758.5,0.0,31758.5,0,
2022-02-09,31758.5,0.0,31758.5,0,
2022-02-10,31758.5,0.0,31758.5,0,
2022-02-11,31758.5,0.0,31758.5,0,
2022-02-13,31758.5,0.0,31758.5,0,
2022-02-14,31758.5,0.0,31758.5,0,
2022-02-15,31758.5,0.0,31758.5,0,
2022-02-16,31758.5,0.0,31758.5,0,
2022-02-17,31758.5,0.0,31758.5,0,
2022-02-18,31758.5,0.0,31758.5,0,
2022-02-20,31758.5,0.0,31758.5,0,
2022-02-21,31758.5,0.0,31758.5,0,
2022-02-22,31758.5,0.0,31758.5,0,
2022-02-23,31758.5,0.0,31758.5,0,
2022-02-24,31758.5,0.0,31758.5,0,
2022-02-25,31758.5,0.0,31758.5,0,
2022-02-27,31758.5,0.0,31758.5,0,
2022-02-28,31758.5,0.0,31758.5,0,
2022-03-01,31758.5,0.0,31758.5,0,
2022-03-02,31758.5,0.0,31758.5,0,
2022-03-03,31758.5,0.0,31758.5,0,
2022-03-04,31758.5,0.0,31758.5,0,
2022-03-06,31758.5,0.0,31758.5,0,
2022-03-07,31758.5,0.0,31758.5,0,
2022-03-08,31758.5,0.0,31758.5,0,
2022-03-09,31758.5,0.0,31758.5,0,
2022-03-10,31758.5,0.0,31758.5,0,
2022-03-11,31758.5,0.0,31758.5,0,
2022-03-13,31758.5,0.0,31758.5,0,
2022-03-14,31758.5,0.0,31758.5,0,
2022-03-15,31758.5,0.0,31758.5,0,
2022-03-16,31758.5,0.0,31758.5,0,
2022-03-17,31758.5,0.0,31758.5,0,
2022-03-18,31758.5,0.0,31758.5,0,
2022-03-20,31758.5,0.0,31758.5,0,
2022-03-21,31758.5,0.0,31758.5,0,
2022-03-22,31758.5,0.0,31758.5,0,
2022-03-23,31758.5,-192.0,31566.5,1,Long
2022-03-24,31758.5,84.0,31842.5,1,Long
2022-03-25,31758.5,86.5,31845.0,1,Long
2022-03-27,31758.5,55.0,31813.5,1,Long
2022-03-28,31758.5,307.0,32065.5,1,Long
2022-03-29,31758.5,555.5,32314.0,1,Long
2022-03-30,31758.5,437.75,32196.25,1,Long
2022-03-31,31758.5,246.5,32005.0,1,Long
2022-04-01,31758.5,262.5,32021.0,2,Long
2022-04-03,31758.5,193.5,31952.0,2,Long
2022-04-04,31758.5,860.0,32618.5,2,Long
2022-04-05,31758.5,225.5,31984.0,2,Long
2022-04-06,31758.5,-547.0,31211.5,2,Long
2022-04-07,31758.5,-312.5,31446.0,2,Long
2022-04-08,31758.5,-787.5,30971.0,2,Long
2022-04-10,31758.5,-815.0,30943.5,2,Long
2022-04-11,30943.0,0.0,30943.0,0,
2022-04-12,30943.0,0.0,30943.0,0,
2022-04-13,30943.0,0.0,30943.0,0,
2022-04-14,30943.0,0.0,30943.0,0,
2022-04-17,30943.0,0.0,30943.0,0,
2022-04-18,30943.0,0.0,30943.0,0,
2022-04-19,30943.0,0.0,30943.0,0,
2022-04-20,30943.0,0.0,30943.0,0,
2022-04-21,30943.0,0.0,30943.0,0,
2022-04-22,30943.0,0.0,30943.0,0,
2022-04-24,30943.0,0.0,30943.0,0,
2022-04-25,30943.0,0.0,30943.0,0,
2022-04-26,30943.0,0.0,30943.0,0,
2022-04-27,30943.0,0.0,30943.0,0,
2022-04-28,30943.0,0.0,30943.0,0,
2022-04-29,30943.0,0.0,30943.0,0,
2022-05-01,30943.0,0.0,30943.0,0,
2022-05-02,30943.0,0.0,30943.0,0,
2022-05-03,30943.0,0.0,30943.0,0,
2022-05-04,30943.0,0.0,30943.0,0,
2022-05-05,30943.0,0.0,30943.0,0,
2022-05-06,30943.0,0.0,30943.0,0,
2022-05-08,30943.0,0.0,30943.0,0,
2022-05-09,30943.0,0.0,30943.0,0,
2022-05-10,30943.0,0.0,30943.0,0,
2022-05-11,30943.0,0.0,30943.0,0,
2022-05-12,30943.0,0.0,30943.0,0,
2022-05-13,30943.0,0.0,30943.0,0,
2022-05-15,30943.0,0.0,30943.0,0,
2022-05-16,30943.0,0.0,30943.0,0,
2022-05-17,30943.0,0.0,30943.0,0,
2022-05-18,30943.0,0.0,30943.0,0,
2022-05-19,30943.0,0.0,30943.0,0,
2022-05-20,30943.0,0.0,30943.0,0,
2022-05-22,30943.0,0.0,30943.0,0,
2022-05-23,30943.0,0.0,30943.0,0,
2022-05-24,30943.0,0.0,30943.0,0,
2022-05-25,30943.0,0.0,30943.0,0,
2022-05-26,30943.0,0.0,30943.0,0,
2022-05-27,30943.0,0.0,30943.0,0,
2022-05-29,30943.0,0.0,30943.0,0,
2022-05-30,30943.0,0.0,30943.0,0,
2022-05-31,30943.0,0.0,30943.0,0,
2022-06-01,30943.0,0.0,30943.0,0,
2022-06-02,30943.0,0.0,30943.0,0,
2022-06-03,30943.0,-371.5,30571.5,1,Long
2022-06-05,30943.0,-371.5,30571.5,1,Long
2022-06-06,30943.0,-318.25,30624.75,1,Long
2022-06-07,30943.0,-250.75,30692.25,1,Long
2022-06-08,30943.0,-297.0,30646.0,1,Long
2022-06-09,30943.0,-633.0,30310.0,1,Long
2022-06-10,30943.0,-1059.75,29883.25,1,Long
2022-06-12,29849.5,0.0,29849.5,0,
2022-06-13,29849.5,0.0,29849.5,0,
2022-06-14,29849.5,0.0,29849.5,0,
2022-06-15,29849.5,0.0,29849.5,0,
2022-06-16,29849.5,0.0,29849.5,0,
2022-06-17,29849.5,0.0,29849.5,0,
2022-06-19,29849.5,0.0,29849.5,0,
2022-06-20,29849.5,0.0,29849.5,0,
2022-06-21,29849.5,0.0,29849.5,0,
2022-06-22,29849.5,0.0,29849.5,0,
2022-06-23,29849.5,0.0,29849.5,0,
2022-06-24,29849.5,0.0,29849.5,0,
2022-06-26,29849.5,0.0,29849.5,0,
2022-06-27,29849.5,0.0,29849.5,0,
2022-06-28,29849.5,0.0,29849.5,0,
2022-06-29,29849.5,0.0,29849.5,0,
2022-06-30,29849.5,0.0,29849.5,0,
2022-07-01,29849.5,0.0,29849.5,0,
2022-07-03,29849.5,0.0,29849.5,0,
2022-07-04,29849.5,0.0,29849.5,0,
2022-07-05,29849.5,0.0,29849.5,0,
2022-07-06,29849.5,0.0,29849.5,0,
2022-07-07,29849.5,0.0,29849.5,0,
2022-07-08,29849.5,0.0,29849.5,0,
2022-07-10,29849.5,0.0,29849.5,0,
2022-07-11,29849.5,0.0,29849.5,0,
2022-07-12,29849.5,0.0,29849.5,0,
2022-07-13,29849.5,0.0,29849.5,0,
2022-07-14,29849.5,0.0,29849.5,0,
2022-07-15,29849.5,0.0,29849.5,0,
2022-07-17,29849.5,0.0,29849.5,0,
2022-07-18,29849.5,0.0,29849.5,0,
2022-07-19,29849.5,0.0,29849.5,0,
2022-07-20,29849.5,0.0,29849.5,0,
2022-07-21,29849.5,112.25,29961.75,1,Long
2022-07-22,29849.5,-8.5,29841.0,1,Long
2022-07-24,29849.5,-32.5,29817.0,1,Long
2022-07-25,29849.5,-137.25,29712.25,1,Long
2022-07-26,29849.5,-155.5,29694.0,1,Long
2022-07-27,29849.5,141.5,29991.0,1,Long
2022-07-28,29849.5,457.25,30306.75,1,Long
2022-07-29,29849.5,514.25,30363.75,2,Long
2022-07-31,29849.5,403.75,30253.25,2,Long
2022-08-01,29849.5,466.75,30316.25,2,Long
2022-08-02,29849.5,371.25,30220.75,2,Long
2022-08-03,29849.5,1033.75,30883.25,2,Long
2022-08-04,29849.5,1231.75,31081.25,2,Long
2022-08-05,29849.5,994.75,30844.25,2,Long
2022-08-07,29849.5,920.75,30770.25,2,Long
2022-08-08,29849.5,1006.75,30856.25,2,Long
2022-08-09,29849.5,670.75,30520.25,2,Long
2022-08-10,29849.5,1363.25,31212.75,2,Long
2022-08-11,29849.5,1236.75,31086.25,2,Long
2022-08-12,29849.5,1741.75,31591.25,3,Long
2022-08-14,29849.5,1621.0,31470.5,3,Long
2022-08-15,29849.5,2044.0,31893.5,3,Long
2022-08-16,29849.5,1956.25,31805.75,3,Long
2022-08-17,29849.5,1366.75,31216.25,3,Long
2022-08-18,29849.5,1582.0,31431.5,3,Long
2022-08-19,29849.5,749.5,30599.0,3,Long
2022-08-21,29849.5,562.75,30412.25,3,Long
2022-08-22,29849.5,-132.5,29717.0,3,Long
2022-08-23,29849.5,-313.25,29536.25,3,Long
2022-08-24,29849.5,-196.25,29653.25,3,Long
2022-08-25,29849.5,433.75,30283.25,3,Long
2022-08-26,30284.75,0.0,30284.75,0,
2022-08-28,30284.75,0.0,30284.75,0,
2022-08-29,30284.75,0.0,30284.75,0,
2022-08-30,30284.75,0.0,30284.75,0,
2022-08-31,30284.75,0.0,30284.75,0,
2022-09-01,30284.75,0.0,30284.75,0,
2022-09-02,30284.75,0.0,30284.75,0,
2022-09-04,30284.75,0.0,30284.75,0,
2022-09-05,30284.75,0.0,30284.75,0,
2022-09-06,30284.75,0.0,30284.75,0,
2022-09-07,30284.75,0.0,30284.75,0,
2022-09-08,30284.75,0.0,30284.75,0,
2022-09-09,30284.75,0.0,30284.75,0,
2022-09-11,30284.75,0.0,30284.75,0,
2022-09-12,30284.75,0.0,30284.75,0,
2022-09-13,30284.75,0.0,30284.75,0,
2022-09-14,30284.75,0.0,30284.75,0,
2022-09-15,30284.75,0.0,30284.75,0,
2022-09-16,30284.75,0.0,30284.75,0,
2022-09-18,30284.75,0.0,30284.75,0,
2022-09-19,30284.75,0.0,30284.75,0,
2022-09-20,30284.75,0.0,30284.75,0,
2022-09-21,30284.75,0.0,30284.75,0,
2022-09-22,30284.75,0.0,30284.75,0,
2022-09-23,30284.75,0.0,30284.75,0,
2022-09-25,30284.75,0.0,30284.75,0,
2022-09-26,30284.75,0.0,30284.75,0,
2022-09-27,30284.75,0.0,30284.75,0,
2022-09-28,30284.75,0.0,30284.75,0,
2022-09-29,30284.75,0.0,30284.75,0,
2022-09-30,30284.75,0.0,30284.75,0,
2022-10-02,30284.75,0.0,30284.75,0,
2022-10-03,30284.75,0.0,30284.75,0,
2022-10-04,30284.75,0.0,30284.75,0,
2022-10-05,30284.75,0.0,30284.75,0,
2022-10-06,30284.75,0.0,30284.75,0,
2022-10-07,30284.75,0.0,30284.75,0,
2022-10-09,30284.75,0.0,30284.75,0,
2022-10-10,30284.75,0.0,30284.75,0,
2022-10-11,30284.75,0.0,30284.75,0,
2022-10-12,30284.75,0.0,30284.75,0,
2022-10-13,30284.75,0.0,30284.75,0,
2022-10-14,30284.75,0.0,30284.75,0,
2022-10-16,30284.75,0.0,30284.75,0,
2022-10-17,30284.75,0.0,30284.75,0,
2022-10-18,30284.75,0.0,30284.75,0,
2022-10-19,30284.75,0.0,30284.75,0,
2022-10-20,30284.75,0.0,30284.75,0,
2022-10-21,30284.75,0.0,30284.75,0,
2022-10-23,30284.75,0.0,30284.75,0,
2022-10-24,30284.75,0.0,30284.75,0,
2022-10-25,30284.75,0.0,30284.75,0,
2022-10-26,30284.75,0.0,30284.75,0,
2022-10-27,30284.75,0.0,30284.75,0,
2022-10-28,30284.75,0.0,30284.75,0,
2022-10-30,30284.75,0.0,30284.75,0,
2022-10-31,30284.75,0.0,30284.75,0,
2022-11-01,30284.75,0.0,30284.75,0,
2022-11-02,30284.75,0.0,30284.75,0,
2022-11-03,30284.75,0.0,30284.75,0,
2022-11-04,30284.75,0.0,30284.75,0,
2022-11-06,30284.75,0.0,30284.75,0,
2022-11-07,30284.75,0.0,30284.75,0,
2022-11-08,30284.75,0.0,30284.75,0,
2022-11-09,30284.75,0.0,30284.75,0,
2022-11-10,30284.75,0.0,30284.75,0,
2022-11-11,30284.75,0.0,30284.75,0,
2022-11-13,30284.75,15.25,30300.0,1,Long
2022-11-14,30284.75,-29.0,30255.75,1,Long
2022-11-15,30284.75,102.75,30387.5,1,Long
2022-11-16,30284.75,-16.0,30268.75,1,Long
2022-11-17,30284.75,-76.25,30208.5,1,Long
2022-11-18,30284.75,-86.5,30198.25,1,Long
2022-11-20,30284.75,-87.0,30197.75,1,Long
2022-11-21,30284.75,-202.0,30082.75,1,Long
2022-11-22,30284.75,-51.0,30233.75,1,Long
2022-11-23,30284.75,92.5,30377.25,1,Long
2022-11-24,30284.75,121.75,30406.5,1,Long
2022-11-25,30284.75,-12.0,30272.75,2,Long
2022-11-27,30284.75,-126.5,30158.25,2,Long
2022-11-28,30284.75,-342.5,29942.25,2,Long
2022-11-29,30284.75,-573.5,29711.25,2,Long
2022-11-30,30284.75,566.0,30850.75,2,Long
2022-12-01,30284.75,500.0,30784.75,2,Long
2022-12-02,30284.75,379.5,30664.25,2,Long
2022-12-04,30284.75,423.0,30707.75,2,Long
2022-12-05,30284.75,58.5,30343.25,2,Long
2022-12-06,30284.75,-423.5,29861.25,2,Long
2022-12-07,30284.75,-559.0,29725.75,2,Long
2022-12-08,30284.75,-305.0,29979.75,2,Long
2022-12-09,30284.75,-518.25,29766.5,3,Long
2022-12-11,30284.75,-569.25,29715.5,3,Long
2022-12-12,30284.75,306.0,30590.75,3,Long
2022-12-13,30284.75,702.0,30986.75,3,Long
2022-12-14,30284.75,471.75,30756.5,3,Long
2022-12-15,30284.75,-801.0,29483.75,3,Long
2022-12-16,30284.75,-1219.5,29065.25,3,Long
2022-12-18,30284.75,-1119.0,29165.75,3,Long
2022-12-19,29165.75,0.0,29165.75,0,
2022-12-20,29165.75,0.0,29165.75,0,
2022-12-21,29165.75,0.0,29165.75,0,
2022-12-22,29165.75,0.0,29165.75,0,
2022-12-23,29165.75,0.0,29165.75,0,
2022-12-26,29165.75,0.0,29165.75,0,
2022-12-27,29165.75,0.0,29165.75,0,
2022-12-28,29165.75,0.0,29165.75,0,
2022-12-29,29165.75,0.0,29165.75,0,
2022-12-30,29165.75,0.0,29165.75,0,
2023-01-02,29165.75,0.0,29165.75,0,
2023-01-03,29165.75,0.0,29165.75,0,
2023-01-04,29165.75,0.0,29165.75,0,
2023-01-05,29165.75,0.0,29165.75,0,
2023-01-06,29165.75,0.0,29165.75,0,
2023-01-08,29165.75,0.0,29165.75,0,
2023-01-09,29165.75,0.0,29165.75,0,
2023-01-10,29165.75,0.0,29165.75,0,
2023-01-11,29165.75,0.0,29165.75,0,
2023-01-12,29165.75,0.0,29165.75,0,
2023-01-13,29165.75,0.0,29165.75,0,
2023-01-15,29165.75,0.0,29165.75,0,
2023-01-16,29165.75,0.0,29165.75,0,
2023-01-17,29165.75,0.0,29165.75,0,
2023-01-18,29165.75,0.0,29165.75,0,
2023-01-19,29165.75,0.0,29165.75,0,
2023-01-20,29165.75,0.0,29165.75,0,
2023-01-22,29165.75,-19.5,29146.25,1,Long
2023-01-23,29165.75,240.75,29406.5,1,Long
2023-01-24,29165.75,162.25,29328.0,1,Long
2023-01-25,29165.75,229.5,29395.25,1,Long
2023-01-26,29165.75,362.0,29527.75,1,Long
2023-01-27,29165.75,542.0,29707.75,1,Long
2023-01-29,29165.75,527.75,29693.5,1,Long
2023-01-30,29165.75,324.5,29490.25,1,Long
2023-01-31,29165.75,425.5,29591.25,1,Long
2023-02-01,29165.75,867.5,30033.25,1,Long
2023-02-02,29165.75,985.75,30151.5,1,Long
2023-02-03,29165.75,947.0,30112.75,2,Long
2023-02-05,29165.75,895.5,30061.25,2,Long
2023-02-06,29165.75,786.0,29951.75,2,Long
2023-02-07,29165.75,1214.0,30379.75,2,Long
2023-02-08,29165.75,836.0,30001.75,2,Long
2023-02-09,29165.75,583.5,29749.25,2,Long
2023-02-10,29165.75,387.0,29552.75,2,Long
2023-02-12,29165.75,327.5,29493.25,2,Long
2023-02-13,29165.75,791.5,29957.25,2,Long
2023-02-14,29165.75,929.5,30095.25,2,Long
2023-02-15,29165.75,1207.0,30372.75,2,Long
2023-02-16,29165.75,569.0,29734.75,2,Long
2023-02-17,29165.75,495.0,29660.75,3,Long
2023-02-19,29165.75,423.75,29589.5,3,Long
2023-02-20,29165.75,481.5,29647.25,3,Long
2023-02-21,29165.75,-312.0,28853.75,3,Long
2023-02-22,29165.75,-152.25,29013.5,3,Long
2023-02-23,29165.75,-133.5,29032.25,3,Long
2023-02-24,29165.75,-658.5,28507.25,3,Long
2023-02-26,29165.75,-603.0,28562.75,3,Long
2023-02-27,29165.75,-375.0,28790.75,3,Long
2023-02-28,29165.75,-588.75,28577.0,3,Long
2023-03-01,29165.75,-741.0,28424.75,3,Long
2023-03-02,29165.75,-543.75,28622.0,3,Long
2023-03-03,29165.75,354.5,29520.25,4,Long
2023-03-05,29165.75,217.5,29383.25,4,Long
2023-03-06,29165.75,370.5,29536.25,4,Long
2023-03-07,29165.75,-245.5,28920.25,4,Long
2023-03-08,29165.75,-51.5,29114.25,4,Long
2023-03-09,29165.75,-1008.5,28157.25,4,Long
2023-03-10,28157.25,0.0,28157.25,0,
2023-03-12,28157.25,0.0,28157.25,0,
2023-03-13,28157.25,0.0,28157.25,0,
2023-03-14,28157.25,0.0,28157.25,0,
2023-03-15,28157.25,0.0,28157.25,0,
2023-03-16,28157.25,0.0,28157.25,0,
2023-03-17,28157.25,-73.25,28084.0,1,Long
2023-03-19,28157.25,-17.0,28140.25,1,Long
2023-03-20,28157.25,-30.0,28127.25,1,Long
2023-03-21,28157.25,145.5,28302.75,1,Long
2023-03-22,28157.25,-4.25,28153.0,1,Long
2023-03-23,28157.25,142.0,28299.25,1,Long
2023-03-24,28157.25,201.25,28358.5,1,Long
2023-03-26,28157.25,224.75,28382.0,1,Long
2023-03-27,28157.25,99.5,28256.75,1,Long
2023-03-28,28157.25,36.5,28193.75,1,Long
2023-03-29,28157.25,220.0,28377.25,1,Long
2023-03-30,28157.25,373.0,28530.25,1,Long
2023-03-31,28157.25,628.25,28785.5,2,Long
2023-04-02,28157.25,491.25,28648.5,2,Long
2023-04-03,28157.25,505.25,28662.5,2,Long
2023-04-04,28157.25,492.75,28650.0,2,Long
2023-04-05,28157.25,125.25,28282.5,2,Long
2023-04-06,28157.25,330.25,28487.5,2,Long
2023-04-07,28157.25,372.75,28530.0,2,Long
2023-04-09,28157.25,323.75,28481.0,2,Long
2023-04-10,28157.25,355.75,28513.0,2,Long
2023-04-11,28157.25,190.25,28347.5,2,Long
2023-04-12,28157.25,-125.75,28031.5,2,Long
2023-04-13,28157.25,394.75,28552.0,2,Long
2023-04-14,28157.25,427.0,28584.25,3,Long
2023-04-16,28157.25,388.75,28546.0,3,Long
2023-04-17,28157.25,365.5,28522.75,3,Long
2023-04-18,28157.25,354.25,28511.5,3,Long
2023-04-19,28157.25,213.25,28370.5,3,Long
2023-04-20,28157.25,76.0,28233.25,3,Long
2023-04-21,28157.25,55.0,28212.25,3,Long
2023-04-23,28157.25,34.0,28191.25,3,Long
2023-04-24,28157.25,-22.25,28135.0,3,Long
2023-04-25,28157.25,-290.75,27866.5,3,Long
2023-04-26,28157.25,-299.75,27857.5,3,Long
2023-04-27,28157.25,460.0,28617.25,3,Long
2023-04-28,28157.25,846.5,29003.75,4,Long
2023-04-30,28157.25,767.5,28924.75,4,Long
2023-05-01,28157.25,681.5,28838.75,4,Long
2023-05-02,28157.25,267.5,28424.75,4,Long
2023-05-03,28157.25,-70.5,28086.75,4,Long
2023-05-04,28157.25,-86.5,28070.75,4,Long
2023-05-05,28157.25,780.5,28937.75,4,Long
2023-05-07,28157.25,755.5,28912.75,4,Long
2023-05-08,28157.25,886.5,29043.75,4,Long
2023-05-09,28157.25,640.5,28797.75,4,Long
2023-05-10,28157.25,1225.5,29382.75,4,Long
2023-05-11,28157.25,1357.5,29514.75,4,Long
2023-05-12,28157.25,1005.75,29163.0,5,Long
2023-05-14,28157.25,989.5,29146.75,5,Long
2023-05-15,28157.25,1449.5,29606.75,5,Long
2023-05-16,28157.25,1655.75,29813.0,5,Long
2023-05-17,28157.25,2374.5,30531.75,5,Long
2023-05-18,28157.25,3805.75,31963.0,5,Long
2023-05-19,28157.25,3365.75,31523.0,5,Long
2023-05-21,28157.25,3427.0,31584.25,5,Long
2023-05-22,28157.25,3874.5,32031.75,5,Long
2023-05-23,28157.25,2900.75,31058.0,5,Long
2023-05-24,28157.25,3394.5,31551.75,5,Long
2023-05-25,28157.25,3984.5,32141.75,5,Long
2023-05-26,28157.25,6014.5,34171.75,5,Long
2023-05-28,28157.25,6242.0,34399.25,5,Long
2023-05-29,28157.25,6089.5,34246.75,5,Long
2023-05-30,28157.25,6268.25,34425.5,5,Long
2023-05-31,28157.25,5709.5,33866.75,5,Long
2023-06-01,28157.25,6575.75,34733.0,5,Long
2023-06-02,28157.25,7092.0,35249.25,5,Long
2023-06-04,28157.25,6842.0,34999.25,5,Long
2023-06-05,28157.25,6988.25,35145.5,5,Long
2023-06-06,28157.25,7134.5,35291.75,5,Long
2023-06-07,28157.25,5810.75,33968.0,5,Long
2023-06-08,28157.25,6659.5,34816.75,5,Long
2023-06-09,28157.25,6974.5,35131.75,5,Long
2023-06-11,28157.25,7115.75,35273.0,5,Long
2023-06-12,28157.25,9173.25,37330.5,5,Long
2023-06-13,28157.25,9685.75,37843.0,5,Long
2023-06-14,28157.25,10230.75,38388.0,5,Long
2023-06-15,28157.25,10955.75,39113.0,5,Long
2023-06-16,28157.25,10665.75,38823.0,5,Long
2023-06-18,28157.25,10674.5,38831.75,5,Long
2023-06-19,28157.25,10402.0,38559.25,5,Long
2023-06-20,28157.25,10468.25,38625.5,5,Long
2023-06-21,28157.25,9363.25,37520.5,5,Long
2023-06-22,28157.25,10267.0,38424.25,5,Long
2023-06-23,28157.25,9435.75,37593.0,5,Long
2023-06-25,28157.25,9662.0,37819.25,5,Long
2023-06-26,28157.25,8623.25,36780.5,5,Long
2023-06-27,28157.25,9454.5,37611.75,5,Long
2023-06-28,28157.25,10019.5,38176.75,5,Long
2023-06-29,28157.25,9742.0,37899.25,5,Long
2023-06-30,28157.25,10745.75,38903.0,5,Long
2023-07-02,28157.25,10913.25,39070.5,5,Long
2023-07-03,28157.25,10847.0,39004.25,5,Long
2023-07-04,28157.25,10860.75,39018.0,5,Long
2023-07-05,28157.25,10948.25,39105.5,5,Long
2023-07-06,28157.25,10290.75,38448.0,5,Long
2023-07-07,28157.25,10117.0,38274.25,5,Long
2023-07-09,28157.25,10063.25,38220.5,5,Long
2023-07-10,28157.25,10120.75,38278.0,5,Long
2023-07-11,28157.25,10482.0,38639.25,5,Long
2023-07-12,28157.25,11518.25,39675.5,5,Long
2023-07-13,28157.25,12720.75,40878.0,5,Long
2023-07-14,28157.25,12620.75,40778.0,5,Long
2023-07-16,28157.25,12493.25,40650.5,5,Long
2023-07-17,28157.25,13249.5,41406.75,5,Long
2023-07-18,28157.25,13964.5,42121.75,5,Long
2023-07-19,28157.25,13443.25,41600.5,5,Long
2023-07-20,28157.25,12058.25,40215.5,5,Long
2023-07-21,28157.25,11933.25,40090.5,5,Long
2023-07-23,28157.25,11904.5,40061.75,5,Long
2023-07-24,28157.25,11995.75,40153.0,5,Long
2023-07-25,28157.25,12347.0,40504.25,5,Long
2023-07-26,28157.25,12424.5,40581.75,5,Long
2023-07-27,28157.25,12090.75,40248.0,5,Long
2023-07-28,28157.25,13385.75,41543.0,5,Long
2023-07-30,28157.25,13594.5,41751.75,5,Long
2023-07-31,28157.25,13459.5,41616.75,5,Long
2023-08-01,28157.25,12923.25,41080.5,5,Long
2023-08-02,28157.25,11618.25,39775.5,5,Long
2023-08-03,28157.25,11564.5,39721.75,5,Long
2023-08-04,39720.5,0.0,39720.5,0,
2023-08-06,39720.5,0.0,39720.5,0,
2023-08-07,39720.5,0.0,39720.5,0,
2023-08-08,39720.5,0.0,39720.5,0,
2023-08-09,39720.5,0.0,39720.5,0,
2023-08-10,39720.5,0.0,39720.5,0,
2023-08-11,39720.5,0.0,39720.5,0,
2023-08-13,39720.5,0.0,39720.5,0,
2023-08-14,39720.5,0.0,39720.5,0,
2023-08-15,39720.5,0.0,39720.5,0,
2023-08-16,39720.5,0.0,39720.5,0,
2023-08-17,39720.5,0.0,39720.5,0,
2023-08-18,39720.5,0.0,39720.5,0,
2023-08-20,39720.5,0.0,39720.5,0,
2023-08-21,39720.5,0.0,39720.5,0,
2023-08-22,39720.5,0.0,39720.5,0,
2023-08-23,39720.5,0.0,39720.5,0,
2023-08-24,39720.5,0.0,39720.5,0,
2023-08-25,39720.5,0.0,39720.5,0,
2023-08-27,39720.5,0.0,39720.5,0,
2023-08-28,39720.5,0.0,39720.5,0,
2023-08-29,39720.5,0.0,39720.5,0,
2023-08-30,39720.5,68.25,39788.75,1,Long
2023-08-31,39720.5,101.75,39822.25,1,Long
2023-09-01,39720.5,77.75,39798.25,1,Long
2023-09-03,39720.5,82.0,39802.5,1,Long
2023-09-04,39720.5,91.5,39812.0,1,Long
2023-09-05,39720.5,87.25,39807.75,1,Long
2023-09-06,39720.5,-43.5,39677.0,1,Long
2023-09-07,39720.5,-154.0,39566.5,1,Long
2023-09-08,39720.5,-79.75,39640.75,2,Long
2023-09-10,39720.5,-63.25,39657.25,2,Long
2023-09-11,39720.5,608.25,40328.75,2,Long
2023-09-12,39720.5,302.25,40022.75,2,Long
2023-09-13,39720.5,450.25,40170.75,2,Long
2023-09-14,39720.5,645.25,40365.75,2,Long
2023-09-15,39720.5,57.25,39777.75,2,Long
2023-09-17,39720.5,117.25,39837.75,2,Long
2023-09-18,39720.5,139.75,39860.25,2,Long
2023-09-19,39720.5,57.75,39778.25,2,Long
2023-09-20,39720.5,-481.75,39238.75,2,Long
2023-09-21,39237.25,0.0,39237.25,0,
2023-09-22,39237.25,0.0,39237.25,0,
2023-09-24,39237.25,0.0,39237.25,0,
2023-09-25,39237.25,0.0,39237.25,0,
2023-09-26,39237.25,0.0,39237.25,0,
2023-09-27,39237.25,0.0,39237.25,0,
2023-09-28,39237.25,0.0,39237.25,0,
2023-09-29,39237.25,0.0,39237.25,0,
2023-10-01,39237.25,0.0,39237.25,0,
2023-10-02,39237.25,0.0,39237.25,0,
2023-10-03,39237.25,0.0,39237.25,0,
2023-10-04,39237.25,0.0,39237.25,0,
2023-10-05,39237.25,0.0,39237.25,0,
2023-10-06,39237.25,0.0,39237.25,0,
2023-10-08,39237.25,0.0,39237.25,0,
2023-10-09,39237.25,0.0,39237.25,0,
2023-10-10,39237.25,0.0,39237.25,0,
2023-10-11,39237.25,0.0,39237.25,0,
2023-10-12,39237.25,-84.75,39152.5,1,Long
2023-10-13,39237.25,-308.0,38929.25,1,Long
2023-10-15,39237.25,-248.5,38988.75,1,Long
2023-10-16,39237.25,-124.0,39113.25,1,Long
2023-10-17,39237.25,-203.75,39033.5,1,Long
2023-10-18,39237.25,-377.0,38860.25,1,Long
2023-10-19,39237.25,-571.5,38665.75,1,Long
2023-10-20,39237.25,-800.0,38437.25,2,Long
2023-10-22,39237.25,-676.5,38560.75,2,Long
2023-10-23,39237.25,-571.0,38666.25,2,Long
2023-10-24,39237.25,-466.0,38771.25,2,Long
2023-10-25,38771.25,0.0,38771.25,0,
2023-10-26,38771.25,0.0,38771.25,0,
2023-10-27,38771.25,0.0,38771.25,0,
2023-10-29,38771.25,0.0,38771.25,0,
2023-10-30,38771.25,0.0,38771.25,0,
2023-10-31,38771.25,0.0,38771.25,0,
2023-11-01,38771.25,0.0,38771.25,0,
2023-11-02,38771.25,0.0,38771.25,0,
2023-11-03,38771.25,0.0,38771.25,0,
2023-11-05,38771.25,-11.25,38760.0,1,Long
2023-11-06,38771.25,21.75,38793.0,1,Long
2023-11-07,38771.25,181.25,38952.5,1,Long
2023-11-08,38771.25,171.0,38942.25,1,Long
2023-11-09,38771.25,45.75,38817.0,1,Long
2023-11-10,38771.25,394.25,39165.5,1,Long
2023-11-12,38771.25,373.25,39144.5,1,Long
2023-11-13,38771.25,371.5,39142.75,1,Long
2023-11-14,38771.25,717.75,39489.0,1,Long
2023-11-15,38771.25,678.0,39449.25,1,Long
2023-11-16,38771.25,698.75,39470.0,1,Long
2023-11-17,38771.25,687.75,39459.0,2,Long
2023-11-19,38771.25,667.25,39438.5,2,Long
2023-11-20,38771.25,1141.25,39912.5,2,Long
2023-11-21,38771.25,848.25,39619.5,2,Long
2023-11-22,38771.25,1031.25,39802.5,2,Long
2023-11-23,38771.25,1068.75,39840.0,2,Long
2023-11-24,38771.25,961.25,39732.5,2,Long
2023-11-26,38771.25,912.25,39683.5,2,Long
2023-11-27,38771.25,959.25,39730.5,2,Long
2023-11-28,38771.25,1046.25,39817.5,2,Long
2023-11-29,38771.25,1033.75,39805.0,2,Long
2023-11-30,38771.25,868.75,39640.0,2,Long
2023-12-01,38771.25,1014.5,39785.75,3,Long
2023-12-03,38771.25,897.5,39668.75,3,Long
2023-12-04,38771.25,470.0,39241.25,3,Long
2023-12-05,38771.25,705.5,39476.75,3,Long
2023-12-06,38771.25,371.0,39142.25,3,Long
2023-12-07,38771.25,981.5,39752.75,3,Long
2023-12-08,38771.25,1199.0,39970.25,3,Long
2023-12-10,38771.25,1235.0,40006.25,3,Long
2023-12-11,38771.25,2285.75,41057.0,3,Long
2023-12-12,38771.25,2750.0,41521.25,3,Long
2023-12-13,38771.25,3369.5,42140.75,3,Long
2023-12-14,38771.25,3203.0,41974.25,3,Long
2023-12-15,38771.25,3350.5,42121.75,4,Long
2023-12-17,38771.25,3381.5,42152.75,4,Long
2023-12-18,38771.25,3783.5,42554.75,4,Long
2023-12-19,38771.25,4197.5,42968.75,4,Long
2023-12-20,38771.25,3333.5,42104.75,4,Long
2023-12-21,38771.25,3854.5,42625.75,4,Long
2023-12-22,38771.25,3936.5,42707.75,4,Long
2023-12-25,38771.25,4102.5,42873.75,4,Long
2023-12-26,38771.25,4444.5,43215.75,4,Long
2023-12-27,38771.25,4573.5,43344.75,4,Long
2023-12-28,38771.25,4489.5,43260.75,4,Long
2023-12-29,38771.25,4089.0,42860.25,5,Long
2024-01-01,38771.25,4217.75,42989.0,5,Long
2024-01-02,38771.25,2691.5,41462.75,5,Long
2024-01-03,41464.0,0.0,41464.0,0,
2024-01-04,41464.0,0.0,41464.0,0,
2024-01-05,41464.0,0.0,41464.0,0,
2024-01-07,41464.0,0.0,41464.0,0,
2024-01-08,41464.0,0.0,41464.0,0,
2024-01-09,41464.0,0.0,41464.0,0,
2024-01-10,41464.0,0.0,41464.0,0,
2024-01-11,41464.0,0.0,41464.0,0,
2024-01-12,41464.0,0.0,41464.0,0,
2024-01-14,41464.0,0.0,41464.0,0,
2024-01-15,41464.0,0.0,41464.0,0,
2024-01-16,41464.0,0.0,41464.0,0,
2024-01-17,41464.0,-125.5,41338.5,1,Long
2024-01-18,41464.0,169.5,41633.5,1,Long
2024-01-19,41464.0,484.0,41948.0,1,Long
2024-01-21,41464.0,504.5,41968.5,1,Long
2024-01-22,41464.0,485.25,41949.25,1,Long
2024-01-23,41464.0,596.75,42060.75,1,Long
2024-01-24,41464.0,637.75,42101.75,1,Long
2024-01-25,41464.0,563.25,42027.25,1,Long
2024-01-26,41464.0,498.75,41962.75,2,Long
2024-01-28,41464.0,448.75,41912.75,2,Long
2024-01-29,41464.0,933.25,42397.25,2,Long
2024-01-30,41464.0,385.75,41849.75,2,Long
2024-01-31,41464.0,54.25,41518.25,2,Long
2024-02-01,41464.0,676.25,42140.25,2,Long
2024-02-02,41464.0,861.25,42325.25,2,Long
2024-02-04,41464.0,904.25,42368.25,2,Long
2024-02-05,41464.0,881.75,42345.75,2,Long
2024-02-06,41464.0,793.25,42257.25,2,Long
2024-02-07,41464.0,1174.25,42638.25,2,Long
2024-02-08,41464.0,1223.75,42687.75,2,Long
2024-02-09,41464.0,1567.5,43031.5,3,Long
2024-02-11,41464.0,1559.25,43023.25,3,Long
2024-02-12,41464.0,1266.0,42730.0,3,Long
2024-02-13,41464.0,525.0,41989.0,3,Long
2024-02-14,41464.0,1090.5,42554.5,3,Long
2024-02-15,41464.0,1311.75,42775.75,3,Long
2024-02-16,41464.0,618.0,42082.0,3,Long
2024-02-18,41464.0,786.75,42250.75,3,Long
2024-02-19,41464.0,699.0,42163.0,3,Long
2024-02-20,41464.0,159.0,41623.0,3,Long
2024-02-21,41464.0,566.25,42030.25,3,Long
2024-02-22,41464.0,1578.75,43042.75,3,Long
2024-02-23,41464.0,1291.5,42755.5,4,Long
2024-02-25,41464.0,1377.5,42841.5,4,Long
2024-02-26,41464.0,1299.5,42763.5,4,Long
2024-02-27,41464.0,1467.5,42931.5,4,Long
2024-02-28,41464.0,926.5,42390.5,4,Long
2024-02-29,41464.0,1685.5,43149.5,4,Long
2024-03-01,41464.0,2733.5,44197.5,4,Long
2024-03-03,41464.0,2821.5,44285.5,4,Long
2024-03-04,41464.0,2340.5,43804.5,4,Long
2024-03-05,41464.0,1297.5,42761.5,4,Long
2024-03-06,41464.0,1521.5,42985.5,4,Long
2024-03-07,41464.0,2512.5,43976.5,4,Long
2024-03-08,41464.0,1655.25,43119.25,5,Long
2024-03-10,41464.0,1592.75,43056.75,5,Long
2024-03-11,41464.0,2849.0,44313.0,5,Long
2024-03-12,41464.0,3771.5,45235.5,5,Long
2024-03-13,41464.0,3244.0,44708.0,5,Long
2024-03-14,41464.0,2571.5,44035.5,5,Long
2024-03-15,41464.0,1696.5,43160.5,5,Long
2024-03-17,41464.0,1774.0,43238.0,5,Long
2024-03-18,41464.0,2336.5,43800.5,5,Long
2024-03-19,41464.0,2721.5,44185.5,5,Long
2024-03-20,41464.0,4272.75,45736.75,5,Long
2024-03-21,41464.0,4324.0,45788.0,5,Long
2024-03-22,41464.0,4199.0,45663.0,5,Long
2024-03-24,41464.0,4309.0,45773.0,5,Long
2024-03-25,41464.0,4081.5,45545.5,5,Long
2024-03-26,41464.0,3825.25,45289.25,5,Long
2024-03-27,41464.0,3780.25,45244.25,5,Long
2024-03-28,41464.0,3705.25,45169.25,5,Long
2024-03-31,41464.0,4421.5,45885.5,5,Long
2024-04-01,41464.0,3730.25,45194.25,5,Long
2024-04-02,41464.0,3021.5,44485.5,5,Long
2024-04-03,41464.0,3607.75,45071.75,5,Long
2024-04-04,41464.0,1836.5,43300.5,5,Long
2024-04-05,41464.0,2931.5,44395.5,5,Long
2024-04-07,41464.0,2974.0,44438.0,5,Long
2024-04-08,41464.0,2887.75,44351.75,5,Long
2024-04-09,41464.0,3219.0,44683.0,5,Long
2024-04-10,41464.0,2171.5,43635.5,5,Long
2024-04-11,41464.0,3830.25,45294.25,5,Long
2024-04-12,41464.0,2236.5,43700.5,5,Long
2024-04-14,41464.0,2567.75,44031.75,5,Long
2024-04-15,44033.0,0.0,44033.0,0,
2024-04-16,44033.0,0.0,44033.0,0,
2024-04-17,44033.0,0.0,44033.0,0,
2024-04-18,44033.0,0.0,44033.0,0,
2024-04-19,44033.0,0.0,44033.0,0,
2024-04-21,44033.0,0.0,44033.0,0,
2024-04-22,44033.0,0.0,44033.0,0,
2024-04-23,44033.0,0.0,44033.0,0,
2024-04-24,44033.0,0.0,44033.0,0,
2024-04-25,44033.0,0.0,44033.0,0,
2024-04-26,44033.0,0.0,44033.0,0,
2024-04-28,44033.0,0.0,44033.0,0,
2024-04-29,44033.0,0.0,44033.0,0,
2024-04-30,44033.0,0.0,44033.0,0,
2024-05-01,44033.0,0.0,44033.0,0,
2024-05-02,44033.0,0.0,44033.0,0,
2024-05-03,44033.0,0.0,44033.0,0,
2024-05-05,44033.0,0.0,44033.0,0,
2024-05-06,44033.0,0.0,44033.0,0,
2024-05-07,44033.0,20.5,44053.5,1,Long
2024-05-08,44033.0,-22.0,44011.0,1,Long
2024-05-09,44033.0,47.5,44080.5,1,Long
2024-05-10,44033.0,55.75,44088.75,1,Long
2024-05-12,44033.0,61.75,44094.75,1,Long
2024-05-13,44033.0,100.0,44133.0,1,Long
2024-05-14,44033.0,233.25,44266.25,1,Long
2024-05-15,44033.0,537.25,44570.25,1,Long
2024-05-16,44033.0,467.5,44500.5,1,Long
2024-05-17,44033.0,463.0,44496.0,2,Long
2024-05-19,44033.0,529.5,44562.5,2,Long
2024-05-20,44033.0,699.0,44732.0,2,Long
2024-05-21,44033.0,822.5,44855.5,2,Long
2024-05-22,44033.0,945.0,44978.0,2,Long
2024-05-23,44033.0,597.5,44630.5,2,Long
2024-05-24,44033.0,938.5,44971.5,2,Long
2024-05-26,44033.0,868.0,44901.0,2,Long
2024-05-27,44033.0,1011.5,45044.5,2,Long
2024-05-28,44033.0,1055.0,45088.0,2,Long
2024-05-29,44033.0,642.0,44675.0,2,Long
2024-05-30,44033.0,313.0,44346.0,2,Long
2024-05-31,44033.0,397.5,44430.5,3,Long
2024-06-02,44033.0,458.25,44491.25,3,Long
2024-06-03,44033.0,633.75,44666.75,3,Long
2024-06-04,44033.0,895.5,44928.5,3,Long
2024-06-05,44033.0,1956.0,45989.0,3,Long
2024-06-06,44033.0,1907.25,45940.25,3,Long
2024-06-07,44033.0,1775.25,45808.25,3,Long
2024-06-09,44033.0,1763.25,45796.25,3,Long
2024-06-10,44033.0,1936.5,45969.5,3,Long
2024-06-11,44033.0,2452.5,46485.5,3,Long
2024-06-12,44033.0,3483.0,47516.0,3,Long
2024-06-13,44033.0,3537.75,47570.75,3,Long
2024-06-14,44033.0,3811.0,47844.0,4,Long
2024-06-16,44033.0,3872.0,47905.0,4,Long
2024-06-17,44033.0,5846.0,49879.0,4,Long
2024-06-18,44033.0,5919.0,49952.0,4,Long
2024-06-19,44033.0,5970.0,50003.0,4,Long
2024-06-20,44033.0,5304.0,49337.0,4,Long
2024-06-21,44033.0,5062.0,49095.0,4,Long
2024-06-23,44033.0,5059.0,49092.0,4,Long
2024-06-24,44033.0,4113.0,48146.0,4,Long
2024-06-25,44033.0,4889.0,48922.0,4,Long
2024-06-26,44033.0,4701.0,48734.0,4,Long
2024-06-27,44033.0,5408.0,49441.0,4,Long
2024-06-28,44033.0,4859.0,48892.0,5,Long
2024-06-30,44033.0,4754.0,48787.0,5,Long
2024-07-01,44033.0,5119.0,49152.0,5,Long
2024-07-02,44033.0,6212.75,50245.75,5,Long
2024-07-03,44033.0,7035.25,51068.25,5,Long
2024-07-04,44033.0,6976.5,51009.5,5,Long
2024-07-05,44033.0,7975.25,52008.25,5,Long
2024-07-07,44033.0,7976.5,52009.5,5,Long
2024-07-08,44033.0,8715.25,52748.25,5,Long
2024-07-09,44033.0,8511.5,52544.5,5,Long
2024-07-10,44033.0,9430.25,53463.25,5,Long
2024-07-11,44033.0,7096.5,51129.5,5,Long
2024-07-12,44033.0,7722.75,51755.75,5,Long
2024-07-14,44033.0,7824.0,51857.0,5,Long
2024-07-15,44033.0,8182.75,52215.75,5,Long
2024-07-16,44033.0,7850.25,51883.25,5,Long
2024-07-17,51883.25,0.0,51883.25,0,
2024-07-18,51883.25,0.0,51883.25,0,
2024-07-19,51883.25,0.0,51883.25,0,
2024-07-21,51883.25,0.0,51883.25,0,
2024-07-22,51883.25,0.0,51883.25,0,
2024-07-23,51883.25,0.0,51883.25,0,
2024-07-24,51883.25,0.0,51883.25,0,
2024-07-25,51883.25,0.0,51883.25,0,
2024-07-26,51883.25,0.0,51883.25,0,
2024-07-28,51883.25,0.0,51883.25,0,
2024-07-29,51883.25,0.0,51883.25,0,
2024-07-30,51883.25,0.0,51883.25,0,
2024-07-31,51883.25,0.0,51883.25,0,
2024-08-01,51883.25,0.0,51883.25,0,
2024-08-02,51883.25,0.0,51883.25,0,
2024-08-04,51883.25,0.0,51883.25,0,
2024-08-05,51883.25,0.0,51883.25,0,
2024-08-06,51883.25,0.0,51883.25,0,
2024-08-07,51883.25,0.0,51883.25,0,
2024-08-08,51883.25,0.0,51883.25,0,
2024-08-09,51883.25,0.0,51883.25,0,
2024-08-11,51883.25,0.0,51883.25,0,
2024-08-12,51883.25,0.0,51883.25,0,
2024-08-13,51883.25,0.0,51883.25,0,
2024-08-14,51883.25,-10.0,51873.25,1,Long
2024-08-15,51883.25,497.0,52380.25,1,Long
2024-08-16,51883.25,487.5,52370.75,1,Long
2024-08-18,51883.25,531.5,52414.75,1,Long
2024-08-19,51883.25,744.0,52627.25,1,Long
2024-08-20,51883.25,673.0,52556.25,1,Long
2024-08-21,51883.25,819.5,52702.75,1,Long
2024-08-22,51883.25,521.75,52405.0,1,Long
2024-08-23,51883.25,674.5,52557.75,2,Long
2024-08-25,51883.25,645.0,52528.25,2,Long
2024-08-26,51883.25,261.5,52144.75,2,Long
2024-08-27,51883.25,293.0,52176.25,2,Long
2024-08-28,51883.25,-495.5,51387.75,2,Long
2024-08-29,51883.25,-21.0,51862.25,2,Long
2024-08-30,51883.25,307.0,52190.25,2,Long
2024-09-01,51883.25,291.0,52174.25,2,Long
2024-09-02,51883.25,280.0,52163.25,2,Long
2024-09-03,51883.25,-966.0,50917.25,2,Long
2024-09-04,51883.25,-1015.5,50867.75,2,Long
2024-09-05,51883.25,-1056.0,50827.25,2,Long
2024-09-06,50825.25,0.0,50825.25,0,
2024-09-08,50825.25,0.0,50825.25,0,
2024-09-09,50825.25,0.0,50825.25,0,
2024-09-10,50825.25,0.0,50825.25,0,
2024-09-11,50825.25,0.0,50825.25,0,
2024-09-12,50825.25,0.0,50825.25,0,
2024-09-13,50825.25,0.0,50825.25,0,
2024-09-15,50825.25,40.25,50865.5,1,Long
2024-09-16,50825.25,174.75,51000.0,1,Long
2024-09-17,50825.25,207.25,51032.5,1,Long
2024-09-18,50825.25,265.25,51090.5,1,Long
2024-09-19,50825.25,551.0,51376.25,1,Long
2024-09-20,50825.25,516.25,51341.5,1,Long
2024-09-22,50825.25,564.0,51389.25,1,Long
2024-09-23,50825.25,570.25,51395.5,1,Long
2024-09-24,50825.25,681.5,51506.75,1,Long
2024-09-25,50825.25,779.5,51604.75,1,Long
2024-09-26,50825.25,845.75,51671.0,1,Long
2024-09-27,50825.25,674.5,51499.75,2,Long
2024-09-29,50825.25,832.5,51657.75,2,Long
2024-09-30,50825.25,782.5,51607.75,2,Long
2024-10-01,50825.25,152.5,50977.75,2,Long
2024-10-02,50825.25,397.0,51222.25,2,Long
2024-10-03,50825.25,253.5,51078.75,2,Long
2024-10-04,50825.25,694.0,51519.25,2,Long
2024-10-06,50825.25,748.5,51573.75,2,Long
2024-10-07,50825.25,253.5,51078.75,2,Long
2024-10-08,50825.25,833.5,51658.75,2,Long
2024-10-09,50825.25,1188.0,52013.25,2,Long
2024-10-10,50825.25,1190.5,52015.75,2,Long
2024-10-11,50825.25,1051.5,51876.75,3,Long
2024-10-13,50825.25,1095.75,51921.0,3,Long
2024-10-14,50825.25,1710.0,52535.25,3,Long
2024-10-15,50825.25,870.0,51695.25,3,Long
2024-10-16,50825.25,756.0,51581.25,3,Long
2024-10-17,50825.25,1029.75,51855.0,3,Long
2024-10-18,50825.25,1267.5,52092.75,3,Long
2024-10-20,50825.25,1355.25,52180.5,3,Long
2024-10-21,50825.25,1362.0,52187.25,3,Long
2024-10-22,50825.25,1403.25,52228.5,3,Long
2024-10-23,50825.25,684.75,51510.0,3,Long
2024-10-24,50825.25,957.75,51783.0,3,Long
2024-10-25,50825.25,1204.0,52029.25,4,Long
2024-10-27,50825.25,1689.0,52514.25,4,Long
2024-10-28,50825.25,1327.0,52152.25,4,Long
2024-10-29,50825.25,2287.0,53112.25,4,Long
2024-10-30,50825.25,1001.0,51826.25,4,Long
2024-10-31,50825.25,-409.0,50416.25,4,Long
2024-11-01,50825.25,-27.0,50798.25,4,Long
2024-11-03,50825.25,-165.0,50660.25,4,Long
2024-11-04,50825.25,-352.0,50473.25,4,Long
2024-11-05,50825.25,671.0,51496.25,4,Long
2024-11-06,50825.25,2859.0,53684.25,4,Long
2024-11-07,50825.25,4202.0,55027.25,4,Long
2024-11-08,50825.25,4211.5,55036.75,5,Long
2024-11-10,50825.25,4596.5,55421.75,5,Long
2024-11-11,50825.25,4156.5,54981.75,5,Long
2024-11-12,50825.25,3876.5,54701.75,5,Long
2024-11-13,50825.25,3906.5,54731.75,5,Long
2024-11-14,50825.25,2824.0,53649.25,5,Long
2024-11-15,50825.25,594.0,51419.25,5,Long
2024-11-17,50825.25,917.75,51743.0,5,Long
2024-11-18,50825.25,1187.75,52013.0,5,Long
2024-11-19,50825.25,1991.5,52816.75,5,Long
2024-11-20,50825.25,1839.0,52664.25,5,Long
2024-11-21,50825.25,1944.0,52769.25,5,Long
2024-11-22,50825.25,2467.75,53293.0,5,Long
2024-11-24,50825.25,2754.0,53579.25,5,Long
2024-11-25,50825.25,2246.5,53071.75,5,Long
2024-11-26,50825.25,3004.0,53829.25,5,Long
2024-11-27,50825.25,2191.5,53016.75,5,Long
2024-11-28,50825.25,2514.0,53339.25,5,Long
2024-11-29,50825.25,3032.75,53858.0,5,Long
2024-12-01,50825.25,2897.75,53723.0,5,Long
2024-12-02,50825.25,4144.0,54969.25,5,Long
2024-12-03,50825.25,4739.0,55564.25,5,Long
2024-12-04,50825.25,5626.5,56451.75,5,Long
2024-12-05,50825.25,5354.0,56179.25,5,Long
2024-12-06,50825.25,6245.25,57070.5,5,Long
2024-12-08,50825.25,6364.0,57189.25,5,Long
2024-12-09,50825.25,5402.75,56228.0,5,Long
2024-12-10,50825.25,5217.75,56043.0,5,Long
2024-12-11,50825.25,6866.5,57691.75,5,Long
2024-12-12,50825.25,6797.75,57623.0,5,Long
2024-12-13,50825.25,6877.75,57703.0,5,Long
2024-12-15,50825.25,7021.5,57846.75,5,Long
2024-12-16,50825.25,8570.25,59395.5,5,Long
2024-12-17,50825.25,9446.5,60271.75,5,Long
2024-12-18,60271.75,0.0,60271.75,0,
2024-12-19,60271.75,0.0,60271.75,0,
2024-12-20,60271.75,0.0,60271.75,0,
2024-12-22,60271.75,0.0,60271.75,0,
2024-12-23,60271.75,0.0,60271.75,0,
2024-12-24,60271.75,0.0,60271.75,0,
2024-12-25,60271.75,0.0,60271.75,0,
2024-12-26,60271.75,0.0,60271.75,0,
2024-12-27,60271.75,0.0,60271.75,0,
2024-12-29,60271.75,0.0,60271.75,0,
2024-12-30,60271.75,0.0,60271.75,0,
2024-12-31,60271.75,0.0,60271.75,0,
2025-01-01,60271.75,0.0,60271.75,0,
2025-01-02,60271.75,0.0,60271.75,0,
2025-01-03,60271.75,0.0,60271.75,0,
2025-01-05,60271.75,0.0,60271.75,0,
2025-01-06,60271.75,0.0,60271.75,0,
2025-01-07,60271.75,0.0,60271.75,0,
2025-01-08,60271.75,0.0,60271.75,0,
2025-01-09,60271.75,0.0,60271.75,0,
2025-01-10,60271.75,0.0,60271.75,0,
2025-01-12,60271.75,0.0,60271.75,0,
2025-01-13,60271.75,0.0,60271.75,0,
2025-01-14,60271.75,0.0,60271.75,0,
2025-01-15,60271.75,0.0,60271.75,0,
2025-01-16,60271.75,0.0,60271.75,0,
2025-01-17,60271.75,0.0,60271.75,0,
2025-01-19,60271.75,0.0,60271.75,0,
2025-01-20,60271.75,0.0,60271.75,0,
2025-01-21,60271.75,0.0,60271.75,0,
2025-01-22,60271.75,0.0,60271.75,0,
2025-01-23,60271.75,45.25,60317.0,1,Long
2025-01-24,60271.75,-57.0,60214.75,1,Long
2025-01-26,60271.75,-299.5,59972.25,1,Long
2025-01-27,60271.75,-638.0,59633.75,1,Long
2025-01-28,60271.75,-420.0,59851.75,1,Long
2025-01-29,60271.75,-427.0,59844.75,1,Long
2025-01-30,60271.75,-267.0,60004.75,1,Long
2025-01-31,60271.75,-421.0,59850.75,2,Long
2025-02-02,60271.75,-1337.0,58934.75,2,Long
2025-02-03,60271.75,-420.5,59851.25,2,Long
2025-02-04,60271.75,-429.0,59842.75,2,Long
2025-02-05,60271.75,-16.0,60255.75,2,Long
2025-02-06,60271.75,144.5,60416.25,2,Long
2025-02-07,60271.75,-412.5,59859.25,2,Long
2025-02-09,60271.75,-270.5,60001.25,2,Long
2025-02-10,60271.75,27.0,60298.75,2,Long
2025-02-11,60271.75,58.5,60330.25,2,Long
2025-02-12,60271.75,213.0,60484.75,2,Long
2025-02-13,60271.75,605.5,60877.25,2,Long
2025-02-14,60271.75,847.75,61119.5,3,Long
2025-02-16,60271.75,873.25,61145.0,3,Long
2025-02-17,60271.75,900.25,61172.0,3,Long
2025-02-18,60271.75,990.25,61262.0,3,Long
2025-02-19,60271.75,891.25,61163.0,3,Long
2025-02-20,60271.75,723.25,60995.0,3,Long
2025-02-21,60271.75,-782.75,59489.0,3,Long
2025-02-23,60271.75,-487.25,59784.5,3,Long
2025-02-24,60271.75,-1605.5,58666.25,3,Long
2025-02-25,58667.0,0.0,58667.0,0,
2025-02-26,58667.0,0.0,58667.0,0,
2025-02-27,58667.0,0.0,58667.0,0,
2025-02-28,58667.0,0.0,58667.0,0,
2025-03-02,58667.0,0.0,58667.0,0,
2025-03-03,58667.0,0.0,58667.0,0,
2025-03-04,58667.0,0.0,58667.0,0,
2025-03-05,58667.0,0.0,58667.0,0,
2025-03-06,58667.0,0.0,58667.0,0,
2025-03-07,58667.0,0.0,58667.0,0,
2025-03-09,58667.0,0.0,58667.0,0,
2025-03-10,58667.0,0.0,58667.0,0,
2025-03-11,58667.0,0.0,58667.0,0,
2025-03-12,58667.0,0.0,58667.0,0,
2025-03-13,58667.0,0.0,58667.0,0,
2025-03-14,58667.0,0.0,58667.0,0,
2025-03-16,58667.0,0.0,58667.0,0,
2025-03-17,58667.0,0.0,58667.0,0,
2025-03-18,58667.0,0.0,58667.0,0,
2025-03-19,58667.0,0.0,58667.0,0,
2025-03-20,58667.0,0.0,58667.0,0,
2025-03-21,58667.0,0.0,58667.0,0,
2025-03-23,58667.0,0.0,58667.0,0,
2025-03-24,58667.0,0.0,58667.0,0,
2025-03-25,58667.0,0.0,58667.0,0,
2025-03-26,58667.0,0.0,58667.0,0,
2025-03-27,58667.0,0.0,58667.0,0,
2025-03-28,58667.0,0.0,58667.0,0,
2025-03-30,58667.0,0.0,58667.0,0,
2025-03-31,58667.0,0.0,58667.0,0,
2025-04-01,58667.0,0.0,58667.0,0,
2025-04-02,58667.0,0.0,58667.0,0,
2025-04-03,58667.0,0.0,58667.0,0,
2025-04-04,58667.0,0.0,58667.0,0,
2025-04-06,58667.0,0.0,58667.0,0,
2025-04-07,58667.0,0.0,58667.0,0,
2025-04-08,58667.0,0.0,58667.0,0,
2025-04-09,58667.0,0.0,58667.0,0,
2025-04-10,58667.0,-956.0,57711.0,1,Long
2025-04-11,58667.0,-493.75,58173.25,1,Long
2025-04-13,58667.0,-299.75,58367.25,1,Long
2025-04-14,58667.0,-462.5,58204.5,1,Long
2025-04-15,58667.0,-584.5,58082.5,1,Long
2025-04-16,58667.0,-910.25,57756.75,1,Long
2025-04-17,58667.0,-882.75,57784.25,1,Long
2025-04-20,58667.0,-998.5,57668.5,1,Long
2025-04-21,58667.0,-1309.5,57357.5,1,Long
2025-04-22,58667.0,-551.5,58115.5,1,Long
2025-04-23,58667.0,-473.25,58193.75,1,Long
2025-04-24,58667.0,99.75,58766.75,1,Long
2025-04-25,58667.0,322.5,58989.5,2,Long
2025-04-27,58667.0,121.5,58788.5,2,Long
2025-04-28,58667.0,270.0,58937.0,2,Long
2025-04-29,58667.0,339.5,59006.5,2,Long
2025-04-30,58667.0,1047.0,59714.0,2,Long
2025-05-01,58667.0,793.5,59460.5,2,Long
2025-05-02,58667.0,1614.0,60281.0,2,Long
2025-05-04,58667.0,1383.5,60050.5,2,Long
2025-05-05,58667.0,1230.0,59897.0,2,Long
2025-05-06,58667.0,1348.0,60015.0,2,Long
2025-05-07,58667.0,1117.5,59784.5,2,Long
2025-05-08,58667.0,1491.5,60158.5,2,Long
2025-05-09,58667.0,1510.0,60177.0,3,Long
2025-05-11,58667.0,2429.5,61096.5,3,Long
2025-05-12,58667.0,3796.0,62463.0,3,Long
2025-05-13,58667.0,4947.25,63614.25,3,Long
2025-05-14,58667.0,5197.0,63864.0,3,Long
2025-05-15,58667.0,5314.75,63981.75,3,Long
2025-05-16,58667.0,5283.25,63950.25,3,Long
2025-05-18,58667.0,5215.0,63882.0,3,Long
2025-05-19,58667.0,5689.75,64356.75,3,Long
2025-05-20,58667.0,5365.75,64032.75,3,Long
2025-05-21,58667.0,4512.25,63179.25,3,Long
2025-05-22,58667.0,4606.75,63273.75,3,Long
2025-05-23,58667.0,3867.75,62534.75,4,Long
2025-05-25,58667.0,4809.75,63476.75,4,Long
2025-05-26,58667.0,4998.75,63665.75,4,Long
2025-05-27,58667.0,5936.75,64603.75,4,Long
2025-05-28,58667.0,7118.75,65785.75,4,Long
2025-05-29,58667.0,5322.75,63989.75,4,Long
2025-05-30,58667.0,5530.75,64197.75,4,Long
2025-06-01,58667.0,5268.75,63935.75,4,Long
2025-06-02,58667.0,6033.75,64700.75,4,Long
2025-06-03,58667.0,6875.75,65542.75,4,Long
2025-06-04,58667.0,7019.75,65686.75,4,Long
2025-06-05,58667.0,6238.75,64905.75,4,Long
2025-06-06,58667.0,7303.5,65970.5,5,Long
2025-06-08,58667.0,7063.5,65730.5,5,Long
2025-06-09,58667.0,7414.75,66081.75,5,Long
2025-06-10,58667.0,8028.5,66695.5,5,Long
2025-06-11,58667.0,7447.25,66114.25,5,Long
2025-06-12,58667.0,7174.75,65841.75,5,Long
2025-06-13,58667.0,6524.75,65191.75,5,Long
2025-06-15,58667.0,6691.0,65358.0,5,Long
2025-06-16,58667.0,8333.5,67000.5,5,Long
2025-06-17,58667.0,7782.25,66449.25,5,Long
2025-06-18,58667.0,7998.5,66665.5,5,Long
2025-06-19,58667.0,7689.75,66356.75,5,Long
2025-06-20,58667.0,7624.75,66291.75,5,Long
2025-06-22,58667.0,7058.5,65725.5,5,Long
2025-06-23,58667.0,9436.0,68103.0,5,Long
2025-06-24,58667.0,10376.0,69043.0,5,Long
2025-06-25,58667.0,10579.75,69246.75,5,Long
2025-06-26,58667.0,11643.5,70310.5,5,Long
2025-06-27,58667.0,11956.0,70623.0,5,Long
2025-06-29,58667.0,12341.0,71008.0,5,Long
2025-06-30,58667.0,12662.25,71329.25,5,Long
2025-07-01,58667.0,11796.0,70463.0,5,Long
2025-07-02,58667.0,12497.25,71164.25,5,Long
2025-07-03,58667.0,13428.5,72095.5,5,Long
2025-07-04,58667.0,12777.25,71444.25,5,Long
2025-07-06,58667.0,13173.5,71840.5,5,Long
2025-07-07,58667.0,12624.75,71291.75,5,Long
2025-07-08,58667.0,12761.0,71428.0,5,Long
2025-07-09,58667.0,13429.75,72096.75,5,Long
2025-07-10,58667.0,13477.25,72144.25,5,Long
2025-07-11,58667.0,12941.0,71608.0,5,Long
2025-07-13,58667.0,12587.25,71254.25,5,Long
2025-07-14,58667.0,13312.25,71979.25,5,Long
2025-07-15,58667.0,13326.0,71993.0,5,Long
2025-07-16,58667.0,13457.25,72124.25,5,Long
2025-07-17,58667.0,14656.0,73323.0,5,Long
2025-07-18,58667.0,14398.5,73065.5,5,Long
2025-07-20,58667.0,14554.75,73221.75,5,Long
2025-07-21,58667.0,14987.25,73654.25,5,Long
2025-07-22,58667.0,14563.5,73230.5,5,Long
2025-07-23,58667.0,15259.75,73926.75,5,Long
2025-07-24,58667.0,15286.0,73953.0,5,Long
2025-07-25,58667.0,15491.0,74158.0,5,Long
2025-07-27,58667.0,15926.0,74593.0,5,Long
2025-07-28,58667.0,15897.25,74564.25,5,Long
2025-07-29,58667.0,15628.5,74295.5,5,Long
2025-07-30,58667.0,16879.75,75546.75,5,Long
2025-07-31,58667.0,14742.25,73409.25,5,Long
2025-08-01,73413.0,0.0,73413.0,0,
2025-08-03,73413.0,0.0,73413.0,0,
2025-08-04,73413.0,0.0,73413.0,0,
2025-08-05,73413.0,0.0,73413.0,0,
2025-08-06,73413.0,0.0,73413.0,0,
2025-08-07,73413.0,0.0,73413.0,0,
2025-08-08,73413.0,0.0,73413.0,0,
2025-08-10,73413.0,-59.5,73353.5,1,Long
2025-08-11,73413.0,-130.5,73282.5,1,Long
2025-08-12,73413.0,193.25,73606.25,1,Long
2025-08-13,73413.0,182.0,73595.0,1,Long
2025-08-14,73413.0,121.5,73534.5,1,Long
2025-08-15,73413.0,29.25,73442.25,1,Long
2025-08-17,73413.0,83.75,73496.75,1,Long
2025-08-18,73413.0,37.5,73450.5,1,Long
2025-08-19,73413.0,-345.25,73067.75,1,Long
2025-08-20,73413.0,-447.75,72965.25,1,Long
2025-08-21,73413.0,-519.25,72893.75,1,Long
2025-08-22,73413.0,-166.5,73246.5,2,Long
2025-08-24,73413.0,-183.0,73230.0,2,Long
2025-08-25,73413.0,-339.0,73074.0,2,Long
2025-08-26,73413.0,-104.0,73309.0,2,Long
2025-08-27,73413.0,-315.5,73097.5,2,Long
2025-08-28,73413.0,164.5,73577.5,2,Long
2025-08-29,73413.0,-423.0,72990.0,2,Long
2025-08-31,73413.0,-256.0,73157.0,2,Long
2025-09-01,73413.0,-441.0,72972.0,2,Long
2025-09-02,73413.0,-663.0,72750.0,2,Long
2025-09-03,73413.0,-456.0,72957.0,2,Long
2025-09-04,73413.0,80.5,73493.5,2,Long
2025-09-05,73413.0,21.25,73434.25,3,Long
2025-09-07,73413.0,335.5,73748.5,3,Long
2025-09-08,73413.0,424.0,73837.0,3,Long
2025-09-09,73413.0,659.5,74072.5,3,Long
2025-09-10,73413.0,704.5,74117.5,3,Long
2025-09-11,73413.0,1060.0,74473.0,3,Long
2025-09-12,73413.0,1345.75,74758.75,3,Long
2025-09-14,73413.0,1335.25,74748.25,3,Long
2025-09-15,73413.0,1917.25,75330.25,3,Long
2025-09-16,73413.0,2631.25,76044.25,3,Long
2025-09-17,73413.0,2754.25,76167.25,3,Long
2025-09-18,73413.0,3222.25,76635.25,3,Long
2025-09-19,73413.0,3603.25,77016.25,4,Long
2025-09-21,73413.0,3563.25,76976.25,4,Long
2025-09-22,73413.0,4148.25,77561.25,4,Long
2025-09-23,73413.0,3521.25,76934.25,4,Long
2025-09-24,73413.0,3181.25,76594.25,4,Long
2025-09-25,73413.0,2625.25,76038.25,4,Long
2025-09-26,73413.0,3068.25,76481.25,4,Long
2025-09-28,73413.0,3247.25,76660.25,4,Long
2025-09-29,73413.0,3454.25,76867.25,4,Long
2025-09-30,73413.0,3479.25,76892.25,4,Long
2025-10-01,73413.0,4248.25,77661.25,4,Long
2025-10-02,73413.0,4655.25,78068.25,4,Long
2025-10-03,73413.0,4047.0,77460.0,5,Long
2025-10-05,73413.0,4473.25,77886.25,5,Long
2025-10-06,73413.0,4849.5,78262.5,5,Long
2025-10-07,73413.0,4307.0,77720.0,5,Long
2025-10-08,73413.0,6034.5,79447.5,5,Long
2025-10-09,73413.0,5814.5,79227.5,5,Long
2025-10-10,79230.0,0.0,79230.0,0,
2025-10-12,79230.0,0.0,79230.0,0,
2025-10-13,79230.0,0.0,79230.0,0,
2025-10-14,79230.0,0.0,79230.0,0,
2025-10-15,79230.0,0.0,79230.0,0,
2025-10-16,79230.0,0.0,79230.0,0,
2025-10-17,79230.0,0.0,79230.0,0,
2025-10-19,79230.0,0.0,79230.0,0,
2025-10-20,79230.0,0.0,79230.0,0,
2025-10-21,79230.0,0.0,79230.0,0,
2025-10-22,79230.0,0.0,79230.0,0,
2025-10-23,79230.0,0.0,79230.0,0,
2025-10-24,79230.0,0.0,79230.0,0,
2025-10-26,79230.0,0.0,79230.0,0,
2025-10-27,79230.0,277.75,79507.75,1,Long
2025-10-28,79230.0,467.0,79697.0,1,Long
2025-10-29,79230.0,518.75,79748.75,1,Long
2025-10-30,79230.0,453.5,79683.5,1,Long
2025-10-31,79230.0,266.75,79496.75,1,Long
2025-11-02,79230.0,363.75,79593.75,1,Long
2025-11-03,79230.0,352.0,79582.0,1,Long
2025-11-04,79230.0,-213.25,79016.75,1,Long
2025-11-05,79230.0,56.0,79286.0,1,Long
2025-11-06,79230.0,-400.25,78829.75,1,Long
2025-11-07,79230.0,-489.75,78740.25,1,Long
2025-11-09,79230.0,-381.0,78849.0,1,Long
2025-11-10,79230.0,25.75,79255.75,1,Long
2025-11-11,79230.0,-66.75,79163.25,1,Long
2025-11-12,79230.0,-176.5,79053.5,1,Long
2025-11-13,79054.25,0.0,79054.25,0,
2025-11-14,79054.25,0.0,79054.25,0,
2025-11-16,79054.25,0.0,79054.25,0,
2025-11-17,79054.25,0.0,79054.25,0,
2025-11-18,79054.25,0.0,79054.25,0,
2025-11-19,79054.25,0.0,79054.25,0,
2025-11-20,79054.25,0.0,79054.25,0,
2025-11-21,79054.25,0.0,79054.25,0,
2025-11-23,79054.25,0.0,79054.25,0,
2025-11-24,79054.25,0.0,79054.25,0,
2025-11-25,79054.25,0.0,79054.25,0,
2025-11-26,79054.25,0.0,79054.25,0,
2025-11-27,79054.25,0.0,79054.25,0,
2025-11-28,79054.25,0.0,79054.25,0,
2025-11-30,79054.25,0.0,79054.25,0,
2025-12-01,79054.25,0.0,79054.25,0,
2025-12-02,79054.25,0.0,79054.25,0,
2025-12-03,79054.25,0.0,79054.25,0,
2025-12-04,79054.25,0.0,79054.25,0,
2025-12-05,79054.25,0.0,79054.25,0,
2025-12-07,79054.25,0.0,79054.25,0,
2025-12-08,79054.25,0.0,79054.25,0,
2025-12-09,79054.25,0.0,79054.25,0,
2025-12-10,79054.25,0.0,79054.25,0,
2025-12-11,79054.25,0.0,79054.25,0,
2025-12-12,79054.25,0.0,79054.25,0,
2025-12-14,79054.25,0.0,79054.25,0,
2025-12-15,79054.25,0.0,79054.25,0,
2025-12-16,79054.25,0.0,79054.25,0,
2025-12-17,79054.25,0.0,79054.25,0,
2025-12-18,79054.25,0.0,79054.25,0,
2025-12-19,79054.25,0.0,79054.25,0,
2025-12-21,79054.25,0.0,79054.25,0,
2025-12-22,79054.25,0.0,79054.25,0,
2025-12-23,79054.25,0.0,79054.25,0,
2025-12-24,79054.25,0.0,79054.25,0,
2025-12-25,79054.25,17.25,79071.5,1,Long
2025-12-26,79054.25,-13.0,79041.25,1,Long
2025-12-28,79054.25,0.0,79054.25,1,Long
2025-12-29,79054.25,-163.0,78891.25,1,Long
2025-12-30,79054.25,-213.25,78841.0,1,Long
2025-12-31,79054.25,-435.5,78618.75,1,Long
2026-01-01,79054.25,-373.0,78681.25,1,Long
2026-01-02,79054.25,-462.0,78592.25,2,Long
2026-01-04,79054.25,-334.0,78720.25,2,Long
2026-01-05,79054.25,-117.5,78936.75,2,Long
2026-01-06,79054.25,400.5,79454.75,2,Long
2026-01-07,79054.25,397.5,79451.75,2,Long
2026-01-08,79054.25,102.0,79156.25,2,Long
2026-01-09,79054.25,613.5,79667.75,2,Long
2026-01-11,79054.25,538.5,79592.75,2,Long
2026-01-12,79054.25,542.0,79596.25,2,Long
2026-01-13,79054.25,532.5,79586.75,2,Long
2026-01-14,79054.25,-38.5,79015.75,2,Long
2026-01-15,79054.25,233.5,79287.75,2,Long
2026-01-16,79054.25,93.0,79147.25,3,Long
2026-01-18,79054.25,-551.25,78503.0,3,Long
2026-01-19,79054.25,-816.75,78237.5,3,Long
2026-01-20,78239.0,0.0,78239.0,0,
2026-01-21,78239.0,0.0,78239.0,0,
2026-01-22,78239.0,0.0,78239.0,0,
2026-01-23,78239.0,0.0,78239.0,0,
2026-01-25,78239.0,0.0,78239.0,0,
2026-01-26,78239.0,0.0,78239.0,0,
2026-01-27,78239.0,0.0,78239.0,0,
2026-01-28,78239.0,32.0,78271.0,1,Long
2026-01-29,78239.0,-166.0,78073.0,1,Long
2026-01-30,78239.0,-499.25,77739.75,1,Long
2026-02-01,78239.0,-604.5,77634.5,1,Long
2026-02-02,78239.0,-190.0,78049.0,1,Long
2026-02-03,78239.0,-710.25,77528.75,1,Long
2026-02-04,77528.25,0.0,77528.25,0,
2026-02-05,77528.25,0.0,77528.25,0,
2026-02-06,77528.25,0.0,77528.25,0,
2026-02-08,77528.25,0.0,77528.25,0,
2026-02-09,77528.25,0.0,77528.25,0,
2026-02-10,77528.25,0.0,77528.25,0,
2026-02-11,77528.25,0.0,77528.25,0,
2026-02-12,77528.25,0.0,77528.25,0,
2026-02-13,77528.25,0.0,77528.25,0,
2026-02-15,77528.25,0.0,77528.25,0,
2026-02-16,77528.25,0.0,77528.25,0,
2026-02-17,77528.25,0.0,77528.25,0,
2026-02-18,77528.25,0.0,77528.25,0,
2026-02-19,77528.25,0.0,77528.25,0,
2026-02-20,77528.25,0.0,77528.25,0,
2026-02-22,77528.25,0.0,77528.25,0,
2026-02-23,77528.25,0.0,77528.25,0,
2026-02-24,77528.25,0.0,77528.25,0,
2026-02-25,77528.25,0.0,77528.25,0,
2026-02-26,77528.25,0.0,77528.25,0,
2026-02-27,77528.25,0.0,77528.25,0,
2026-03-01,77528.25,0.0,77528.25,0,
2026-03-02,77528.25,0.0,77528.25,0,
2026-03-03,77528.25,0.0,77528.25,0,
2026-03-04,77528.25,0.0,77528.25,0,
2026-03-05,77528.25,0.0,77528.25,0,
2026-03-06,77528.25,0.0,77528.25,0,
2026-03-08,77528.25,0.0,77528.25,0,
