date,realized_points,open_unrealized_points,total_equity_points,open_units,direction
2019-05-05,0.0,0.0,0.0,0,
2019-05-06,0.0,0.0,0.0,0,
2019-05-07,0.0,0.0,0.0,0,
2019-05-08,0.0,0.0,0.0,0,
2019-05-09,0.0,0.0,0.0,0,
2019-05-10,0.0,0.0,0.0,0,
2019-05-12,0.0,0.0,0.0,0,
2019-05-13,0.0,0.0,0.0,0,
2019-05-14,0.0,0.0,0.0,0,
2019-05-15,0.0,0.0,0.0,0,
2019-05-16,0.0,0.0,0.0,0,
2019-05-17,0.0,0.0,0.0,0,
2019-05-19,0.0,0.0,0.0,0,
2019-05-20,0.0,0.0,0.0,0,
2019-05-21,0.0,0.0,0.0,0,
2019-05-22,0.0,0.0,0.0,0,
2019-05-23,0.0,0.0,0.0,0,
2019-05-24,0.0,0.0,0.0,0,
2019-05-26,0.0,0.0,0.0,0,
2019-05-27,0.0,0.0,0.0,0,
2019-05-28,0.0,0.0,0.0,0,
2019-05-29,0.0,0.0,0.0,0,
2019-05-30,0.0,0.0,0.0,0,
2019-05-31,0.0,0.0,0.0,0,
2019-06-02,0.0,0.0,0.0,0,
2019-06-03,0.0,0.0,0.0,0,
2019-06-04,0.0,0.0,0.0,0,
2019-06-05,0.0,0.0,0.0,0,
2019-06-06,0.0,0.0,0.0,0,
2019-06-07,0.0,0.0,0.0,0,
2019-06-09,0.0,-5.25,-5.25,1,Long
2019-06-10,0.0,46.5,46.5,1,Long
2019-06-11,0.0,53.0,53.0,1,Long
2019-06-12,0.0,28.75,28.75,1,Long
2019-06-13,0.0,34.5,34.5,1,Long
2019-06-14,0.0,23.0,23.0,1,Long
2019-06-16,0.0,65.0,65.0,1,Long
2019-06-17,0.0,101.75,101.75,1,Long
2019-06-18,0.0,224.0,224.0,1,Long
2019-06-19,0.0,266.25,266.25,1,Long
2019-06-20,0.0,302.75,302.75,1,Long
2019-06-21,0.0,263.0,263.0,2,Long
2019-06-23,0.0,310.5,310.5,2,Long
2019-06-24,0.0,288.0,288.0,2,Long
2019-06-25,0.0,22.5,22.5,2,Long
2019-06-26,0.0,77.5,77.5,2,Long
2019-06-27,0.0,161.5,161.5,2,Long
2019-06-28,0.0,218.0,218.0,2,Long
2019-06-30,0.0,375.0,375.0,2,Long
2019-07-01,0.0,325.0,325.0,2,Long
2019-07-02,0.0,441.0,441.0,2,Long
2019-07-03,0.0,550.0,550.0,2,Long
2019-07-04,0.0,578.5,578.5,2,Long
2019-07-05,0.0,469.0,469.0,3,Long
2019-07-07,0.0,433.0,433.0,3,Long
2019-07-08,0.0,286.75,286.75,3,Long
2019-07-09,0.0,445.75,445.75,3,Long
2019-07-10,0.0,686.5,686.5,3,Long
2019-07-11,0.0,670.0,670.0,3,Long
2019-07-12,0.0,778.75,778.75,3,Long
2019-07-14,0.0,760.75,760.75,3,Long
2019-07-15,0.0,888.25,888.25,3,Long
2019-07-16,0.0,729.25,729.25,3,Long
2019-07-17,0.0,523.75,523.75,3,Long
2019-07-18,0.0,742.0,742.0,3,Long
2019-07-19,0.0,319.75,319.75,4,Long
2019-07-21,0.0,447.75,447.75,4,Long
2019-07-22,0.0,758.75,758.75,4,Long
2019-07-23,0.0,857.75,857.75,4,Long
2019-07-24,0.0,1110.75,1110.75,4,Long
2019-07-25,0.0,1014.75,1014.75,4,Long
2019-07-26,0.0,1103.75,1103.75,4,Long
2019-07-28,0.0,1115.75,1115.75,4,Long
2019-07-29,0.0,1083.75,1083.75,4,Long
2019-07-30,0.0,1001.75,1001.75,4,Long
2019-07-31,0.0,393.75,393.75,4,Long
2019-08-01,0.0,186.75,186.75,4,Long
2019-08-02,0.0,-123.25,-123.25,4,Long
2019-08-04,-132.25,0.0,-132.25,0,
2019-08-05,-132.25,0.0,-132.25,0,
2019-08-06,-132.25,0.0,-132.25,0,
2019-08-07,-132.25,0.0,-132.25,0,
2019-08-08,-132.25,0.0,-132.25,0,
2019-08-09,-132.25,0.0,-132.25,0,
2019-08-11,-132.25,0.0,-132.25,0,
2019-08-12,-132.25,0.0,-132.25,0,
2019-08-13,-132.25,0.0,-132.25,0,
2019-08-14,-132.25,0.0,-132.25,0,
2019-08-15,-132.25,0.0,-132.25,0,
2019-08-16,-132.25,0.0,-132.25,0,
2019-08-18,-132.25,0.0,-132.25,0,
2019-08-19,-132.25,0.0,-132.25,0,
2019-08-20,-132.25,0.0,-132.25,0,
2019-08-21,-132.25,0.0,-132.25,0,
2019-08-22,-132.25,0.0,-132.25,0,
2019-08-23,-132.25,0.0,-132.25,0,
2019-08-25,-132.25,0.0,-132.25,0,
2019-08-26,-132.25,0.0,-132.25,0,
2019-08-27,-132.25,0.0,-132.25,0,
2019-08-28,-132.25,0.0,-132.25,0,
2019-08-29,-132.25,0.0,-132.25,0,
2019-08-30,-132.25,0.0,-132.25,0,
2019-09-01,-132.25,0.0,-132.25,0,
2019-09-02,-132.25,0.0,-132.25,0,
2019-09-03,-132.25,0.0,-132.25,0,
2019-09-04,-132.25,0.0,-132.25,0,
2019-09-05,-132.25,0.0,-132.25,0,
2019-09-06,-132.25,-8.0,-140.25,1,Long
2019-09-08,-132.25,-9.25,-141.5,1,Long
2019-09-09,-132.25,-30.25,-162.5,1,Long
2019-09-10,-132.25,-62.25,-194.5,1,Long
2019-09-11,-132.25,78.75,-53.5,1,Long
2019-09-12,-132.25,60.25,-72.0,1,Long
2019-09-13,-132.25,38.25,-94.0,1,Long
2019-09-15,-132.25,-33.75,-166.0,1,Long
2019-09-16,-132.25,12.0,-120.25,1,Long
2019-09-17,-132.25,38.25,-94.0,1,Long
2019-09-18,-132.25,33.0,-99.25,1,Long
2019-09-19,-132.25,54.0,-78.25,1,Long
2019-09-20,-132.25,-49.25,-181.5,2,Long
2019-09-22,-132.25,39.25,-93.0,2,Long
2019-09-23,-132.25,56.75,-75.5,2,Long
2019-09-24,-132.25,-208.25,-340.5,2,Long
2019-09-25,-132.25,-81.25,-213.5,2,Long
2019-09-26,-132.25,-159.25,-291.5,2,Long
2019-09-27,-132.25,-282.75,-415.0,2,Long
2019-09-29,-132.25,-267.25,-399.5,2,Long
2019-09-30,-132.25,-151.25,-283.5,2,Long
2019-10-01,-132.25,-269.75,-402.0,2,Long
2019-10-02,-132.25,-595.75,-728.0,2,Long
2019-10-03,-727.0,0.0,-727.0,0,
2019-10-04,-727.0,0.0,-727.0,0,
2019-10-06,-727.0,0.0,-727.0,0,
2019-10-07,-727.0,0.0,-727.0,0,
2019-10-08,-727.0,0.0,-727.0,0,
2019-10-09,-727.0,0.0,-727.0,0,
2019-10-10,-727.0,0.0,-727.0,0,
2019-10-11,-727.0,0.0,-727.0,0,
2019-10-13,-727.0,0.0,-727.0,0,
2019-10-14,-727.0,0.0,-727.0,0,
2019-10-15,-727.0,0.0,-727.0,0,
2019-10-16,-727.0,0.0,-727.0,0,
2019-10-17,-727.0,0.0,-727.0,0,
2019-10-18,-727.0,0.0,-727.0,0,
2019-10-20,-727.0,0.0,-727.0,0,
2019-10-21,-727.0,0.0,-727.0,0,
2019-10-22,-727.0,0.0,-727.0,0,
2019-10-23,-727.0,0.0,-727.0,0,
2019-10-24,-727.0,0.0,-727.0,0,
2019-10-25,-727.0,0.0,-727.0,0,
2019-10-27,-727.0,9.0,-718.0,1,Long
2019-10-28,-727.0,64.75,-662.25,1,Long
2019-10-29,-727.0,11.0,-716.0,1,Long
2019-10-30,-727.0,75.25,-651.75,1,Long
2019-10-31,-727.0,41.5,-685.5,1,Long
2019-11-01,-727.0,115.0,-612.0,1,Long
2019-11-03,-727.0,128.75,-598.25,1,Long
2019-11-04,-727.0,191.75,-535.25,1,Long
2019-11-05,-727.0,165.25,-561.75,1,Long
2019-11-06,-727.0,155.25,-571.75,1,Long
2019-11-07,-727.0,189.25,-537.75,1,Long
2019-11-08,-727.0,224.0,-503.0,2,Long
2019-11-10,-727.0,208.5,-518.5,2,Long
2019-11-11,-727.0,192.0,-535.0,2,Long
2019-11-12,-727.0,233.0,-494.0,2,Long
2019-11-13,-727.0,232.5,-494.5,2,Long
2019-11-14,-727.0,247.0,-480.0,2,Long
2019-11-15,-727.0,351.5,-375.5,2,Long
2019-11-17,-727.0,324.5,-402.5,2,Long
2019-11-18,-727.0,359.5,-367.5,2,Long
2019-11-19,-727.0,339.5,-387.5,2,Long
2019-11-20,-727.0,244.5,-482.5,2,Long
2019-11-21,-727.0,244.0,-483.0,2,Long
2019-11-22,-727.0,283.75,-443.25,3,Long
2019-11-24,-727.0,358.0,-369.0,3,Long
2019-11-25,-727.0,564.25,-162.75,3,Long
2019-11-26,-727.0,642.25,-84.75,3,Long
2019-11-27,-727.0,714.25,-12.75,3,Long
2019-11-28,-727.0,785.5,58.5,3,Long
2019-11-29,-727.0,701.5,-25.5,3,Long
2019-12-01,-727.0,730.75,3.75,3,Long
2019-12-02,-727.0,350.5,-376.5,3,Long
2019-12-03,-727.0,223.0,-504.0,3,Long
2019-12-04,-727.0,310.0,-417.0,3,Long
2019-12-05,-727.0,382.0,-345.0,3,Long
2019-12-06,-727.0,648.25,-78.75,4,Long
2019-12-08,-727.0,653.25,-73.75,4,Long
2019-12-09,-727.0,468.25,-258.75,4,Long
2019-12-10,-727.0,479.25,-247.75,4,Long
2019-12-11,-727.0,694.25,-32.75,4,Long
2019-12-12,-727.0,1043.25,316.25,4,Long
2019-12-13,-727.0,1124.25,397.25,4,Long
2019-12-15,-727.0,1177.25,450.25,4,Long
2019-12-16,-727.0,1430.25,703.25,4,Long
2019-12-17,-727.0,1448.25,721.25,4,Long
2019-12-18,-727.0,1523.25,796.25,4,Long
2019-12-19,-727.0,1755.25,1028.25,4,Long
2019-12-20,-727.0,1888.0,1161.0,5,Long
2019-12-22,-727.0,1948.0,1221.0,5,Long
2019-12-23,-727.0,1983.0,1256.0,5,Long
2019-12-24,-727.0,1986.75,1259.75,5,Long
2019-12-25,-727.0,1988.0,1261.0,5,Long
2019-12-26,-727.0,2376.75,1649.75,5,Long
2019-12-27,-727.0,2230.5,1503.5,5,Long
2019-12-29,-727.0,2325.5,1598.5,5,Long
2019-12-30,-727.0,2011.75,1284.75,5,Long
2019-12-31,-727.0,2194.25,1467.25,5,Long
2020-01-01,-727.0,2216.75,1489.75,5,Long
2020-01-02,-727.0,2830.5,2103.5,5,Long
2020-01-03,-727.0,2388.0,1661.0,5,Long
2020-01-05,-727.0,2226.75,1499.75,5,Long
2020-01-06,-727.0,2581.75,1854.75,5,Long
2020-01-07,-727.0,2096.75,1369.75,5,Long
2020-01-08,-727.0,3096.75,2369.75,5,Long
2020-01-09,-727.0,3414.25,2687.25,5,Long
2020-01-10,-727.0,3228.0,2501.0,5,Long
2020-01-12,-727.0,3274.25,2547.25,5,Long
2020-01-13,-727.0,3861.75,3134.75,5,Long
2020-01-14,-727.0,3491.75,2764.75,5,Long
2020-01-15,-727.0,3708.0,2981.0,5,Long
2020-01-16,-727.0,4065.5,3338.5,5,Long
2020-01-17,-727.0,4193.0,3466.0,5,Long
2020-01-19,-727.0,4260.5,3533.5,5,Long
2020-01-20,-727.0,4186.75,3459.75,5,Long
2020-01-21,-727.0,4228.0,3501.0,5,Long
2020-01-22,-727.0,4249.25,3522.25,5,Long
2020-01-23,-727.0,4686.75,3959.75,5,Long
2020-01-24,-727.0,4023.0,3296.0,5,Long
2020-01-26,-727.0,3409.25,2682.25,5,Long
2020-01-27,-727.0,3230.5,2503.5,5,Long
2020-01-28,-727.0,3836.75,3109.75,5,Long
2020-01-29,-727.0,3945.5,3218.5,5,Long
2020-01-30,-727.0,4426.75,3699.75,5,Long
2020-01-31,-727.0,3399.25,2672.25,5,Long
2020-02-02,-727.0,3438.0,2711.0,5,Long
2020-02-03,-727.0,3785.5,3058.5,5,Long
2020-02-04,-727.0,5026.75,4299.75,5,Long
2020-02-05,-727.0,5241.75,4514.75,5,Long
2020-02-06,-727.0,5670.5,4943.5,5,Long
2020-02-07,-727.0,5336.75,4609.75,5,Long
2020-02-09,-727.0,5118.0,4391.0,5,Long
2020-02-10,-727.0,5963.0,5236.0,5,Long
2020-02-11,-727.0,6043.0,5316.0,5,Long
2020-02-12,-727.0,6219.25,5492.25,5,Long
2020-02-13,-727.0,6385.5,5658.5,5,Long
2020-02-14,-727.0,6490.5,5763.5,5,Long
2020-02-16,-727.0,6656.75,5929.75,5,Long
2020-02-17,-727.0,6350.5,5623.5,5,Long
2020-02-18,-727.0,6658.0,5931.0,5,Long
2020-02-19,-727.0,7061.75,6334.75,5,Long
2020-02-20,-727.0,6200.5,5473.5,5,Long
2020-02-21,-727.0,5618.0,4891.0,5,Long
2020-02-23,-727.0,4885.5,4158.5,5,Long
2020-02-24,4159.75,0.0,4159.75,0,
2020-02-25,4159.75,0.0,4159.75,0,
2020-02-26,4159.75,0.0,4159.75,0,
2020-02-27,4159.75,0.0,4159.75,0,
2020-02-28,4159.75,0.0,4159.75,0,
2020-03-01,4159.75,0.0,4159.75,0,
2020-03-02,4159.75,0.0,4159.75,0,
2020-03-03,4159.75,0.0,4159.75,0,
2020-03-04,4159.75,0.0,4159.75,0,
2020-03-05,4159.75,0.0,4159.75,0,
2020-03-06,4159.75,0.0,4159.75,0,
2020-03-08,4159.75,0.0,4159.75,0,
2020-03-09,4159.75,0.0,4159.75,0,
2020-03-10,4159.75,0.0,4159.75,0,
2020-03-11,4159.75,0.0,4159.75,0,
2020-03-12,4159.75,0.0,4159.75,0,
2020-03-13,4159.75,0.0,4159.75,0,
2020-03-15,4159.75,0.0,4159.75,0,
2020-03-16,4159.75,0.0,4159.75,0,
2020-03-17,4159.75,0.0,4159.75,0,
2020-03-18,4159.75,0.0,4159.75,0,
2020-03-19,4159.75,0.0,4159.75,0,
2020-03-20,4159.75,0.0,4159.75,0,
2020-03-22,4159.75,0.0,4159.75,0,
2020-03-23,4159.75,0.0,4159.75,0,
2020-03-24,4159.75,0.0,4159.75,0,
2020-03-25,4159.75,0.0,4159.75,0,
2020-03-26,4159.75,0.0,4159.75,0,
2020-03-27,4159.75,0.0,4159.75,0,
2020-03-29,4159.75,0.0,4159.75,0,
2020-03-30,4159.75,0.0,4159.75,0,
2020-03-31,4159.75,0.0,4159.75,0,
2020-04-01,4159.75,0.0,4159.75,0,
2020-04-02,4159.75,0.0,4159.75,0,
2020-04-03,4159.75,0.0,4159.75,0,
2020-04-05,4159.75,0.0,4159.75,0,
2020-04-06,4159.75,0.0,4159.75,0,
2020-04-07,4159.75,0.0,4159.75,0,
2020-04-08,4159.75,0.0,4159.75,0,
2020-04-09,4159.75,13.25,4173.0,1,Long
2020-04-12,4159.75,-108.25,4051.5,1,Long
2020-04-13,4159.75,139.0,4298.75,1,Long
2020-04-14,4159.75,447.0,4606.75,1,Long
2020-04-15,4159.75,306.25,4466.0,1,Long
2020-04-16,4159.75,706.75,4866.5,1,Long
2020-04-17,4159.75,581.5,4741.25,1,Long
2020-04-19,4159.75,520.5,4680.25,1,Long
2020-04-20,4159.75,503.75,4663.5,1,Long
2020-04-21,4159.75,231.5,4391.25,1,Long
2020-04-22,4159.75,390.0,4549.75,1,Long
2020-04-23,4159.75,325.75,4485.5,1,Long
2020-04-24,4159.75,534.75,4694.5,2,Long
2020-04-26,4159.75,507.25,4667.0,2,Long
2020-04-27,4159.75,647.25,4807.0,2,Long
2020-04-28,4159.75,535.75,4695.5,2,Long
2020-04-29,4159.75,1182.25,5342.0,2,Long
2020-04-30,4159.75,676.75,4836.5,2,Long
2020-05-01,4159.75,404.25,4564.0,2,Long
2020-05-03,4159.75,166.25,4326.0,2,Long
2020-05-04,4159.75,647.75,4807.5,2,Long
2020-05-05,4159.75,912.75,5072.5,2,Long
2020-05-06,4159.75,929.75,5089.5,2,Long
2020-05-07,4159.75,1282.75,5442.5,2,Long
2020-05-08,4159.75,1458.5,5618.25,3,Long
2020-05-10,4159.75,1555.25,5715.0,3,Long
2020-05-11,4159.75,1626.5,5786.25,3,Long
2020-05-12,4159.75,837.5,4997.25,3,Long
2020-05-13,4159.75,829.25,4989.0,3,Long
2020-05-14,4159.75,1118.0,5277.75,3,Long
2020-05-15,4159.75,1154.0,5313.75,3,Long
2020-05-17,4159.75,1289.0,5448.75,3,Long
2020-05-18,4159.75,1827.5,5987.25,3,Long
2020-05-19,4159.75,1749.5,5909.25,3,Long
2020-05-20,4159.75,2252.0,6411.75,3,Long
2020-05-21,4159.75,2003.0,6162.75,3,Long
2020-05-22,4159.75,2084.0,6243.75,4,Long
2020-05-24,4159.75,2217.0,6376.75,4,Long
2020-05-25,4159.75,2434.0,6593.75,4,Long
2020-05-26,4159.75,1971.0,6130.75,4,Long
2020-05-27,4159.75,2162.0,6321.75,4,Long
2020-05-28,4159.75,2066.0,6225.75,4,Long
2020-05-29,4159.75,2749.0,6908.75,4,Long
2020-05-31,4159.75,2422.0,6581.75,4,Long
2020-06-01,4159.75,2656.0,6815.75,4,Long
2020-06-02,4159.75,3093.0,7252.75,4,Long
2020-06-03,4159.75,3180.0,7339.75,4,Long
2020-06-04,4159.75,2868.0,7027.75,4,Long
2020-06-05,4159.75,3625.75,7785.5,5,Long
2020-06-07,4159.75,3942.0,8101.75,5,Long
2020-06-08,4159.75,3988.25,8148.0,5,Long
2020-06-09,4159.75,4534.5,8694.25,5,Long
2020-06-10,4159.75,4805.75,8965.5,5,Long
2020-06-11,4159.75,2982.0,7141.75,5,Long
2020-06-12,4159.75,2799.5,6959.25,5,Long
2020-06-14,4159.75,2279.5,6439.25,5,Long
2020-06-15,4159.75,3914.5,8074.25,5,Long
2020-06-16,4159.75,4508.25,8668.0,5,Long
2020-06-17,4159.75,4335.75,8495.5,5,Long
2020-06-18,4159.75,4692.0,8851.75,5,Long
2020-06-19,4159.75,4210.75,8370.5,5,Long
2020-06-21,4159.75,4113.25,8273.0,5,Long
2020-06-22,4159.75,5337.0,9496.75,5,Long
2020-06-23,4159.75,5492.0,9651.75,5,Long
2020-06-24,4159.75,4455.75,8615.5,5,Long
2020-06-25,4159.75,5119.5,9279.25,5,Long
2020-06-26,4159.75,3808.25,7968.0,5,Long
2020-06-28,4159.75,3723.25,7883.0,5,Long
2020-06-29,4159.75,4552.0,8711.75,5,Long
2020-06-30,4159.75,4762.0,8921.75,5,Long
2020-07-01,4159.75,5935.75,10095.5,5,Long
2020-07-02,4159.75,6338.25,10498.0,5,Long
2020-07-03,4159.75,6214.5,10374.25,5,Long
2020-07-05,4159.75,6553.25,10713.0,5,Long
2020-07-06,4159.75,7788.25,11948.0,5,Long
2020-07-07,4159.75,7339.5,11499.25,5,Long
2020-07-08,4159.75,8000.75,12160.5,5,Long
2020-07-09,4159.75,8359.5,12519.25,5,Long
2020-07-10,4159.75,8802.0,12961.75,5,Long
2020-07-12,4159.75,8972.0,13131.75,5,Long
2020-07-13,4159.75,7815.75,11975.5,5,Long
2020-07-14,4159.75,8175.75,12335.5,5,Long
2020-07-15,4159.75,7824.5,11984.25,5,Long
2020-07-16,4159.75,7422.0,11581.75,5,Long
2020-07-17,4159.75,7705.75,11865.5,5,Long
2020-07-19,4159.75,7825.75,11985.5,5,Long
2020-07-20,4159.75,9337.0,13496.75,5,Long
2020-07-21,4159.75,8954.5,13114.25,5,Long
2020-07-22,4159.75,8703.25,12863.0,5,Long
2020-07-23,4159.75,7502.0,11661.75,5,Long
2020-07-24,4159.75,6903.25,11063.0,5,Long
2020-07-26,4159.75,6783.25,10943.0,5,Long
2020-07-27,4159.75,8080.75,12240.5,5,Long
2020-07-28,4159.75,7408.25,11568.0,5,Long
2020-07-29,4159.75,7985.75,12145.5,5,Long
2020-07-30,4159.75,9115.75,13275.5,5,Long
2020-07-31,4159.75,9165.75,13325.5,5,Long
2020-08-02,4159.75,9147.0,13306.75,5,Long
2020-08-03,4159.75,9770.75,13930.5,5,Long
2020-08-04,4159.75,9957.0,14116.75,5,Long
2020-08-05,4159.75,10034.5,14194.25,5,Long
2020-08-06,4159.75,10850.75,15010.5,5,Long
2020-08-07,4159.75,10243.25,14403.0,5,Long
2020-08-09,4159.75,10124.5,14284.25,5,Long
2020-08-10,4159.75,9958.25,14118.0,5,Long
2020-08-11,4159.75,9202.0,13361.75,5,Long
2020-08-12,4159.75,10247.0,14406.75,5,Long
2020-08-13,4159.75,10614.5,14774.25,5,Long
2020-08-14,4159.75,10317.0,14476.75,5,Long
2020-08-16,4159.75,10395.75,14555.5,5,Long
2020-08-17,4159.75,11113.25,15273.0,5,Long
2020-08-18,4159.75,11670.75,15830.5,5,Long
2020-08-19,4159.75,11040.75,15200.5,5,Long
2020-08-20,4159.75,12085.75,16245.5,5,Long
2020-08-21,4159.75,12403.25,16563.0,5,Long
2020-08-23,4159.75,12505.75,16665.5,5,Long
2020-08-24,4159.75,12822.0,16981.75,5,Long
2020-08-25,4159.75,13322.0,17481.75,5,Long
2020-08-26,4159.75,14427.0,18586.75,5,Long
2020-08-27,4159.75,14434.5,18594.25,5,Long
2020-08-28,4159.75,14607.0,18766.75,5,Long
2020-08-30,4159.75,14827.0,18986.75,5,Long
2020-08-31,4159.75,15214.5,19374.25,5,Long
2020-09-01,4159.75,16390.75,20550.5,5,Long
2020-09-02,4159.75,16697.0,20856.75,5,Long
2020-09-03,4159.75,12593.25,16753.0,5,Long
2020-09-04,16754.25,0.0,16754.25,0,
2020-09-06,16754.25,0.0,16754.25,0,
2020-09-07,16754.25,0.0,16754.25,0,
2020-09-08,16754.25,0.0,16754.25,0,
2020-09-09,16754.25,0.0,16754.25,0,
2020-09-10,16754.25,0.0,16754.25,0,
2020-09-11,16754.25,0.0,16754.25,0,
2020-09-13,16754.25,0.0,16754.25,0,
2020-09-14,16754.25,0.0,16754.25,0,
2020-09-15,16754.25,0.0,16754.25,0,
2020-09-16,16754.25,0.0,16754.25,0,
2020-09-17,16754.25,0.0,16754.25,0,
2020-09-18,16754.25,0.0,16754.25,0,
2020-09-20,16754.25,0.0,16754.25,0,
2020-09-21,16754.25,0.0,16754.25,0,
2020-09-22,16754.25,0.0,16754.25,0,
2020-09-23,16754.25,0.0,16754.25,0,
2020-09-24,16754.25,0.0,16754.25,0,
2020-09-25,16754.25,0.0,16754.25,0,
2020-09-27,16754.25,0.0,16754.25,0,
2020-09-28,16754.25,0.0,16754.25,0,
2020-09-29,16754.25,0.0,16754.25,0,
2020-09-30,16754.25,0.0,16754.25,0,
2020-10-01,16754.25,0.0,16754.25,0,
2020-10-02,16754.25,0.0,16754.25,0,
2020-10-04,16754.25,0.0,16754.25,0,
2020-10-05,16754.25,0.0,16754.25,0,
2020-10-06,16754.25,0.0,16754.25,0,
2020-10-07,16754.25,0.0,16754.25,0,
2020-10-08,16754.25,0.0,16754.25,0,
2020-10-09,16754.25,0.0,16754.25,0,
2020-10-11,16754.25,0.0,16754.25,0,
2020-10-12,16754.25,365.75,17120.0,1,Long
2020-10-13,16754.25,371.25,17125.5,1,Long
2020-10-14,16754.25,217.5,16971.75,1,Long
2020-10-15,16754.25,172.0,16926.25,1,Long
2020-10-16,16754.25,49.75,16804.0,1,Long
2020-10-18,16754.25,129.5,16883.75,1,Long
2020-10-19,16754.25,-28.5,16725.75,1,Long
2020-10-20,16754.25,-39.75,16714.5,1,Long
2020-10-21,16754.25,-118.25,16636.0,1,Long
2020-10-22,16754.25,-78.75,16675.5,1,Long
2020-10-23,16754.25,-67.5,16686.75,2,Long
2020-10-25,16754.25,-152.0,16602.25,2,Long
2020-10-26,16754.25,-428.0,16326.25,2,Long
2020-10-27,16754.25,-331.0,16423.25,2,Long
2020-10-28,16754.25,-1028.0,15726.25,2,Long
2020-10-29,15725.75,0.0,15725.75,0,
2020-10-30,15725.75,0.0,15725.75,0,
2020-11-01,15725.75,0.0,15725.75,0,
2020-11-02,15725.75,0.0,15725.75,0,
2020-11-03,15725.75,0.0,15725.75,0,
2020-11-04,15725.75,0.0,15725.75,0,
2020-11-05,15725.75,272.25,15998.0,1,Long
2020-11-06,15725.75,300.25,16026.0,1,Long
2020-11-08,15725.75,438.0,16163.75,1,Long
2020-11-09,15725.75,59.75,15785.5,1,Long
2020-11-10,15725.75,-197.0,15528.75,1,Long
2020-11-11,15725.75,102.0,15827.75,1,Long
2020-11-12,15725.75,57.0,15782.75,1,Long
2020-11-13,15725.75,164.5,15890.25,2,Long
2020-11-15,15725.75,363.0,16088.75,2,Long
2020-11-16,15725.75,369.5,16095.25,2,Long
2020-11-17,15725.75,230.5,15956.25,2,Long
2020-11-18,15725.75,33.0,15758.75,2,Long
2020-11-19,15725.75,147.0,15872.75,2,Long
2020-11-20,15725.75,94.5,15820.25,2,Long
2020-11-22,15725.75,135.0,15860.75,2,Long
2020-11-23,15725.75,176.0,15901.75,2,Long
2020-11-24,15725.75,524.5,16250.25,2,Long
2020-11-25,15725.75,631.5,16357.25,2,Long
2020-11-26,15725.75,581.5,16307.25,2,Long
2020-11-27,15725.75,819.5,16545.25,3,Long
2020-11-29,15725.75,949.25,16675.0,3,Long
2020-11-30,15725.75,1045.25,16771.0,3,Long
2020-12-01,15725.75,1351.25,17077.0,3,Long
2020-12-02,15725.75,1397.0,17122.75,3,Long
2020-12-03,15725.75,1454.0,17179.75,3,Long
2020-12-04,15725.75,1529.0,17254.75,3,Long
2020-12-06,15725.75,1632.5,17358.25,3,Long
2020-12-07,15725.75,1724.0,17449.75,3,Long
2020-12-08,15725.75,1940.0,17665.75,3,Long
2020-12-09,15725.75,1088.0,16813.75,3,Long
2020-12-10,15725.75,1208.0,16933.75,3,Long
2020-12-11,15725.75,1123.5,16849.25,4,Long
2020-12-13,15725.75,1323.5,17049.25,4,Long
2020-12-14,15725.75,1575.5,17301.25,4,Long
2020-12-15,15725.75,2037.5,17763.25,4,Long
2020-12-16,15725.75,2388.5,18114.25,4,Long
2020-12-17,15725.75,2657.5,18383.25,4,Long
2020-12-18,15725.75,2650.5,18376.25,4,Long
2020-12-20,15725.75,2653.5,18379.25,4,Long
2020-12-21,15725.75,2462.5,18188.25,4,Long
2020-12-22,15725.75,2538.5,18264.25,4,Long
2020-12-23,15725.75,2276.5,18002.25,4,Long
2020-12-24,15725.75,2473.5,18199.25,4,Long
2020-12-27,15725.75,2594.5,18320.25,4,Long
2020-12-28,15725.75,3064.5,18790.25,4,Long
2020-12-29,15725.75,3035.5,18761.25,4,Long
2020-12-30,15725.75,3051.5,18777.25,4,Long
2020-12-31,15725.75,3194.5,18920.25,4,Long
2021-01-03,15725.75,3112.5,18838.25,4,Long
2021-01-04,15725.75,2356.5,18082.25,4,Long
2021-01-05,15725.75,2836.5,18562.25,4,Long
2021-01-06,15725.75,2348.5,18074.25,4,Long
2021-01-07,15725.75,3410.5,19136.25,4,Long
2021-01-08,15725.75,4200.0,19925.75,5,Long
2021-01-10,15725.75,3990.0,19715.75,5,Long
2021-01-11,15725.75,3187.5,18913.25,5,Long
2021-01-12,15725.75,3061.25,18787.0,5,Long
2021-01-13,15725.75,3427.5,19153.25,5,Long
2021-01-14,15725.75,3162.5,18888.25,5,Long
2021-01-15,15725.75,2396.25,18122.0,5,Long
2021-01-17,15725.75,2307.5,18033.25,5,Long
2021-01-18,15725.75,2735.0,18460.75,5,Long
2021-01-19,15725.75,3826.25,19552.0,5,Long
2021-01-20,15725.75,5150.0,20875.75,5,Long
2021-01-21,15725.75,5496.25,21222.0,5,Long
2021-01-22,15725.75,5336.25,21062.0,5,Long
2021-01-24,15725.75,5567.5,21293.25,5,Long
2021-01-25,15725.75,5887.5,21613.25,5,Long
2021-01-26,15725.75,6373.75,22099.5,5,Long
2021-01-27,15725.75,3467.5,19193.25,5,Long
2021-01-28,15725.75,4261.25,19987.0,5,Long
2021-01-29,15725.75,2931.25,18657.0,5,Long
2021-01-31,18549.5,0.0,18549.5,0,
2021-02-01,18549.5,0.0,18549.5,0,
2021-02-02,18549.5,0.0,18549.5,0,
2021-02-03,18549.5,0.0,18549.5,0,
2021-02-04,18549.5,0.0,18549.5,0,
2021-02-05,18549.5,50.75,18600.25,1,Long
2021-02-07,18549.5,85.75,18635.25,1,Long
2021-02-08,18549.5,128.5,18678.0,1,Long
2021-02-09,18549.5,134.5,18684.0,1,Long
2021-02-10,18549.5,100.75,18650.25,1,Long
2021-02-11,18549.5,178.0,18727.5,1,Long
2021-02-12,18549.5,268.75,18818.25,1,Long
2021-02-14,18549.5,272.75,18822.25,1,Long
2021-02-15,18549.5,305.0,18854.5,1,Long
2021-02-16,18549.5,178.5,18728.0,1,Long
2021-02-17,18549.5,150.0,18699.5,1,Long
2021-02-18,18549.5,62.5,18612.0,1,Long
2021-02-19,18549.5,1.5,18551.0,2,Long
2021-02-21,18549.5,41.5,18591.0,2,Long
2021-02-22,18549.5,-685.5,17864.0,2,Long
2021-02-23,17864.0,0.0,17864.0,0,
2021-02-24,17864.0,0.0,17864.0,0,
2021-02-25,17864.0,0.0,17864.0,0,
2021-02-26,17864.0,0.0,17864.0,0,
2021-02-28,17864.0,0.0,17864.0,0,
2021-03-01,17864.0,0.0,17864.0,0,
2021-03-02,17864.0,0.0,17864.0,0,
2021-03-03,17864.0,0.0,17864.0,0,
2021-03-04,17864.0,0.0,17864.0,0,
2021-03-05,17864.0,0.0,17864.0,0,
2021-03-07,17864.0,0.0,17864.0,0,
2021-03-08,17864.0,0.0,17864.0,0,
2021-03-09,17864.0,0.0,17864.0,0,
2021-03-10,17864.0,0.0,17864.0,0,
2021-03-11,17864.0,0.0,17864.0,0,
2021-03-12,17864.0,0.0,17864.0,0,
2021-03-14,17864.0,0.0,17864.0,0,
2021-03-15,17864.0,0.0,17864.0,0,
2021-03-16,17864.0,0.0,17864.0,0,
2021-03-17,17864.0,0.0,17864.0,0,
2021-03-18,17864.0,0.0,17864.0,0,
2021-03-19,17864.0,0.0,17864.0,0,
2021-03-21,17864.0,0.0,17864.0,0,
2021-03-22,17864.0,0.0,17864.0,0,
2021-03-23,17864.0,0.0,17864.0,0,
2021-03-24,17864.0,0.0,17864.0,0,
2021-03-25,17864.0,0.0,17864.0,0,
2021-03-26,17864.0,0.0,17864.0,0,
2021-03-28,17864.0,0.0,17864.0,0,
2021-03-29,17864.0,0.0,17864.0,0,
2021-03-30,17864.0,0.0,17864.0,0,
2021-03-31,17864.0,0.0,17864.0,0,
2021-04-01,17864.0,0.0,17864.0,0,
2021-04-02,17864.0,0.0,17864.0,0,
2021-04-04,17864.0,0.0,17864.0,0,
2021-04-05,17864.0,0.0,17864.0,0,
2021-04-06,17864.0,-21.5,17842.5,1,Long
2021-04-07,17864.0,22.25,17886.25,1,Long
2021-04-08,17864.0,186.25,18050.25,1,Long
2021-04-09,17864.0,193.0,18057.0,1,Long
2021-04-11,17864.0,163.0,18027.0,1,Long
2021-04-12,17864.0,201.5,18065.5,1,Long
2021-04-13,17864.0,351.0,18215.0,1,Long
2021-04-14,17864.0,195.75,18059.75,1,Long
2021-04-15,17864.0,394.5,18258.5,1,Long
2021-04-16,17864.0,402.5,18266.5,2,Long
2021-04-18,17864.0,340.0,18204.0,2,Long
2021-04-19,17864.0,192.5,18056.5,2,Long
2021-04-20,17864.0,-150.0,17714.0,2,Long
2021-04-21,17864.0,124.5,17988.5,2,Long
2021-04-22,17864.0,-123.0,17741.0,2,Long
2021-04-23,17864.0,169.0,18033.0,2,Long
2021-04-25,17864.0,178.5,18042.5,2,Long
2021-04-26,17864.0,413.0,18277.0,2,Long
2021-04-27,17864.0,284.0,18148.0,2,Long
2021-04-28,17864.0,302.0,18166.0,2,Long
2021-04-29,17864.0,189.5,18053.5,2,Long
2021-04-30,17864.0,98.0,17962.0,3,Long
2021-05-02,17864.0,140.75,18004.75,3,Long
2021-05-03,17864.0,-191.5,17672.5,3,Long
2021-05-04,17864.0,-925.0,16939.0,3,Long
2021-05-05,17864.0,-997.75,16866.25,3,Long
2021-05-06,17864.0,-663.25,17200.75,3,Long
2021-05-07,17864.0,-346.75,17517.25,3,Long
2021-05-09,17864.0,-283.0,17581.0,3,Long
2021-05-10,17864.0,-1495.75,16368.25,3,Long
2021-05-11,16366.0,0.0,16366.0,0,
2021-05-12,16366.0,0.0,16366.0,0,
2021-05-13,16366.0,0.0,16366.0,0,
2021-05-14,16366.0,0.0,16366.0,0,
2021-05-16,16366.0,0.0,16366.0,0,
2021-05-17,16366.0,0.0,16366.0,0,
2021-05-18,16366.0,0.0,16366.0,0,
2021-05-19,16366.0,0.0,16366.0,0,
2021-05-20,16366.0,0.0,16366.0,0,
2021-05-21,16366.0,0.0,16366.0,0,
2021-05-23,16366.0,0.0,16366.0,0,
2021-05-24,16366.0,0.0,16366.0,0,
2021-05-25,16366.0,0.0,16366.0,0,
2021-05-26,16366.0,0.0,16366.0,0,
2021-05-27,16366.0,0.0,16366.0,0,
2021-05-28,16366.0,0.0,16366.0,0,
2021-05-30,16366.0,0.0,16366.0,0,
2021-05-31,16366.0,0.0,16366.0,0,
2021-06-01,16366.0,0.0,16366.0,0,
2021-06-02,16366.0,0.0,16366.0,0,
2021-06-03,16366.0,0.0,16366.0,0,
2021-06-04,16366.0,0.0,16366.0,0,
2021-06-06,16366.0,-4.5,16361.5,1,Long
2021-06-07,16366.0,50.75,16416.75,1,Long
2021-06-08,16366.0,45.0,16411.0,1,Long
2021-06-09,16366.0,43.0,16409.0,1,Long
2021-06-10,16366.0,195.75,16561.75,1,Long
2021-06-11,16366.0,212.75,16578.75,1,Long
2021-06-13,16366.0,237.5,16603.5,1,Long
2021-06-14,16366.0,334.25,16700.25,1,Long
2021-06-15,16366.0,259.25,16625.25,1,Long
2021-06-16,16366.0,114.5,16480.5,1,Long
2021-06-17,16366.0,403.5,16769.5,1,Long
2021-06-18,16366.0,201.5,16567.5,2,Long
2021-06-20,16366.0,242.0,16608.0,2,Long
2021-06-21,16366.0,435.5,16801.5,2,Long
2021-06-22,16366.0,710.5,17076.5,2,Long
2021-06-23,16366.0,738.0,17104.0,2,Long
2021-06-24,16366.0,858.5,17224.5,2,Long
2021-06-25,16366.0,828.0,17194.0,2,Long
2021-06-27,16366.0,875.0,17241.0,2,Long
2021-06-28,16366.0,1149.0,17515.0,2,Long
2021-06-29,16366.0,1341.0,17707.0,2,Long
2021-06-30,16366.0,1286.5,17652.5,2,Long
2021-07-01,16366.0,1231.5,17597.5,2,Long
2021-07-02,16366.0,1551.5,17917.5,3,Long
2021-07-04,16366.0,1593.5,17959.5,3,Long
2021-07-05,16366.0,1592.75,17958.75,3,Long
2021-07-06,16366.0,1744.25,18110.25,3,Long
2021-07-07,16366.0,1880.75,18246.75,3,Long
2021-07-08,16366.0,1526.0,17892.0,3,Long
2021-07-09,16366.0,1893.5,18259.5,3,Long
2021-07-11,16366.0,1938.5,18304.5,3,Long
2021-07-12,16366.0,2089.25,18455.25,3,Long
2021-07-13,16366.0,1985.0,18351.0,3,Long
2021-07-14,16366.0,2162.75,18528.75,3,Long
2021-07-15,16366.0,1721.0,18087.0,3,Long
2021-07-16,16366.0,1471.0,17837.0,4,Long
2021-07-18,16366.0,1361.0,17727.0,4,Long
2021-07-19,16366.0,1148.0,17514.0,4,Long
2021-07-20,16366.0,1762.0,18128.0,4,Long
2021-07-21,16366.0,2132.0,18498.0,4,Long
2021-07-22,16366.0,2673.0,19039.0,4,Long
2021-07-23,16366.0,3160.0,19526.0,4,Long
2021-07-25,16366.0,3274.0,19640.0,4,Long
2021-07-26,16366.0,3236.0,19602.0,4,Long
2021-07-27,16366.0,2471.0,18837.0,4,Long
2021-07-28,16366.0,2743.0,19109.0,4,Long
2021-07-29,16366.0,2270.0,18636.0,4,Long
2021-07-30,16366.0,2680.0,19046.0,5,Long
2021-08-01,16366.0,2852.5,19218.5,5,Long
2021-08-02,16366.0,2650.0,19016.0,5,Long
2021-08-03,16366.0,2998.75,19364.75,5,Long
2021-08-04,16366.0,3262.5,19628.5,5,Long
2021-08-05,16366.0,3646.25,20012.25,5,Long
2021-08-06,16366.0,3307.5,19673.5,5,Long
2021-08-08,16366.0,2953.75,19319.75,5,Long
2021-08-09,16366.0,3437.5,19803.5,5,Long
2021-08-10,16366.0,3021.25,19387.25,5,Long
2021-08-11,16366.0,2822.5,19188.5,5,Long
2021-08-12,16366.0,3182.5,19548.5,5,Long
2021-08-13,16366.0,3462.5,19828.5,5,Long
2021-08-15,16366.0,3413.75,19779.75,5,Long
2021-08-16,16366.0,3496.25,19862.25,5,Long
2021-08-17,16366.0,2628.75,18994.75,5,Long
2021-08-18,16366.0,2071.25,18437.25,5,Long
2021-08-19,16366.0,2427.5,18793.5,5,Long
2021-08-20,16366.0,3318.75,19684.75,5,Long
2021-08-22,16366.0,3380.0,19746.0,5,Long
2021-08-23,16366.0,4491.25,20857.25,5,Long
2021-08-24,16366.0,4632.5,20998.5,5,Long
2021-08-25,16366.0,4652.5,21018.5,5,Long
2021-08-26,16366.0,4235.0,20601.0,5,Long
2021-08-27,16366.0,4983.75,21349.75,5,Long
2021-08-29,16366.0,5106.25,21472.25,5,Long
2021-08-30,16366.0,5835.0,22201.0,5,Long
2021-08-31,16366.0,5828.75,22194.75,5,Long
2021-09-01,16366.0,5936.25,22302.25,5,Long
2021-09-02,16366.0,5828.75,22194.75,5,Long
2021-09-03,16366.0,6111.25,22477.25,5,Long
2021-09-05,16366.0,6095.0,22461.0,5,Long
2021-09-06,16366.0,6290.0,22656.0,5,Long
2021-09-07,16366.0,6153.75,22519.75,5,Long
2021-09-08,16366.0,5843.75,22209.75,5,Long
2021-09-09,16366.0,5663.75,22029.75,5,Long
2021-09-10,16366.0,5032.5,21398.5,5,Long
2021-09-12,16366.0,5266.25,21632.25,5,Long
2021-09-13,16366.0,5070.0,21436.0,5,Long
2021-09-14,16366.0,4878.75,21244.75,5,Long
2021-09-15,16366.0,5352.5,21718.5,5,Long
2021-09-16,16366.0,5251.25,21617.25,5,Long
2021-09-17,16366.0,4268.75,20634.75,5,Long
2021-09-19,20634.75,0.0,20634.75,0,
2021-09-20,20634.75,0.0,20634.75,0,
2021-09-21,20634.75,0.0,20634.75,0,
2021-09-22,20634.75,0.0,20634.75,0,
2021-09-23,20634.75,0.0,20634.75,0,
2021-09-24,20634.75,0.0,20634.75,0,
2021-09-26,20634.75,0.0,20634.75,0,
2021-09-27,20634.75,0.0,20634.75,0,
2021-09-28,20634.75,0.0,20634.75,0,
2021-09-29,20634.75,0.0,20634.75,0,
2021-09-30,20634.75,0.0,20634.75,0,
2021-10-01,20634.75,0.0,20634.75,0,
2021-10-03,20634.75,0.0,20634.75,0,
2021-10-04,20634.75,0.0,20634.75,0,
2021-10-05,20634.75,0.0,20634.75,0,
2021-10-06,20634.75,0.0,20634.75,0,
2021-10-07,20634.75,0.0,20634.75,0,
2021-10-08,20634.75,0.0,20634.75,0,
2021-10-10,20634.75,0.0,20634.75,0,
2021-10-11,20634.75,0.0,20634.75,0,
2021-10-12,20634.75,0.0,20634.75,0,
2021-10-13,20634.75,0.0,20634.75,0,
2021-10-14,20634.75,0.0,20634.75,0,
2021-10-15,20634.75,0.0,20634.75,0,
2021-10-17,20634.75,0.0,20634.75,0,
2021-10-18,20634.75,0.0,20634.75,0,
2021-10-19,20634.75,117.0,20751.75,1,Long
2021-10-20,20634.75,43.0,20677.75,1,Long
2021-10-21,20634.75,99.5,20734.25,1,Long
2021-10-22,20634.75,31.75,20666.5,1,Long
2021-10-24,20634.75,14.0,20648.75,1,Long
2021-10-25,20634.75,246.75,20881.5,1,Long
2021-10-26,20634.75,267.75,20902.5,1,Long
2021-10-27,20634.75,334.0,20968.75,1,Long
2021-10-28,20634.75,380.0,21014.75,1,Long
2021-10-29,20634.75,644.5,21279.25,2,Long
2021-10-31,20634.75,667.5,21302.25,2,Long
2021-11-01,20634.75,659.0,21293.75,2,Long
2021-11-02,20634.75,792.0,21426.75,2,Long
2021-11-03,20634.75,1278.5,21913.25,2,Long
2021-11-04,20634.75,1587.0,22221.75,2,Long
2021-11-05,20634.75,1593.0,22227.75,2,Long
2021-11-07,20634.75,1531.0,22165.75,2,Long
2021-11-08,20634.75,1528.0,22162.75,2,Long
2021-11-09,20634.75,1278.0,21912.75,2,Long
2021-11-10,20634.75,887.5,21522.25,2,Long
2021-11-11,20634.75,1035.5,21670.25,2,Long
2021-11-12,20634.75,1330.5,21965.25,3,Long
2021-11-14,20634.75,1404.0,22038.75,3,Long
2021-11-15,20634.75,1294.5,21929.25,3,Long
2021-11-16,20634.75,1641.0,22275.75,3,Long
2021-11-17,20634.75,1713.75,22348.5,3,Long
2021-11-18,20634.75,2213.25,22848.0,3,Long
2021-11-19,20634.75,2490.0,23124.75,3,Long
2021-11-21,20634.75,2491.5,23126.25,3,Long
2021-11-22,20634.75,1915.5,22550.25,3,Long
2021-11-23,20634.75,1584.75,22219.5,3,Long
2021-11-24,20634.75,1798.5,22433.25,3,Long
2021-11-25,20634.75,1838.25,22473.0,3,Long
2021-11-26,20634.75,859.5,21494.25,3,Long
2021-11-28,21498.75,0.0,21498.75,0,
2021-11-29,21498.75,0.0,21498.75,0,
2021-11-30,21498.75,0.0,21498.75,0,
2021-12-01,21498.75,0.0,21498.75,0,
2021-12-02,21498.75,0.0,21498.75,0,
2021-12-03,21498.75,0.0,21498.75,0,
2021-12-05,21498.75,0.0,21498.75,0,
2021-12-06,21498.75,0.0,21498.75,0,
2021-12-07,21498.75,0.0,21498.75,0,
2021-12-08,21498.75,0.0,21498.75,0,
2021-12-09,21498.75,0.0,21498.75,0,
2021-12-10,21498.75,0.0,21498.75,0,
2021-12-12,21498.75,0.0,21498.75,0,
2021-12-13,21498.75,0.0,21498.75,0,
2021-12-14,21498.75,0.0,21498.75,0,
2021-12-15,21498.75,0.0,21498.75,0,
2021-12-16,21498.75,0.0,21498.75,0,
2021-12-17,21498.75,0.0,21498.75,0,
2021-12-19,21498.75,0.0,21498.75,0,
2021-12-20,21498.75,0.0,21498.75,0,
2021-12-21,21498.75,0.0,21498.75,0,
2021-12-22,21498.75,0.0,21498.75,0,
2021-12-23,21498.75,0.0,21498.75,0,
2021-12-26,21498.75,0.0,21498.75,0,
2021-12-27,21498.75,0.0,21498.75,0,
2021-12-28,21498.75,-15.75,21483.0,1,Long
2021-12-29,21498.75,-91.75,21407.0,1,Long
2021-12-30,21498.75,-116.75,21382.0,1,Long
2021-12-31,21498.75,-221.5,21277.25,1,Long
2022-01-02,21498.75,-170.75,21328.0,1,Long
2022-01-03,21498.75,-71.0,21427.75,1,Long
2022-01-04,21498.75,-322.0,21176.75,1,Long
2022-01-05,21498.75,-770.5,20728.25,1,Long
2022-01-06,21498.75,-737.5,20761.25,1,Long
2022-01-07,21498.75,-982.25,20516.5,1,Long
2022-01-09,20533.25,0.0,20533.25,0,
2022-01-10,20533.25,0.0,20533.25,0,
2022-01-11,20533.25,0.0,20533.25,0,
2022-01-12,20533.25,0.0,20533.25,0,
2022-01-13,20533.25,0.0,20533.25,0,
2022-01-14,20533.25,0.0,20533.25,0,
2022-01-16,20533.25,0.0,20533.25,0,
2022-01-17,20533.25,0.0,20533.25,0,
2022-01-18,20533.25,0.0,20533.25,0,
2022-01-19,20533.25,0.0,20533.25,0,
2022-01-20,20533.25,0.0,20533.25,0,
2022-01-21,20533.25,0.0,20533.25,0,
2022-01-23,20533.25,0.0,20533.25,0,
2022-01-24,20533.25,0.0,20533.25,0,
2022-01-25,20533.25,0.0,20533.25,0,
2022-01-26,20533.25,0.0,20533.25,0,
2022-01-27,20533.25,0.0,20533.25,0,
2022-01-28,20533.25,0.0,20533.25,0,
2022-01-30,20533.25,0.0,20533.25,0,
2022-01-31,20533.25,0.0,20533.25,0,
2022-02-01,20533.25,0.0,20533.25,0,
2022-02-02,20533.25,0.0,20533.25,0,
2022-02-03,20533.25,0.0,20533.25,0,
2022-02-04,20533.25,0.0,20533.25,0,
2022-02-06,20533.25,0.0,20533.25,0,
2022-02-07,20533.25,0.0,20533.25,0,
2022-02-08,20533.25,0.0,20533.25,0,
2022-02-09,20533.25,0.0,20533.25,0,
2022-02-10,20533.25,0.0,20533.25,0,
2022-02-11,20533.25,0.0,20533.25,0,
2022-02-13,20533.25,0.0,20533.25,0,
2022-02-14,20533.25,0.0,20533.25,0,
2022-02-15,20533.25,0.0,20533.25,0,
2022-02-16,20533.25,0.0,20533.25,0,
2022-02-17,20533.25,0.0,20533.25,0,
2022-02-18,20533.25,0.0,20533.25,0,
2022-02-20,20533.25,0.0,20533.25,0,
2022-02-21,20533.25,0.0,20533.25,0,
2022-02-22,20533.25,0.0,20533.25,0,
2022-02-23,20533.25,0.0,20533.25,0,
2022-02-24,20533.25,0.0,20533.25,0,
2022-02-25,20533.25,0.0,20533.25,0,
2022-02-27,20533.25,0.0,20533.25,0,
2022-02-28,20533.25,0.0,20533.25,0,
2022-03-01,20533.25,0.0,20533.25,0,
2022-03-02,20533.25,0.0,20533.25,0,
2022-03-03,20533.25,0.0,20533.25,0,
2022-03-04,20533.25,0.0,20533.25,0,
2022-03-06,20533.25,0.0,20533.25,0,
2022-03-07,20533.25,0.0,20533.25,0,
2022-03-08,20533.25,0.0,20533.25,0,
2022-03-09,20533.25,0.0,20533.25,0,
2022-03-10,20533.25,0.0,20533.25,0,
2022-03-11,20533.25,0.0,20533.25,0,
2022-03-13,20533.25,0.0,20533.25,0,
2022-03-14,20533.25,0.0,20533.25,0,
2022-03-15,20533.25,0.0,20533.25,0,
2022-03-16,20533.25,0.0,20533.25,0,
2022-03-17,20533.25,0.0,20533.25,0,
2022-03-18,20533.25,0.0,20533.25,0,
2022-03-20,20533.25,0.0,20533.25,0,
2022-03-21,20533.25,0.0,20533.25,0,
2022-03-22,20533.25,0.0,20533.25,0,
2022-03-23,20533.25,-192.0,20341.25,1,Long
2022-03-24,20533.25,84.0,20617.25,1,Long
2022-03-25,20533.25,86.5,20619.75,1,Long
2022-03-27,20533.25,55.0,20588.25,1,Long
2022-03-28,20533.25,307.0,20840.25,1,Long
2022-03-29,20533.25,555.5,21088.75,1,Long
2022-03-30,20533.25,437.75,20971.0,1,Long
2022-03-31,20533.25,246.5,20779.75,1,Long
2022-04-01,20533.25,262.5,20795.75,2,Long
2022-04-03,20533.25,193.5,20726.75,2,Long
2022-04-04,20533.25,860.0,21393.25,2,Long
2022-04-05,20533.25,225.5,20758.75,2,Long
2022-04-06,20533.25,-547.0,19986.25,2,Long
2022-04-07,20533.25,-312.5,20220.75,2,Long
2022-04-08,20533.25,-787.5,19745.75,2,Long
2022-04-10,20533.25,-815.0,19718.25,2,Long
2022-04-11,20533.25,-1478.5,19054.75,2,Long
2022-04-12,19054.25,0.0,19054.25,0,
2022-04-13,19054.25,0.0,19054.25,0,
2022-04-14,19054.25,0.0,19054.25,0,
2022-04-17,19054.25,0.0,19054.25,0,
2022-04-18,19054.25,0.0,19054.25,0,
2022-04-19,19054.25,0.0,19054.25,0,
2022-04-20,19054.25,0.0,19054.25,0,
2022-04-21,19054.25,0.0,19054.25,0,
2022-04-22,19054.25,0.0,19054.25,0,
2022-04-24,19054.25,0.0,19054.25,0,
2022-04-25,19054.25,0.0,19054.25,0,
2022-04-26,19054.25,0.0,19054.25,0,
2022-04-27,19054.25,0.0,19054.25,0,
2022-04-28,19054.25,0.0,19054.25,0,
2022-04-29,19054.25,0.0,19054.25,0,
2022-05-01,19054.25,0.0,19054.25,0,
2022-05-02,19054.25,0.0,19054.25,0,
2022-05-03,19054.25,0.0,19054.25,0,
2022-05-04,19054.25,0.0,19054.25,0,
2022-05-05,19054.25,0.0,19054.25,0,
2022-05-06,19054.25,0.0,19054.25,0,
2022-05-08,19054.25,0.0,19054.25,0,
2022-05-09,19054.25,0.0,19054.25,0,
2022-05-10,19054.25,0.0,19054.25,0,
2022-05-11,19054.25,0.0,19054.25,0,
2022-05-12,19054.25,0.0,19054.25,0,
2022-05-13,19054.25,0.0,19054.25,0,
2022-05-15,19054.25,0.0,19054.25,0,
2022-05-16,19054.25,0.0,19054.25,0,
2022-05-17,19054.25,0.0,19054.25,0,
2022-05-18,19054.25,0.0,19054.25,0,
2022-05-19,19054.25,0.0,19054.25,0,
2022-05-20,19054.25,0.0,19054.25,0,
2022-05-22,19054.25,0.0,19054.25,0,
2022-05-23,19054.25,0.0,19054.25,0,
2022-05-24,19054.25,0.0,19054.25,0,
2022-05-25,19054.25,0.0,19054.25,0,
2022-05-26,19054.25,0.0,19054.25,0,
2022-05-27,19054.25,0.0,19054.25,0,
2022-05-29,19054.25,0.0,19054.25,0,
2022-05-30,19054.25,0.0,19054.25,0,
2022-05-31,19054.25,0.0,19054.25,0,
2022-06-01,19054.25,0.0,19054.25,0,
2022-06-02,19054.25,0.0,19054.25,0,
2022-06-03,19054.25,-371.5,18682.75,1,Long
2022-06-05,19054.25,-371.5,18682.75,1,Long
2022-06-06,19054.25,-318.25,18736.0,1,Long
2022-06-07,19054.25,-250.75,18803.5,1,Long
2022-06-08,19054.25,-297.0,18757.25,1,Long
2022-06-09,19054.25,-633.0,18421.25,1,Long
2022-06-10,19054.25,-1059.75,17994.5,1,Long
2022-06-12,19054.25,-1227.5,17826.75,1,Long
2022-06-13,17826.0,0.0,17826.0,0,
2022-06-14,17826.0,0.0,17826.0,0,
2022-06-15,17826.0,0.0,17826.0,0,
2022-06-16,17826.0,0.0,17826.0,0,
2022-06-17,17826.0,0.0,17826.0,0,
2022-06-19,17826.0,0.0,17826.0,0,
2022-06-20,17826.0,0.0,17826.0,0,
2022-06-21,17826.0,0.0,17826.0,0,
2022-06-22,17826.0,0.0,17826.0,0,
2022-06-23,17826.0,0.0,17826.0,0,
2022-06-24,17826.0,0.0,17826.0,0,
2022-06-26,17826.0,0.0,17826.0,0,
2022-06-27,17826.0,0.0,17826.0,0,
2022-06-28,17826.0,0.0,17826.0,0,
2022-06-29,17826.0,0.0,17826.0,0,
2022-06-30,17826.0,0.0,17826.0,0,
2022-07-01,17826.0,0.0,17826.0,0,
2022-07-03,17826.0,0.0,17826.0,0,
2022-07-04,17826.0,0.0,17826.0,0,
2022-07-05,17826.0,0.0,17826.0,0,
2022-07-06,17826.0,0.0,17826.0,0,
2022-07-07,17826.0,0.0,17826.0,0,
2022-07-08,17826.0,0.0,17826.0,0,
2022-07-10,17826.0,0.0,17826.0,0,
2022-07-11,17826.0,0.0,17826.0,0,
2022-07-12,17826.0,0.0,17826.0,0,
2022-07-13,17826.0,0.0,17826.0,0,
2022-07-14,17826.0,0.0,17826.0,0,
2022-07-15,17826.0,0.0,17826.0,0,
2022-07-17,17826.0,0.0,17826.0,0,
2022-07-18,17826.0,0.0,17826.0,0,
2022-07-19,17826.0,0.0,17826.0,0,
2022-07-20,17826.0,0.0,17826.0,0,
2022-07-21,17826.0,112.25,17938.25,1,Long
2022-07-22,17826.0,-8.5,17817.5,1,Long
2022-07-24,17826.0,-32.5,17793.5,1,Long
2022-07-25,17826.0,-137.25,17688.75,1,Long
2022-07-26,17826.0,-155.5,17670.5,1,Long
2022-07-27,17826.0,141.5,17967.5,1,Long
2022-07-28,17826.0,457.25,18283.25,1,Long
2022-07-29,17826.0,514.25,18340.25,2,Long
2022-07-31,17826.0,403.75,18229.75,2,Long
2022-08-01,17826.0,466.75,18292.75,2,Long
2022-08-02,17826.0,371.25,18197.25,2,Long
2022-08-03,17826.0,1033.75,18859.75,2,Long
2022-08-04,17826.0,1231.75,19057.75,2,Long
2022-08-05,17826.0,994.75,18820.75,2,Long
2022-08-07,17826.0,920.75,18746.75,2,Long
2022-08-08,17826.0,1006.75,18832.75,2,Long
2022-08-09,17826.0,670.75,18496.75,2,Long
2022-08-10,17826.0,1363.25,19189.25,2,Long
2022-08-11,17826.0,1236.75,19062.75,2,Long
2022-08-12,17826.0,1741.75,19567.75,3,Long
2022-08-14,17826.0,1621.0,19447.0,3,Long
2022-08-15,17826.0,2044.0,19870.0,3,Long
2022-08-16,17826.0,1956.25,19782.25,3,Long
2022-08-17,17826.0,1366.75,19192.75,3,Long
2022-08-18,17826.0,1582.0,19408.0,3,Long
2022-08-19,17826.0,749.5,18575.5,3,Long
2022-08-21,17826.0,562.75,18388.75,3,Long
2022-08-22,17826.0,-132.5,17693.5,3,Long
2022-08-23,17826.0,-313.25,17512.75,3,Long
2022-08-24,17826.0,-196.25,17629.75,3,Long
2022-08-25,17826.0,433.75,18259.75,3,Long
2022-08-26,17826.0,-1325.0,16501.0,3,Long
2022-08-28,16279.0,0.0,16279.0,0,
2022-08-29,16279.0,0.0,16279.0,0,
2022-08-30,16279.0,0.0,16279.0,0,
2022-08-31,16279.0,0.0,16279.0,0,
2022-09-01,16279.0,0.0,16279.0,0,
2022-09-02,16279.0,0.0,16279.0,0,
2022-09-04,16279.0,0.0,16279.0,0,
2022-09-05,16279.0,0.0,16279.0,0,
2022-09-06,16279.0,0.0,16279.0,0,
2022-09-07,16279.0,0.0,16279.0,0,
2022-09-08,16279.0,0.0,16279.0,0,
2022-09-09,16279.0,0.0,16279.0,0,
2022-09-11,16279.0,0.0,16279.0,0,
2022-09-12,16279.0,0.0,16279.0,0,
2022-09-13,16279.0,0.0,16279.0,0,
2022-09-14,16279.0,0.0,16279.0,0,
2022-09-15,16279.0,0.0,16279.0,0,
2022-09-16,16279.0,0.0,16279.0,0,
2022-09-18,16279.0,0.0,16279.0,0,
2022-09-19,16279.0,0.0,16279.0,0,
2022-09-20,16279.0,0.0,16279.0,0,
2022-09-21,16279.0,0.0,16279.0,0,
2022-09-22,16279.0,0.0,16279.0,0,
2022-09-23,16279.0,0.0,16279.0,0,
2022-09-25,16279.0,0.0,16279.0,0,
2022-09-26,16279.0,0.0,16279.0,0,
2022-09-27,16279.0,0.0,16279.0,0,
2022-09-28,16279.0,0.0,16279.0,0,
2022-09-29,16279.0,0.0,16279.0,0,
2022-09-30,16279.0,0.0,16279.0,0,
2022-10-02,16279.0,0.0,16279.0,0,
2022-10-03,16279.0,0.0,16279.0,0,
2022-10-04,16279.0,0.0,16279.0,0,
2022-10-05,16279.0,0.0,16279.0,0,
2022-10-06,16279.0,0.0,16279.0,0,
2022-10-07,16279.0,0.0,16279.0,0,
2022-10-09,16279.0,0.0,16279.0,0,
2022-10-10,16279.0,0.0,16279.0,0,
2022-10-11,16279.0,0.0,16279.0,0,
2022-10-12,16279.0,0.0,16279.0,0,
2022-10-13,16279.0,0.0,16279.0,0,
2022-10-14,16279.0,0.0,16279.0,0,
2022-10-16,16279.0,0.0,16279.0,0,
2022-10-17,16279.0,0.0,16279.0,0,
2022-10-18,16279.0,0.0,16279.0,0,
2022-10-19,16279.0,0.0,16279.0,0,
2022-10-20,16279.0,0.0,16279.0,0,
2022-10-21,16279.0,0.0,16279.0,0,
2022-10-23,16279.0,0.0,16279.0,0,
2022-10-24,16279.0,0.0,16279.0,0,
2022-10-25,16279.0,0.0,16279.0,0,
2022-10-26,16279.0,0.0,16279.0,0,
2022-10-27,16279.0,0.0,16279.0,0,
2022-10-28,16279.0,0.0,16279.0,0,
2022-10-30,16279.0,0.0,16279.0,0,
2022-10-31,16279.0,0.0,16279.0,0,
2022-11-01,16279.0,0.0,16279.0,0,
2022-11-02,16279.0,0.0,16279.0,0,
2022-11-03,16279.0,0.0,16279.0,0,
2022-11-04,16279.0,0.0,16279.0,0,
2022-11-06,16279.0,0.0,16279.0,0,
2022-11-07,16279.0,0.0,16279.0,0,
2022-11-08,16279.0,0.0,16279.0,0,
2022-11-09,16279.0,0.0,16279.0,0,
2022-11-10,16279.0,0.0,16279.0,0,
2022-11-11,16279.0,0.0,16279.0,0,
2022-11-13,16279.0,15.25,16294.25,1,Long
2022-11-14,16279.0,-29.0,16250.0,1,Long
2022-11-15,16279.0,102.75,16381.75,1,Long
2022-11-16,16279.0,-16.0,16263.0,1,Long
2022-11-17,16279.0,-76.25,16202.75,1,Long
2022-11-18,16279.0,-86.5,16192.5,1,Long
2022-11-20,16279.0,-87.0,16192.0,1,Long
2022-11-21,16279.0,-202.0,16077.0,1,Long
2022-11-22,16279.0,-51.0,16228.0,1,Long
2022-11-23,16279.0,92.5,16371.5,1,Long
2022-11-24,16279.0,121.75,16400.75,1,Long
2022-11-25,16279.0,-12.0,16267.0,2,Long
2022-11-27,16279.0,-126.5,16152.5,2,Long
2022-11-28,16279.0,-342.5,15936.5,2,Long
2022-11-29,16279.0,-573.5,15705.5,2,Long
2022-11-30,16279.0,566.0,16845.0,2,Long
2022-12-01,16279.0,500.0,16779.0,2,Long
2022-12-02,16279.0,379.5,16658.5,2,Long
2022-12-04,16279.0,423.0,16702.0,2,Long
2022-12-05,16279.0,58.5,16337.5,2,Long
2022-12-06,16279.0,-423.5,15855.5,2,Long
2022-12-07,16279.0,-559.0,15720.0,2,Long
2022-12-08,16279.0,-305.0,15974.0,2,Long
2022-12-09,16279.0,-518.25,15760.75,3,Long
2022-12-11,16279.0,-569.25,15709.75,3,Long
2022-12-12,16279.0,306.0,16585.0,3,Long
2022-12-13,16279.0,702.0,16981.0,3,Long
2022-12-14,16279.0,471.75,16750.75,3,Long
2022-12-15,16279.0,-801.0,15478.0,3,Long
2022-12-16,16279.0,-1219.5,15059.5,3,Long
2022-12-18,16279.0,-1119.0,15160.0,3,Long
2022-12-19,16279.0,-1536.75,14742.25,3,Long
2022-12-20,14742.25,0.0,14742.25,0,
2022-12-21,14742.25,0.0,14742.25,0,
2022-12-22,14742.25,0.0,14742.25,0,
2022-12-23,14742.25,0.0,14742.25,0,
2022-12-26,14742.25,0.0,14742.25,0,
2022-12-27,14742.25,0.0,14742.25,0,
2022-12-28,14742.25,0.0,14742.25,0,
2022-12-29,14742.25,0.0,14742.25,0,
2022-12-30,14742.25,0.0,14742.25,0,
2023-01-02,14742.25,0.0,14742.25,0,
2023-01-03,14742.25,0.0,14742.25,0,
2023-01-04,14742.25,0.0,14742.25,0,
2023-01-05,14742.25,0.0,14742.25,0,
2023-01-06,14742.25,0.0,14742.25,0,
2023-01-08,14742.25,0.0,14742.25,0,
2023-01-09,14742.25,0.0,14742.25,0,
2023-01-10,14742.25,0.0,14742.25,0,
2023-01-11,14742.25,0.0,14742.25,0,
2023-01-12,14742.25,0.0,14742.25,0,
2023-01-13,14742.25,0.0,14742.25,0,
2023-01-15,14742.25,0.0,14742.25,0,
2023-01-16,14742.25,0.0,14742.25,0,
2023-01-17,14742.25,0.0,14742.25,0,
2023-01-18,14742.25,0.0,14742.25,0,
2023-01-19,14742.25,0.0,14742.25,0,
2023-01-20,14742.25,0.0,14742.25,0,
2023-01-22,14742.25,-19.5,14722.75,1,Long
2023-01-23,14742.25,240.75,14983.0,1,Long
2023-01-24,14742.25,162.25,14904.5,1,Long
2023-01-25,14742.25,229.5,14971.75,1,Long
2023-01-26,14742.25,362.0,15104.25,1,Long
2023-01-27,14742.25,542.0,15284.25,1,Long
2023-01-29,14742.25,527.75,15270.0,1,Long
2023-01-30,14742.25,324.5,15066.75,1,Long
2023-01-31,14742.25,425.5,15167.75,1,Long
2023-02-01,14742.25,867.5,15609.75,1,Long
2023-02-02,14742.25,985.75,15728.0,1,Long
2023-02-03,14742.25,947.0,15689.25,2,Long
2023-02-05,14742.25,895.5,15637.75,2,Long
2023-02-06,14742.25,786.0,15528.25,2,Long
2023-02-07,14742.25,1214.0,15956.25,2,Long
2023-02-08,14742.25,836.0,15578.25,2,Long
2023-02-09,14742.25,583.5,15325.75,2,Long
2023-02-10,14742.25,387.0,15129.25,2,Long
2023-02-12,14742.25,327.5,15069.75,2,Long
2023-02-13,14742.25,791.5,15533.75,2,Long
2023-02-14,14742.25,929.5,15671.75,2,Long
2023-02-15,14742.25,1207.0,15949.25,2,Long
2023-02-16,14742.25,569.0,15311.25,2,Long
2023-02-17,14742.25,495.0,15237.25,3,Long
2023-02-19,14742.25,423.75,15166.0,3,Long
2023-02-20,14742.25,481.5,15223.75,3,Long
2023-02-21,14742.25,-312.0,14430.25,3,Long
2023-02-22,14742.25,-152.25,14590.0,3,Long
2023-02-23,14742.25,-133.5,14608.75,3,Long
2023-02-24,14742.25,-658.5,14083.75,3,Long
2023-02-26,14742.25,-603.0,14139.25,3,Long
2023-02-27,14742.25,-375.0,14367.25,3,Long
2023-02-28,14742.25,-588.75,14153.5,3,Long
2023-03-01,14742.25,-741.0,14001.25,3,Long
2023-03-02,14742.25,-543.75,14198.5,3,Long
2023-03-03,14742.25,354.5,15096.75,4,Long
2023-03-05,14742.25,217.5,14959.75,4,Long
2023-03-06,14742.25,370.5,15112.75,4,Long
2023-03-07,14742.25,-245.5,14496.75,4,Long
2023-03-08,14742.25,-51.5,14690.75,4,Long
2023-03-09,14742.25,-1008.5,13733.75,4,Long
2023-03-10,14742.25,-1410.5,13331.75,4,Long
2023-03-12,13825.75,0.0,13825.75,0,
2023-03-13,13825.75,0.0,13825.75,0,
2023-03-14,13825.75,0.0,13825.75,0,
2023-03-15,13825.75,0.0,13825.75,0,
2023-03-16,13825.75,0.0,13825.75,0,
2023-03-17,13825.75,-73.25,13752.5,1,Long
2023-03-19,13825.75,-17.0,13808.75,1,Long
2023-03-20,13825.75,-30.0,13795.75,1,Long
2023-03-21,13825.75,145.5,13971.25,1,Long
2023-03-22,13825.75,-4.25,13821.5,1,Long
2023-03-23,13825.75,142.0,13967.75,1,Long
2023-03-24,13825.75,201.25,14027.0,1,Long
2023-03-26,13825.75,224.75,14050.5,1,Long
2023-03-27,13825.75,99.5,13925.25,1,Long
2023-03-28,13825.75,36.5,13862.25,1,Long
2023-03-29,13825.75,220.0,14045.75,1,Long
2023-03-30,13825.75,373.0,14198.75,1,Long
2023-03-31,13825.75,628.25,14454.0,2,Long
2023-04-02,13825.75,491.25,14317.0,2,Long
2023-04-03,13825.75,505.25,14331.0,2,Long
2023-04-04,13825.75,492.75,14318.5,2,Long
2023-04-05,13825.75,125.25,13951.0,2,Long
2023-04-06,13825.75,330.25,14156.0,2,Long
2023-04-07,13825.75,372.75,14198.5,2,Long
2023-04-09,13825.75,323.75,14149.5,2,Long
2023-04-10,13825.75,355.75,14181.5,2,Long
2023-04-11,13825.75,190.25,14016.0,2,Long
2023-04-12,13825.75,-125.75,13700.0,2,Long
2023-04-13,13825.75,394.75,14220.5,2,Long
2023-04-14,13825.75,427.0,14252.75,3,Long
2023-04-16,13825.75,388.75,14214.5,3,Long
2023-04-17,13825.75,365.5,14191.25,3,Long
2023-04-18,13825.75,354.25,14180.0,3,Long
2023-04-19,13825.75,213.25,14039.0,3,Long
2023-04-20,13825.75,76.0,13901.75,3,Long
2023-04-21,13825.75,55.0,13880.75,3,Long
2023-04-23,13825.75,34.0,13859.75,3,Long
2023-04-24,13825.75,-22.25,13803.5,3,Long
2023-04-25,13825.75,-290.75,13535.0,3,Long
2023-04-26,13825.75,-299.75,13526.0,3,Long
2023-04-27,13825.75,460.0,14285.75,3,Long
2023-04-28,13825.75,846.5,14672.25,4,Long
2023-04-30,13825.75,767.5,14593.25,4,Long
2023-05-01,13825.75,681.5,14507.25,4,Long
2023-05-02,13825.75,267.5,14093.25,4,Long
2023-05-03,13825.75,-70.5,13755.25,4,Long
2023-05-04,13825.75,-86.5,13739.25,4,Long
2023-05-05,13825.75,780.5,14606.25,4,Long
2023-05-07,13825.75,755.5,14581.25,4,Long
2023-05-08,13825.75,886.5,14712.25,4,Long
2023-05-09,13825.75,640.5,14466.25,4,Long
2023-05-10,13825.75,1225.5,15051.25,4,Long
2023-05-11,13825.75,1357.5,15183.25,4,Long
2023-05-12,13825.75,1005.75,14831.5,5,Long
2023-05-14,13825.75,989.5,14815.25,5,Long
2023-05-15,13825.75,1449.5,15275.25,5,Long
2023-05-16,13825.75,1655.75,15481.5,5,Long
2023-05-17,13825.75,2374.5,16200.25,5,Long
2023-05-18,13825.75,3805.75,17631.5,5,Long
2023-05-19,13825.75,3365.75,17191.5,5,Long
2023-05-21,13825.75,3427.0,17252.75,5,Long
2023-05-22,13825.75,3874.5,17700.25,5,Long
2023-05-23,13825.75,2900.75,16726.5,5,Long
2023-05-24,13825.75,3394.5,17220.25,5,Long
2023-05-25,13825.75,3984.5,17810.25,5,Long
2023-05-26,13825.75,6014.5,19840.25,5,Long
2023-05-28,13825.75,6242.0,20067.75,5,Long
2023-05-29,13825.75,6089.5,19915.25,5,Long
2023-05-30,13825.75,6268.25,20094.0,5,Long
2023-05-31,13825.75,5709.5,19535.25,5,Long
2023-06-01,13825.75,6575.75,20401.5,5,Long
2023-06-02,13825.75,7092.0,20917.75,5,Long
2023-06-04,13825.75,6842.0,20667.75,5,Long
2023-06-05,13825.75,6988.25,20814.0,5,Long
2023-06-06,13825.75,7134.5,20960.25,5,Long
2023-06-07,13825.75,5810.75,19636.5,5,Long
2023-06-08,13825.75,6659.5,20485.25,5,Long
2023-06-09,13825.75,6974.5,20800.25,5,Long
2023-06-11,13825.75,7115.75,20941.5,5,Long
2023-06-12,13825.75,9173.25,22999.0,5,Long
2023-06-13,13825.75,9685.75,23511.5,5,Long
2023-06-14,13825.75,10230.75,24056.5,5,Long
2023-06-15,13825.75,10955.75,24781.5,5,Long
2023-06-16,13825.75,10665.75,24491.5,5,Long
2023-06-18,13825.75,10674.5,24500.25,5,Long
2023-06-19,13825.75,10402.0,24227.75,5,Long
2023-06-20,13825.75,10468.25,24294.0,5,Long
2023-06-21,13825.75,9363.25,23189.0,5,Long
2023-06-22,13825.75,10267.0,24092.75,5,Long
2023-06-23,13825.75,9435.75,23261.5,5,Long
2023-06-25,13825.75,9662.0,23487.75,5,Long
2023-06-26,13825.75,8623.25,22449.0,5,Long
2023-06-27,13825.75,9454.5,23280.25,5,Long
2023-06-28,13825.75,10019.5,23845.25,5,Long
2023-06-29,13825.75,9742.0,23567.75,5,Long
2023-06-30,13825.75,10745.75,24571.5,5,Long
2023-07-02,13825.75,10913.25,24739.0,5,Long
2023-07-03,13825.75,10847.0,24672.75,5,Long
2023-07-04,13825.75,10860.75,24686.5,5,Long
2023-07-05,13825.75,10948.25,24774.0,5,Long
2023-07-06,13825.75,10290.75,24116.5,5,Long
2023-07-07,13825.75,10117.0,23942.75,5,Long
2023-07-09,13825.75,10063.25,23889.0,5,Long
2023-07-10,13825.75,10120.75,23946.5,5,Long
2023-07-11,13825.75,10482.0,24307.75,5,Long
2023-07-12,13825.75,11518.25,25344.0,5,Long
2023-07-13,13825.75,12720.75,26546.5,5,Long
2023-07-14,13825.75,12620.75,26446.5,5,Long
2023-07-16,13825.75,12493.25,26319.0,5,Long
2023-07-17,13825.75,13249.5,27075.25,5,Long
2023-07-18,13825.75,13964.5,27790.25,5,Long
2023-07-19,13825.75,13443.25,27269.0,5,Long
2023-07-20,13825.75,12058.25,25884.0,5,Long
2023-07-21,13825.75,11933.25,25759.0,5,Long
2023-07-23,13825.75,11904.5,25730.25,5,Long
2023-07-24,13825.75,11995.75,25821.5,5,Long
2023-07-25,13825.75,12347.0,26172.75,5,Long
2023-07-26,13825.75,12424.5,26250.25,5,Long
2023-07-27,13825.75,12090.75,25916.5,5,Long
2023-07-28,13825.75,13385.75,27211.5,5,Long
2023-07-30,13825.75,13594.5,27420.25,5,Long
2023-07-31,13825.75,13459.5,27285.25,5,Long
2023-08-01,13825.75,12923.25,26749.0,5,Long
2023-08-02,13825.75,11618.25,25444.0,5,Long
2023-08-03,13825.75,11564.5,25390.25,5,Long
2023-08-04,13825.75,10983.25,24809.0,5,Long
2023-08-06,24832.75,0.0,24832.75,0,
2023-08-07,24832.75,0.0,24832.75,0,
2023-08-08,24832.75,0.0,24832.75,0,
2023-08-09,24832.75,0.0,24832.75,0,
2023-08-10,24832.75,0.0,24832.75,0,
2023-08-11,24832.75,0.0,24832.75,0,
2023-08-13,24832.75,0.0,24832.75,0,
2023-08-14,24832.75,0.0,24832.75,0,
2023-08-15,24832.75,0.0,24832.75,0,
2023-08-16,24832.75,0.0,24832.75,0,
2023-08-17,24832.75,0.0,24832.75,0,
2023-08-18,24832.75,0.0,24832.75,0,
2023-08-20,24832.75,0.0,24832.75,0,
2023-08-21,24832.75,0.0,24832.75,0,
2023-08-22,24832.75,0.0,24832.75,0,
2023-08-23,24832.75,0.0,24832.75,0,
2023-08-24,24832.75,0.0,24832.75,0,
2023-08-25,24832.75,0.0,24832.75,0,
2023-08-27,24832.75,0.0,24832.75,0,
2023-08-28,24832.75,0.0,24832.75,0,
2023-08-29,24832.75,0.0,24832.75,0,
2023-08-30,24832.75,68.25,24901.0,1,Long
2023-08-31,24832.75,101.75,24934.5,1,Long
2023-09-01,24832.75,77.75,24910.5,1,Long
2023-09-03,24832.75,82.0,24914.75,1,Long
2023-09-04,24832.75,91.5,24924.25,1,Long
2023-09-05,24832.75,87.25,24920.0,1,Long
2023-09-06,24832.75,-43.5,24789.25,1,Long
2023-09-07,24832.75,-154.0,24678.75,1,Long
2023-09-08,24832.75,-79.75,24753.0,2,Long
2023-09-10,24832.75,-63.25,24769.5,2,Long
2023-09-11,24832.75,608.25,25441.0,2,Long
2023-09-12,24832.75,302.25,25135.0,2,Long
2023-09-13,24832.75,450.25,25283.0,2,Long
2023-09-14,24832.75,645.25,25478.0,2,Long
2023-09-15,24832.75,57.25,24890.0,2,Long
2023-09-17,24832.75,117.25,24950.0,2,Long
2023-09-18,24832.75,139.75,24972.5,2,Long
2023-09-19,24832.75,57.75,24890.5,2,Long
2023-09-20,24832.75,-481.75,24351.0,2,Long
2023-09-21,24832.75,-1006.25,23826.5,2,Long
2023-09-22,23826.5,0.0,23826.5,0,
2023-09-24,23826.5,0.0,23826.5,0,
2023-09-25,23826.5,0.0,23826.5,0,
2023-09-26,23826.5,0.0,23826.5,0,
2023-09-27,23826.5,0.0,23826.5,0,
2023-09-28,23826.5,0.0,23826.5,0,
2023-09-29,23826.5,0.0,23826.5,0,
2023-10-01,23826.5,0.0,23826.5,0,
2023-10-02,23826.5,0.0,23826.5,0,
2023-10-03,23826.5,0.0,23826.5,0,
2023-10-04,23826.5,0.0,23826.5,0,
2023-10-05,23826.5,0.0,23826.5,0,
2023-10-06,23826.5,0.0,23826.5,0,
2023-10-08,23826.5,0.0,23826.5,0,
2023-10-09,23826.5,0.0,23826.5,0,
2023-10-10,23826.5,0.0,23826.5,0,
2023-10-11,23826.5,0.0,23826.5,0,
2023-10-12,23826.5,-84.75,23741.75,1,Long
2023-10-13,23826.5,-308.0,23518.5,1,Long
2023-10-15,23826.5,-248.5,23578.0,1,Long
2023-10-16,23826.5,-124.0,23702.5,1,Long
2023-10-17,23826.5,-203.75,23622.75,1,Long
2023-10-18,23826.5,-377.0,23449.5,1,Long
2023-10-19,23826.5,-571.5,23255.0,1,Long
2023-10-20,23826.5,-800.0,23026.5,2,Long
2023-10-22,23826.5,-676.5,23150.0,2,Long
2023-10-23,23826.5,-571.0,23255.5,2,Long
2023-10-24,23826.5,-466.0,23360.5,2,Long
2023-10-25,23826.5,-1396.0,22430.5,2,Long
2023-10-26,22430.0,0.0,22430.0,0,
2023-10-27,22430.0,0.0,22430.0,0,
2023-10-29,22430.0,0.0,22430.0,0,
2023-10-30,22430.0,0.0,22430.0,0,
2023-10-31,22430.0,0.0,22430.0,0,
2023-11-01,22430.0,0.0,22430.0,0,
2023-11-02,22430.0,0.0,22430.0,0,
2023-11-03,22430.0,0.0,22430.0,0,
2023-11-05,22430.0,-11.25,22418.75,1,Long
2023-11-06,22430.0,21.75,22451.75,1,Long
2023-11-07,22430.0,181.25,22611.25,1,Long
2023-11-08,22430.0,171.0,22601.0,1,Long
2023-11-09,22430.0,45.75,22475.75,1,Long
2023-11-10,22430.0,394.25,22824.25,1,Long
2023-11-12,22430.0,373.25,22803.25,1,Long
2023-11-13,22430.0,371.5,22801.5,1,Long
2023-11-14,22430.0,717.75,23147.75,1,Long
2023-11-15,22430.0,678.0,23108.0,1,Long
2023-11-16,22430.0,698.75,23128.75,1,Long
2023-11-17,22430.0,687.75,23117.75,2,Long
2023-11-19,22430.0,667.25,23097.25,2,Long
2023-11-20,22430.0,1141.25,23571.25,2,Long
2023-11-21,22430.0,848.25,23278.25,2,Long
2023-11-22,22430.0,1031.25,23461.25,2,Long
2023-11-23,22430.0,1068.75,23498.75,2,Long
2023-11-24,22430.0,961.25,23391.25,2,Long
2023-11-26,22430.0,912.25,23342.25,2,Long
2023-11-27,22430.0,959.25,23389.25,2,Long
2023-11-28,22430.0,1046.25,23476.25,2,Long
2023-11-29,22430.0,1033.75,23463.75,2,Long
2023-11-30,22430.0,868.75,23298.75,2,Long
2023-12-01,22430.0,1014.5,23444.5,3,Long
2023-12-03,22430.0,897.5,23327.5,3,Long
2023-12-04,22430.0,470.0,22900.0,3,Long
2023-12-05,22430.0,705.5,23135.5,3,Long
2023-12-06,22430.0,371.0,22801.0,3,Long
2023-12-07,22430.0,981.5,23411.5,3,Long
2023-12-08,22430.0,1199.0,23629.0,3,Long
2023-12-10,22430.0,1235.0,23665.0,3,Long
2023-12-11,22430.0,2285.75,24715.75,3,Long
2023-12-12,22430.0,2750.0,25180.0,3,Long
2023-12-13,22430.0,3369.5,25799.5,3,Long
2023-12-14,22430.0,3203.0,25633.0,3,Long
2023-12-15,22430.0,3350.5,25780.5,4,Long
2023-12-17,22430.0,3381.5,25811.5,4,Long
2023-12-18,22430.0,3783.5,26213.5,4,Long
2023-12-19,22430.0,4197.5,26627.5,4,Long
2023-12-20,22430.0,3333.5,25763.5,4,Long
2023-12-21,22430.0,3854.5,26284.5,4,Long
2023-12-22,22430.0,3936.5,26366.5,4,Long
2023-12-25,22430.0,4102.5,26532.5,4,Long
2023-12-26,22430.0,4444.5,26874.5,4,Long
2023-12-27,22430.0,4573.5,27003.5,4,Long
2023-12-28,22430.0,4489.5,26919.5,4,Long
2023-12-29,22430.0,4089.0,26519.0,5,Long
2024-01-01,22430.0,4217.75,26647.75,5,Long
2024-01-02,22430.0,2691.5,25121.5,5,Long
2024-01-03,22430.0,1816.5,24246.5,5,Long
2024-01-04,24246.5,0.0,24246.5,0,
2024-01-05,24246.5,0.0,24246.5,0,
2024-01-07,24246.5,0.0,24246.5,0,
2024-01-08,24246.5,0.0,24246.5,0,
2024-01-09,24246.5,0.0,24246.5,0,
2024-01-10,24246.5,0.0,24246.5,0,
2024-01-11,24246.5,0.0,24246.5,0,
2024-01-12,24246.5,0.0,24246.5,0,
2024-01-14,24246.5,0.0,24246.5,0,
2024-01-15,24246.5,0.0,24246.5,0,
2024-01-16,24246.5,0.0,24246.5,0,
2024-01-17,24246.5,-125.5,24121.0,1,Long
2024-01-18,24246.5,169.5,24416.0,1,Long
2024-01-19,24246.5,484.0,24730.5,1,Long
2024-01-21,24246.5,504.5,24751.0,1,Long
2024-01-22,24246.5,485.25,24731.75,1,Long
2024-01-23,24246.5,596.75,24843.25,1,Long
2024-01-24,24246.5,637.75,24884.25,1,Long
2024-01-25,24246.5,563.25,24809.75,1,Long
2024-01-26,24246.5,498.75,24745.25,2,Long
2024-01-28,24246.5,448.75,24695.25,2,Long
2024-01-29,24246.5,933.25,25179.75,2,Long
2024-01-30,24246.5,385.75,24632.25,2,Long
2024-01-31,24246.5,54.25,24300.75,2,Long
2024-02-01,24246.5,676.25,24922.75,2,Long
2024-02-02,24246.5,861.25,25107.75,2,Long
2024-02-04,24246.5,904.25,25150.75,2,Long
2024-02-05,24246.5,881.75,25128.25,2,Long
2024-02-06,24246.5,793.25,25039.75,2,Long
2024-02-07,24246.5,1174.25,25420.75,2,Long
2024-02-08,24246.5,1223.75,25470.25,2,Long
2024-02-09,24246.5,1567.5,25814.0,3,Long
2024-02-11,24246.5,1559.25,25805.75,3,Long
2024-02-12,24246.5,1266.0,25512.5,3,Long
2024-02-13,24246.5,525.0,24771.5,3,Long
2024-02-14,24246.5,1090.5,25337.0,3,Long
2024-02-15,24246.5,1311.75,25558.25,3,Long
2024-02-16,24246.5,618.0,24864.5,3,Long
2024-02-18,24246.5,786.75,25033.25,3,Long
2024-02-19,24246.5,699.0,24945.5,3,Long
2024-02-20,24246.5,159.0,24405.5,3,Long
2024-02-21,24246.5,566.25,24812.75,3,Long
2024-02-22,24246.5,1578.75,25825.25,3,Long
2024-02-23,24246.5,1291.5,25538.0,4,Long
2024-02-25,24246.5,1377.5,25624.0,4,Long
2024-02-26,24246.5,1299.5,25546.0,4,Long
2024-02-27,24246.5,1467.5,25714.0,4,Long
2024-02-28,24246.5,926.5,25173.0,4,Long
2024-02-29,24246.5,1685.5,25932.0,4,Long
2024-03-01,24246.5,2733.5,26980.0,4,Long
2024-03-03,24246.5,2821.5,27068.0,4,Long
2024-03-04,24246.5,2340.5,26587.0,4,Long
2024-03-05,24246.5,1297.5,25544.0,4,Long
2024-03-06,24246.5,1521.5,25768.0,4,Long
2024-03-07,24246.5,2512.5,26759.0,4,Long
2024-03-08,24246.5,1655.25,25901.75,5,Long
2024-03-10,24246.5,1592.75,25839.25,5,Long
2024-03-11,24246.5,2849.0,27095.5,5,Long
2024-03-12,24246.5,3771.5,28018.0,5,Long
2024-03-13,24246.5,3244.0,27490.5,5,Long
2024-03-14,24246.5,2571.5,26818.0,5,Long
2024-03-15,24246.5,1696.5,25943.0,5,Long
2024-03-17,24246.5,1774.0,26020.5,5,Long
2024-03-18,24246.5,2336.5,26583.0,5,Long
2024-03-19,24246.5,2721.5,26968.0,5,Long
2024-03-20,24246.5,4272.75,28519.25,5,Long
2024-03-21,24246.5,4324.0,28570.5,5,Long
2024-03-22,24246.5,4199.0,28445.5,5,Long
2024-03-24,24246.5,4309.0,28555.5,5,Long
2024-03-25,24246.5,4081.5,28328.0,5,Long
2024-03-26,24246.5,3825.25,28071.75,5,Long
2024-03-27,24246.5,3780.25,28026.75,5,Long
2024-03-28,24246.5,3705.25,27951.75,5,Long
2024-03-31,24246.5,4421.5,28668.0,5,Long
2024-04-01,24246.5,3730.25,27976.75,5,Long
2024-04-02,24246.5,3021.5,27268.0,5,Long
2024-04-03,24246.5,3607.75,27854.25,5,Long
2024-04-04,24246.5,1836.5,26083.0,5,Long
2024-04-05,24246.5,2931.5,27178.0,5,Long
2024-04-07,24246.5,2974.0,27220.5,5,Long
2024-04-08,24246.5,2887.75,27134.25,5,Long
2024-04-09,24246.5,3219.0,27465.5,5,Long
2024-04-10,24246.5,2171.5,26418.0,5,Long
2024-04-11,24246.5,3830.25,28076.75,5,Long
2024-04-12,24246.5,2236.5,26483.0,5,Long
2024-04-14,24246.5,2567.75,26814.25,5,Long
2024-04-15,24246.5,731.5,24978.0,5,Long
2024-04-16,24984.25,0.0,24984.25,0,
2024-04-17,24984.25,0.0,24984.25,0,
2024-04-18,24984.25,0.0,24984.25,0,
2024-04-19,24984.25,0.0,24984.25,0,
2024-04-21,24984.25,0.0,24984.25,0,
2024-04-22,24984.25,0.0,24984.25,0,
2024-04-23,24984.25,0.0,24984.25,0,
2024-04-24,24984.25,0.0,24984.25,0,
2024-04-25,24984.25,0.0,24984.25,0,
2024-04-26,24984.25,0.0,24984.25,0,
2024-04-28,24984.25,0.0,24984.25,0,
2024-04-29,24984.25,0.0,24984.25,0,
2024-04-30,24984.25,0.0,24984.25,0,
2024-05-01,24984.25,0.0,24984.25,0,
2024-05-02,24984.25,0.0,24984.25,0,
2024-05-03,24984.25,0.0,24984.25,0,
2024-05-05,24984.25,0.0,24984.25,0,
2024-05-06,24984.25,0.0,24984.25,0,
2024-05-07,24984.25,20.5,25004.75,1,Long
2024-05-08,24984.25,-22.0,24962.25,1,Long
2024-05-09,24984.25,47.5,25031.75,1,Long
2024-05-10,24984.25,55.75,25040.0,1,Long
2024-05-12,24984.25,61.75,25046.0,1,Long
2024-05-13,24984.25,100.0,25084.25,1,Long
2024-05-14,24984.25,233.25,25217.5,1,Long
2024-05-15,24984.25,537.25,25521.5,1,Long
2024-05-16,24984.25,467.5,25451.75,1,Long
2024-05-17,24984.25,463.0,25447.25,2,Long
2024-05-19,24984.25,529.5,25513.75,2,Long
2024-05-20,24984.25,699.0,25683.25,2,Long
2024-05-21,24984.25,822.5,25806.75,2,Long
2024-05-22,24984.25,945.0,25929.25,2,Long
2024-05-23,24984.25,597.5,25581.75,2,Long
2024-05-24,24984.25,938.5,25922.75,2,Long
2024-05-26,24984.25,868.0,25852.25,2,Long
2024-05-27,24984.25,1011.5,25995.75,2,Long
2024-05-28,24984.25,1055.0,26039.25,2,Long
2024-05-29,24984.25,642.0,25626.25,2,Long
2024-05-30,24984.25,313.0,25297.25,2,Long
2024-05-31,24984.25,397.5,25381.75,3,Long
2024-06-02,24984.25,458.25,25442.5,3,Long
2024-06-03,24984.25,633.75,25618.0,3,Long
2024-06-04,24984.25,895.5,25879.75,3,Long
2024-06-05,24984.25,1956.0,26940.25,3,Long
2024-06-06,24984.25,1907.25,26891.5,3,Long
2024-06-07,24984.25,1775.25,26759.5,3,Long
2024-06-09,24984.25,1763.25,26747.5,3,Long
2024-06-10,24984.25,1936.5,26920.75,3,Long
2024-06-11,24984.25,2452.5,27436.75,3,Long
2024-06-12,24984.25,3483.0,28467.25,3,Long
2024-06-13,24984.25,3537.75,28522.0,3,Long
2024-06-14,24984.25,3811.0,28795.25,4,Long
2024-06-16,24984.25,3872.0,28856.25,4,Long
2024-06-17,24984.25,5846.0,30830.25,4,Long
2024-06-18,24984.25,5919.0,30903.25,4,Long
2024-06-19,24984.25,5970.0,30954.25,4,Long
2024-06-20,24984.25,5304.0,30288.25,4,Long
2024-06-21,24984.25,5062.0,30046.25,4,Long
2024-06-23,24984.25,5059.0,30043.25,4,Long
2024-06-24,24984.25,4113.0,29097.25,4,Long
2024-06-25,24984.25,4889.0,29873.25,4,Long
2024-06-26,24984.25,4701.0,29685.25,4,Long
2024-06-27,24984.25,5408.0,30392.25,4,Long
2024-06-28,24984.25,4859.0,29843.25,5,Long
2024-06-30,24984.25,4754.0,29738.25,5,Long
2024-07-01,24984.25,5119.0,30103.25,5,Long
2024-07-02,24984.25,6212.75,31197.0,5,Long
2024-07-03,24984.25,7035.25,32019.5,5,Long
2024-07-04,24984.25,6976.5,31960.75,5,Long
2024-07-05,24984.25,7975.25,32959.5,5,Long
2024-07-07,24984.25,7976.5,32960.75,5,Long
2024-07-08,24984.25,8715.25,33699.5,5,Long
2024-07-09,24984.25,8511.5,33495.75,5,Long
2024-07-10,24984.25,9430.25,34414.5,5,Long
2024-07-11,24984.25,7096.5,32080.75,5,Long
2024-07-12,24984.25,7722.75,32707.0,5,Long
2024-07-14,24984.25,7824.0,32808.25,5,Long
2024-07-15,24984.25,8182.75,33167.0,5,Long
2024-07-16,24984.25,7850.25,32834.5,5,Long
2024-07-17,24984.25,5316.5,30300.75,5,Long
2024-07-18,30295.75,0.0,30295.75,0,
2024-07-19,30295.75,0.0,30295.75,0,
2024-07-21,30295.75,0.0,30295.75,0,
2024-07-22,30295.75,0.0,30295.75,0,
2024-07-23,30295.75,0.0,30295.75,0,
2024-07-24,30295.75,0.0,30295.75,0,
2024-07-25,30295.75,0.0,30295.75,0,
2024-07-26,30295.75,0.0,30295.75,0,
2024-07-28,30295.75,0.0,30295.75,0,
2024-07-29,30295.75,0.0,30295.75,0,
2024-07-30,30295.75,0.0,30295.75,0,
2024-07-31,30295.75,0.0,30295.75,0,
2024-08-01,30295.75,0.0,30295.75,0,
2024-08-02,30295.75,0.0,30295.75,0,
2024-08-04,30295.75,0.0,30295.75,0,
2024-08-05,30295.75,0.0,30295.75,0,
2024-08-06,30295.75,0.0,30295.75,0,
2024-08-07,30295.75,0.0,30295.75,0,
2024-08-08,30295.75,0.0,30295.75,0,
2024-08-09,30295.75,0.0,30295.75,0,
2024-08-11,30295.75,0.0,30295.75,0,
2024-08-12,30295.75,0.0,30295.75,0,
2024-08-13,30295.75,0.0,30295.75,0,
2024-08-14,30295.75,-10.0,30285.75,1,Long
2024-08-15,30295.75,497.0,30792.75,1,Long
2024-08-16,30295.75,487.5,30783.25,1,Long
2024-08-18,30295.75,531.5,30827.25,1,Long
2024-08-19,30295.75,744.0,31039.75,1,Long
2024-08-20,30295.75,673.0,30968.75,1,Long
2024-08-21,30295.75,819.5,31115.25,1,Long
2024-08-22,30295.75,521.75,30817.5,1,Long
2024-08-23,30295.75,674.5,30970.25,2,Long
2024-08-25,30295.75,645.0,30940.75,2,Long
2024-08-26,30295.75,261.5,30557.25,2,Long
2024-08-27,30295.75,293.0,30588.75,2,Long
2024-08-28,30295.75,-495.5,29800.25,2,Long
2024-08-29,30295.75,-21.0,30274.75,2,Long
2024-08-30,30295.75,307.0,30602.75,2,Long
2024-09-01,30295.75,291.0,30586.75,2,Long
2024-09-02,30295.75,280.0,30575.75,2,Long
2024-09-03,30295.75,-966.0,29329.75,2,Long
2024-09-04,30295.75,-1015.5,29280.25,2,Long
2024-09-05,30295.75,-1056.0,29239.75,2,Long
2024-09-06,30295.75,-2126.0,28169.75,2,Long
2024-09-08,28213.75,0.0,28213.75,0,
2024-09-09,28213.75,0.0,28213.75,0,
2024-09-10,28213.75,0.0,28213.75,0,
2024-09-11,28213.75,0.0,28213.75,0,
2024-09-12,28213.75,0.0,28213.75,0,
2024-09-13,28213.75,0.0,28213.75,0,
2024-09-15,28213.75,40.25,28254.0,1,Long
2024-09-16,28213.75,174.75,28388.5,1,Long
2024-09-17,28213.75,207.25,28421.0,1,Long
2024-09-18,28213.75,265.25,28479.0,1,Long
2024-09-19,28213.75,551.0,28764.75,1,Long
2024-09-20,28213.75,516.25,28730.0,1,Long
2024-09-22,28213.75,564.0,28777.75,1,Long
2024-09-23,28213.75,570.25,28784.0,1,Long
2024-09-24,28213.75,681.5,28895.25,1,Long
2024-09-25,28213.75,779.5,28993.25,1,Long
2024-09-26,28213.75,845.75,29059.5,1,Long
2024-09-27,28213.75,674.5,28888.25,2,Long
2024-09-29,28213.75,832.5,29046.25,2,Long
2024-09-30,28213.75,782.5,28996.25,2,Long
2024-10-01,28213.75,152.5,28366.25,2,Long
2024-10-02,28213.75,397.0,28610.75,2,Long
2024-10-03,28213.75,253.5,28467.25,2,Long
2024-10-04,28213.75,694.0,28907.75,2,Long
2024-10-06,28213.75,748.5,28962.25,2,Long
2024-10-07,28213.75,253.5,28467.25,2,Long
2024-10-08,28213.75,833.5,29047.25,2,Long
2024-10-09,28213.75,1188.0,29401.75,2,Long
2024-10-10,28213.75,1190.5,29404.25,2,Long
2024-10-11,28213.75,1051.5,29265.25,3,Long
2024-10-13,28213.75,1095.75,29309.5,3,Long
2024-10-14,28213.75,1710.0,29923.75,3,Long
2024-10-15,28213.75,870.0,29083.75,3,Long
2024-10-16,28213.75,756.0,28969.75,3,Long
2024-10-17,28213.75,1029.75,29243.5,3,Long
2024-10-18,28213.75,1267.5,29481.25,3,Long
2024-10-20,28213.75,1355.25,29569.0,3,Long
2024-10-21,28213.75,1362.0,29575.75,3,Long
2024-10-22,28213.75,1403.25,29617.0,3,Long
2024-10-23,28213.75,684.75,28898.5,3,Long
2024-10-24,28213.75,957.75,29171.5,3,Long
2024-10-25,28213.75,1204.0,29417.75,4,Long
2024-10-27,28213.75,1689.0,29902.75,4,Long
2024-10-28,28213.75,1327.0,29540.75,4,Long
2024-10-29,28213.75,2287.0,30500.75,4,Long
2024-10-30,28213.75,1001.0,29214.75,4,Long
2024-10-31,28213.75,-409.0,27804.75,4,Long
2024-11-01,28213.75,-27.0,28186.75,4,Long
2024-11-03,28213.75,-165.0,28048.75,4,Long
2024-11-04,28213.75,-352.0,27861.75,4,Long
2024-11-05,28213.75,671.0,28884.75,4,Long
2024-11-06,28213.75,2859.0,31072.75,4,Long
2024-11-07,28213.75,4202.0,32415.75,4,Long
2024-11-08,28213.75,4211.5,32425.25,5,Long
2024-11-10,28213.75,4596.5,32810.25,5,Long
2024-11-11,28213.75,4156.5,32370.25,5,Long
2024-11-12,28213.75,3876.5,32090.25,5,Long
2024-11-13,28213.75,3906.5,32120.25,5,Long
2024-11-14,28213.75,2824.0,31037.75,5,Long
2024-11-15,28213.75,594.0,28807.75,5,Long
2024-11-17,28213.75,917.75,29131.5,5,Long
2024-11-18,28213.75,1187.75,29401.5,5,Long
2024-11-19,28213.75,1991.5,30205.25,5,Long
2024-11-20,28213.75,1839.0,30052.75,5,Long
2024-11-21,28213.75,1944.0,30157.75,5,Long
2024-11-22,28213.75,2467.75,30681.5,5,Long
2024-11-24,28213.75,2754.0,30967.75,5,Long
2024-11-25,28213.75,2246.5,30460.25,5,Long
2024-11-26,28213.75,3004.0,31217.75,5,Long
2024-11-27,28213.75,2191.5,30405.25,5,Long
2024-11-28,28213.75,2514.0,30727.75,5,Long
2024-11-29,28213.75,3032.75,31246.5,5,Long
2024-12-01,28213.75,2897.75,31111.5,5,Long
2024-12-02,28213.75,4144.0,32357.75,5,Long
2024-12-03,28213.75,4739.0,32952.75,5,Long
2024-12-04,28213.75,5626.5,33840.25,5,Long
2024-12-05,28213.75,5354.0,33567.75,5,Long
2024-12-06,28213.75,6245.25,34459.0,5,Long
2024-12-08,28213.75,6364.0,34577.75,5,Long
2024-12-09,28213.75,5402.75,33616.5,5,Long
2024-12-10,28213.75,5217.75,33431.5,5,Long
2024-12-11,28213.75,6866.5,35080.25,5,Long
2024-12-12,28213.75,6797.75,35011.5,5,Long
2024-12-13,28213.75,6877.75,35091.5,5,Long
2024-12-15,28213.75,7021.5,35235.25,5,Long
2024-12-16,28213.75,8570.25,36784.0,5,Long
2024-12-17,28213.75,9446.5,37660.25,5,Long
2024-12-18,28213.75,5430.25,33644.0,5,Long
2024-12-19,33650.25,0.0,33650.25,0,
2024-12-20,33650.25,0.0,33650.25,0,
2024-12-22,33650.25,0.0,33650.25,0,
2024-12-23,33650.25,0.0,33650.25,0,
2024-12-24,33650.25,0.0,33650.25,0,
2024-12-25,33650.25,0.0,33650.25,0,
2024-12-26,33650.25,0.0,33650.25,0,
2024-12-27,33650.25,0.0,33650.25,0,
2024-12-29,33650.25,0.0,33650.25,0,
2024-12-30,33650.25,0.0,33650.25,0,
2024-12-31,33650.25,0.0,33650.25,0,
2025-01-01,33650.25,0.0,33650.25,0,
2025-01-02,33650.25,0.0,33650.25,0,
2025-01-03,33650.25,0.0,33650.25,0,
2025-01-05,33650.25,0.0,33650.25,0,
2025-01-06,33650.25,0.0,33650.25,0,
2025-01-07,33650.25,0.0,33650.25,0,
2025-01-08,33650.25,0.0,33650.25,0,
2025-01-09,33650.25,0.0,33650.25,0,
2025-01-10,33650.25,0.0,33650.25,0,
2025-01-12,33650.25,0.0,33650.25,0,
2025-01-13,33650.25,0.0,33650.25,0,
2025-01-14,33650.25,0.0,33650.25,0,
2025-01-15,33650.25,0.0,33650.25,0,
2025-01-16,33650.25,0.0,33650.25,0,
2025-01-17,33650.25,0.0,33650.25,0,
2025-01-19,33650.25,0.0,33650.25,0,
2025-01-20,33650.25,0.0,33650.25,0,
2025-01-21,33650.25,0.0,33650.25,0,
2025-01-22,33650.25,0.0,33650.25,0,
2025-01-23,33650.25,45.25,33695.5,1,Long
2025-01-24,33650.25,-57.0,33593.25,1,Long
2025-01-26,33650.25,-299.5,33350.75,1,Long
2025-01-27,33650.25,-638.0,33012.25,1,Long
2025-01-28,33650.25,-420.0,33230.25,1,Long
2025-01-29,33650.25,-427.0,33223.25,1,Long
2025-01-30,33650.25,-267.0,33383.25,1,Long
2025-01-31,33650.25,-421.0,33229.25,2,Long
2025-02-02,33650.25,-1337.0,32313.25,2,Long
2025-02-03,33650.25,-420.5,33229.75,2,Long
2025-02-04,33650.25,-429.0,33221.25,2,Long
2025-02-05,33650.25,-16.0,33634.25,2,Long
2025-02-06,33650.25,144.5,33794.75,2,Long
2025-02-07,33650.25,-412.5,33237.75,2,Long
2025-02-09,33650.25,-270.5,33379.75,2,Long
2025-02-10,33650.25,27.0,33677.25,2,Long
2025-02-11,33650.25,58.5,33708.75,2,Long
2025-02-12,33650.25,213.0,33863.25,2,Long
2025-02-13,33650.25,605.5,34255.75,2,Long
2025-02-14,33650.25,847.75,34498.0,3,Long
2025-02-16,33650.25,873.25,34523.5,3,Long
2025-02-17,33650.25,900.25,34550.5,3,Long
2025-02-18,33650.25,990.25,34640.5,3,Long
2025-02-19,33650.25,891.25,34541.5,3,Long
2025-02-20,33650.25,723.25,34373.5,3,Long
2025-02-21,33650.25,-782.75,32867.5,3,Long
2025-02-23,33650.25,-487.25,33163.0,3,Long
2025-02-24,33650.25,-1605.5,32044.75,3,Long
2025-02-25,33650.25,-2084.75,31565.5,3,Long
2025-02-26,31564.75,0.0,31564.75,0,
2025-02-27,31564.75,0.0,31564.75,0,
2025-02-28,31564.75,0.0,31564.75,0,
2025-03-02,31564.75,0.0,31564.75,0,
2025-03-03,31564.75,0.0,31564.75,0,
2025-03-04,31564.75,0.0,31564.75,0,
2025-03-05,31564.75,0.0,31564.75,0,
2025-03-06,31564.75,0.0,31564.75,0,
2025-03-07,31564.75,0.0,31564.75,0,
2025-03-09,31564.75,0.0,31564.75,0,
2025-03-10,31564.75,0.0,31564.75,0,
2025-03-11,31564.75,0.0,31564.75,0,
2025-03-12,31564.75,0.0,31564.75,0,
2025-03-13,31564.75,0.0,31564.75,0,
2025-03-14,31564.75,0.0,31564.75,0,
2025-03-16,31564.75,0.0,31564.75,0,
2025-03-17,31564.75,0.0,31564.75,0,
2025-03-18,31564.75,0.0,31564.75,0,
2025-03-19,31564.75,0.0,31564.75,0,
2025-03-20,31564.75,0.0,31564.75,0,
2025-03-21,31564.75,0.0,31564.75,0,
2025-03-23,31564.75,0.0,31564.75,0,
2025-03-24,31564.75,0.0,31564.75,0,
2025-03-25,31564.75,0.0,31564.75,0,
2025-03-26,31564.75,0.0,31564.75,0,
2025-03-27,31564.75,0.0,31564.75,0,
2025-03-28,31564.75,0.0,31564.75,0,
2025-03-30,31564.75,0.0,31564.75,0,
2025-03-31,31564.75,0.0,31564.75,0,
2025-04-01,31564.75,0.0,31564.75,0,
2025-04-02,31564.75,0.0,31564.75,0,
2025-04-03,31564.75,0.0,31564.75,0,
2025-04-04,31564.75,0.0,31564.75,0,
2025-04-06,31564.75,0.0,31564.75,0,
2025-04-07,31564.75,0.0,31564.75,0,
2025-04-08,31564.75,0.0,31564.75,0,
2025-04-09,31564.75,0.0,31564.75,0,
2025-04-10,31564.75,-956.0,30608.75,1,Long
2025-04-11,31564.75,-493.75,31071.0,1,Long
2025-04-13,31564.75,-299.75,31265.0,1,Long
2025-04-14,31564.75,-462.5,31102.25,1,Long
2025-04-15,31564.75,-584.5,30980.25,1,Long
2025-04-16,31564.75,-910.25,30654.5,1,Long
2025-04-17,31564.75,-882.75,30682.0,1,Long
2025-04-20,31564.75,-998.5,30566.25,1,Long
2025-04-21,31564.75,-1309.5,30255.25,1,Long
2025-04-22,31564.75,-551.5,31013.25,1,Long
2025-04-23,31564.75,-473.25,31091.5,1,Long
2025-04-24,31564.75,99.75,31664.5,1,Long
2025-04-25,31564.75,322.5,31887.25,2,Long
2025-04-27,31564.75,121.5,31686.25,2,Long
2025-04-28,31564.75,270.0,31834.75,2,Long
2025-04-29,31564.75,339.5,31904.25,2,Long
2025-04-30,31564.75,1047.0,32611.75,2,Long
2025-05-01,31564.75,793.5,32358.25,2,Long
2025-05-02,31564.75,1614.0,33178.75,2,Long
2025-05-04,31564.75,1383.5,32948.25,2,Long
2025-05-05,31564.75,1230.0,32794.75,2,Long
2025-05-06,31564.75,1348.0,32912.75,2,Long
2025-05-07,31564.75,1117.5,32682.25,2,Long
2025-05-08,31564.75,1491.5,33056.25,2,Long
2025-05-09,31564.75,1510.0,33074.75,3,Long
2025-05-11,31564.75,2429.5,33994.25,3,Long
2025-05-12,31564.75,3796.0,35360.75,3,Long
2025-05-13,31564.75,4947.25,36512.0,3,Long
2025-05-14,31564.75,5197.0,36761.75,3,Long
2025-05-15,31564.75,5314.75,36879.5,3,Long
2025-05-16,31564.75,5283.25,36848.0,3,Long
2025-05-18,31564.75,5215.0,36779.75,3,Long
2025-05-19,31564.75,5689.75,37254.5,3,Long
2025-05-20,31564.75,5365.75,36930.5,3,Long
2025-05-21,31564.75,4512.25,36077.0,3,Long
2025-05-22,31564.75,4606.75,36171.5,3,Long
2025-05-23,31564.75,3867.75,35432.5,4,Long
2025-05-25,31564.75,4809.75,36374.5,4,Long
2025-05-26,31564.75,4998.75,36563.5,4,Long
2025-05-27,31564.75,5936.75,37501.5,4,Long
2025-05-28,31564.75,7118.75,38683.5,4,Long
2025-05-29,31564.75,5322.75,36887.5,4,Long
2025-05-30,31564.75,5530.75,37095.5,4,Long
2025-06-01,31564.75,5268.75,36833.5,4,Long
2025-06-02,31564.75,6033.75,37598.5,4,Long
2025-06-03,31564.75,6875.75,38440.5,4,Long
2025-06-04,31564.75,7019.75,38584.5,4,Long
2025-06-05,31564.75,6238.75,37803.5,4,Long
2025-06-06,31564.75,7303.5,38868.25,5,Long
2025-06-08,31564.75,7063.5,38628.25,5,Long
2025-06-09,31564.75,7414.75,38979.5,5,Long
2025-06-10,31564.75,8028.5,39593.25,5,Long
2025-06-11,31564.75,7447.25,39012.0,5,Long
2025-06-12,31564.75,7174.75,38739.5,5,Long
2025-06-13,31564.75,6524.75,38089.5,5,Long
2025-06-15,31564.75,6691.0,38255.75,5,Long
2025-06-16,31564.75,8333.5,39898.25,5,Long
2025-06-17,31564.75,7782.25,39347.0,5,Long
2025-06-18,31564.75,7998.5,39563.25,5,Long
2025-06-19,31564.75,7689.75,39254.5,5,Long
2025-06-20,31564.75,7624.75,39189.5,5,Long
2025-06-22,31564.75,7058.5,38623.25,5,Long
2025-06-23,31564.75,9436.0,41000.75,5,Long
2025-06-24,31564.75,10376.0,41940.75,5,Long
2025-06-25,31564.75,10579.75,42144.5,5,Long
2025-06-26,31564.75,11643.5,43208.25,5,Long
2025-06-27,31564.75,11956.0,43520.75,5,Long
2025-06-29,31564.75,12341.0,43905.75,5,Long
2025-06-30,31564.75,12662.25,44227.0,5,Long
2025-07-01,31564.75,11796.0,43360.75,5,Long
2025-07-02,31564.75,12497.25,44062.0,5,Long
2025-07-03,31564.75,13428.5,44993.25,5,Long
2025-07-04,31564.75,12777.25,44342.0,5,Long
2025-07-06,31564.75,13173.5,44738.25,5,Long
2025-07-07,31564.75,12624.75,44189.5,5,Long
2025-07-08,31564.75,12761.0,44325.75,5,Long
2025-07-09,31564.75,13429.75,44994.5,5,Long
2025-07-10,31564.75,13477.25,45042.0,5,Long
2025-07-11,31564.75,12941.0,44505.75,5,Long
2025-07-13,31564.75,12587.25,44152.0,5,Long
2025-07-14,31564.75,13312.25,44877.0,5,Long
2025-07-15,31564.75,13326.0,44890.75,5,Long
2025-07-16,31564.75,13457.25,45022.0,5,Long
2025-07-17,31564.75,14656.0,46220.75,5,Long
2025-07-18,31564.75,14398.5,45963.25,5,Long
2025-07-20,31564.75,14554.75,46119.5,5,Long
2025-07-21,31564.75,14987.25,46552.0,5,Long
2025-07-22,31564.75,14563.5,46128.25,5,Long
2025-07-23,31564.75,15259.75,46824.5,5,Long
2025-07-24,31564.75,15286.0,46850.75,5,Long
2025-07-25,31564.75,15491.0,47055.75,5,Long
2025-07-27,31564.75,15926.0,47490.75,5,Long
2025-07-28,31564.75,15897.25,47462.0,5,Long
2025-07-29,31564.75,15628.5,47193.25,5,Long
2025-07-30,31564.75,16879.75,48444.5,5,Long
2025-07-31,31564.75,14742.25,46307.0,5,Long
2025-08-01,31564.75,12599.75,44164.5,5,Long
2025-08-03,44072.0,0.0,44072.0,0,
2025-08-04,44072.0,0.0,44072.0,0,
2025-08-05,44072.0,0.0,44072.0,0,
2025-08-06,44072.0,0.0,44072.0,0,
2025-08-07,44072.0,0.0,44072.0,0,
2025-08-08,44072.0,0.0,44072.0,0,
2025-08-10,44072.0,-59.5,44012.5,1,Long
2025-08-11,44072.0,-130.5,43941.5,1,Long
2025-08-12,44072.0,193.25,44265.25,1,Long
2025-08-13,44072.0,182.0,44254.0,1,Long
2025-08-14,44072.0,121.5,44193.5,1,Long
2025-08-15,44072.0,29.25,44101.25,1,Long
2025-08-17,44072.0,83.75,44155.75,1,Long
2025-08-18,44072.0,37.5,44109.5,1,Long
2025-08-19,44072.0,-345.25,43726.75,1,Long
2025-08-20,44072.0,-447.75,43624.25,1,Long
2025-08-21,44072.0,-519.25,43552.75,1,Long
2025-08-22,44072.0,-166.5,43905.5,2,Long
2025-08-24,44072.0,-183.0,43889.0,2,Long
2025-08-25,44072.0,-339.0,43733.0,2,Long
2025-08-26,44072.0,-104.0,43968.0,2,Long
2025-08-27,44072.0,-315.5,43756.5,2,Long
2025-08-28,44072.0,164.5,44236.5,2,Long
2025-08-29,44072.0,-423.0,43649.0,2,Long
2025-08-31,44072.0,-256.0,43816.0,2,Long
2025-09-01,44072.0,-441.0,43631.0,2,Long
2025-09-02,44072.0,-663.0,43409.0,2,Long
2025-09-03,44072.0,-456.0,43616.0,2,Long
2025-09-04,44072.0,80.5,44152.5,2,Long
2025-09-05,44072.0,21.25,44093.25,3,Long
2025-09-07,44072.0,335.5,44407.5,3,Long
2025-09-08,44072.0,424.0,44496.0,3,Long
2025-09-09,44072.0,659.5,44731.5,3,Long
2025-09-10,44072.0,704.5,44776.5,3,Long
2025-09-11,44072.0,1060.0,45132.0,3,Long
2025-09-12,44072.0,1345.75,45417.75,3,Long
2025-09-14,44072.0,1335.25,45407.25,3,Long
2025-09-15,44072.0,1917.25,45989.25,3,Long
2025-09-16,44072.0,2631.25,46703.25,3,Long
2025-09-17,44072.0,2754.25,46826.25,3,Long
2025-09-18,44072.0,3222.25,47294.25,3,Long
2025-09-19,44072.0,3603.25,47675.25,4,Long
2025-09-21,44072.0,3563.25,47635.25,4,Long
2025-09-22,44072.0,4148.25,48220.25,4,Long
2025-09-23,44072.0,3521.25,47593.25,4,Long
2025-09-24,44072.0,3181.25,47253.25,4,Long
2025-09-25,44072.0,2625.25,46697.25,4,Long
2025-09-26,44072.0,3068.25,47140.25,4,Long
2025-09-28,44072.0,3247.25,47319.25,4,Long
2025-09-29,44072.0,3454.25,47526.25,4,Long
2025-09-30,44072.0,3479.25,47551.25,4,Long
2025-10-01,44072.0,4248.25,48320.25,4,Long
2025-10-02,44072.0,4655.25,48727.25,4,Long
2025-10-03,44072.0,4047.0,48119.0,5,Long
2025-10-05,44072.0,4473.25,48545.25,5,Long
2025-10-06,44072.0,4849.5,48921.5,5,Long
2025-10-07,44072.0,4307.0,48379.0,5,Long
2025-10-08,44072.0,6034.5,50106.5,5,Long
2025-10-09,44072.0,5814.5,49886.5,5,Long
2025-10-10,44072.0,80.75,44152.75,5,Long
2025-10-12,45621.5,0.0,45621.5,0,
2025-10-13,45621.5,0.0,45621.5,0,
2025-10-14,45621.5,0.0,45621.5,0,
2025-10-15,45621.5,0.0,45621.5,0,
2025-10-16,45621.5,0.0,45621.5,0,
2025-10-17,45621.5,0.0,45621.5,0,
2025-10-19,45621.5,0.0,45621.5,0,
2025-10-20,45621.5,0.0,45621.5,0,
2025-10-21,45621.5,0.0,45621.5,0,
2025-10-22,45621.5,0.0,45621.5,0,
2025-10-23,45621.5,0.0,45621.5,0,
2025-10-24,45621.5,0.0,45621.5,0,
2025-10-26,45621.5,0.0,45621.5,0,
2025-10-27,45621.5,277.75,45899.25,1,Long
2025-10-28,45621.5,467.0,46088.5,1,Long
2025-10-29,45621.5,518.75,46140.25,1,Long
2025-10-30,45621.5,453.5,46075.0,1,Long
2025-10-31,45621.5,266.75,45888.25,1,Long
2025-11-02,45621.5,363.75,45985.25,1,Long
2025-11-03,45621.5,352.0,45973.5,1,Long
2025-11-04,45621.5,-213.25,45408.25,1,Long
2025-11-05,45621.5,56.0,45677.5,1,Long
2025-11-06,45621.5,-400.25,45221.25,1,Long
2025-11-07,45621.5,-489.75,45131.75,1,Long
2025-11-09,45621.5,-381.0,45240.5,1,Long
2025-11-10,45621.5,25.75,45647.25,1,Long
2025-11-11,45621.5,-66.75,45554.75,1,Long
2025-11-12,45621.5,-176.5,45445.0,1,Long
2025-11-13,45621.5,-609.0,45012.5,1,Long
2025-11-14,45012.0,0.0,45012.0,0,
2025-11-16,45012.0,0.0,45012.0,0,
2025-11-17,45012.0,0.0,45012.0,0,
2025-11-18,45012.0,0.0,45012.0,0,
2025-11-19,45012.0,0.0,45012.0,0,
2025-11-20,45012.0,0.0,45012.0,0,
2025-11-21,45012.0,0.0,45012.0,0,
2025-11-23,45012.0,0.0,45012.0,0,
2025-11-24,45012.0,0.0,45012.0,0,
2025-11-25,45012.0,0.0,45012.0,0,
2025-11-26,45012.0,0.0,45012.0,0,
2025-11-27,45012.0,0.0,45012.0,0,
2025-11-28,45012.0,0.0,45012.0,0,
2025-11-30,45012.0,0.0,45012.0,0,
2025-12-01,45012.0,0.0,45012.0,0,
2025-12-02,45012.0,0.0,45012.0,0,
2025-12-03,45012.0,0.0,45012.0,0,
2025-12-04,45012.0,0.0,45012.0,0,
2025-12-05,45012.0,0.0,45012.0,0,
2025-12-07,45012.0,0.0,45012.0,0,
2025-12-08,45012.0,0.0,45012.0,0,
2025-12-09,45012.0,0.0,45012.0,0,
2025-12-10,45012.0,0.0,45012.0,0,
2025-12-11,45012.0,0.0,45012.0,0,
2025-12-12,45012.0,0.0,45012.0,0,
2025-12-14,45012.0,0.0,45012.0,0,
2025-12-15,45012.0,0.0,45012.0,0,
2025-12-16,45012.0,0.0,45012.0,0,
2025-12-17,45012.0,0.0,45012.0,0,
2025-12-18,45012.0,0.0,45012.0,0,
2025-12-19,45012.0,0.0,45012.0,0,
2025-12-21,45012.0,0.0,45012.0,0,
2025-12-22,45012.0,0.0,45012.0,0,
2025-12-23,45012.0,0.0,45012.0,0,
2025-12-24,45012.0,0.0,45012.0,0,
2025-12-25,45012.0,17.25,45029.25,1,Long
2025-12-26,45012.0,-13.0,44999.0,1,Long
2025-12-28,45012.0,0.0,45012.0,1,Long
2025-12-29,45012.0,-163.0,44849.0,1,Long
2025-12-30,45012.0,-213.25,44798.75,1,Long
2025-12-31,45012.0,-435.5,44576.5,1,Long
2026-01-01,45012.0,-373.0,44639.0,1,Long
2026-01-02,45012.0,-462.0,44550.0,2,Long
2026-01-04,45012.0,-334.0,44678.0,2,Long
2026-01-05,45012.0,-117.5,44894.5,2,Long
2026-01-06,45012.0,400.5,45412.5,2,Long
2026-01-07,45012.0,397.5,45409.5,2,Long
2026-01-08,45012.0,102.0,45114.0,2,Long
2026-01-09,45012.0,613.5,45625.5,2,Long
2026-01-11,45012.0,538.5,45550.5,2,Long
2026-01-12,45012.0,542.0,45554.0,2,Long
2026-01-13,45012.0,532.5,45544.5,2,Long
2026-01-14,45012.0,-38.5,44973.5,2,Long
2026-01-15,45012.0,233.5,45245.5,2,Long
2026-01-16,45012.0,93.0,45105.0,3,Long
2026-01-18,45012.0,-551.25,44460.75,3,Long
2026-01-19,45012.0,-816.75,44195.25,3,Long
2026-01-20,45012.0,-1603.5,43408.5,3,Long
2026-01-21,43410.0,0.0,43410.0,0,
2026-01-22,43410.0,0.0,43410.0,0,
2026-01-23,43410.0,0.0,43410.0,0,
2026-01-25,43410.0,0.0,43410.0,0,
2026-01-26,43410.0,0.0,43410.0,0,
2026-01-27,43410.0,0.0,43410.0,0,
2026-01-28,43410.0,32.0,43442.0,1,Long
2026-01-29,43410.0,-166.0,43244.0,1,Long
2026-01-30,43410.0,-499.25,42910.75,1,Long
2026-02-01,43410.0,-604.5,42805.5,1,Long
2026-02-02,43410.0,-190.0,43220.0,1,Long
2026-02-03,43410.0,-710.25,42699.75,1,Long
2026-02-04,43410.0,-1070.25,42339.75,1,Long
2026-02-05,42340.5,0.0,42340.5,0,
2026-02-06,42340.5,0.0,42340.5,0,
2026-02-08,42340.5,0.0,42340.5,0,
2026-02-09,42340.5,0.0,42340.5,0,
2026-02-10,42340.5,0.0,42340.5,0,
2026-02-11,42340.5,0.0,42340.5,0,
2026-02-12,42340.5,0.0,42340.5,0,
2026-02-13,42340.5,0.0,42340.5,0,
2026-02-15,42340.5,0.0,42340.5,0,
2026-02-16,42340.5,0.0,42340.5,0,
2026-02-17,42340.5,0.0,42340.5,0,
2026-02-18,42340.5,0.0,42340.5,0,
2026-02-19,42340.5,0.0,42340.5,0,
2026-02-20,42340.5,0.0,42340.5,0,
2026-02-22,42340.5,0.0,42340.5,0,
2026-02-23,42340.5,0.0,42340.5,0,
2026-02-24,42340.5,0.0,42340.5,0,
2026-02-25,42340.5,0.0,42340.5,0,
2026-02-26,42340.5,0.0,42340.5,0,
2026-02-27,42340.5,0.0,42340.5,0,
2026-03-01,42340.5,0.0,42340.5,0,
2026-03-02,42340.5,0.0,42340.5,0,
2026-03-03,42340.5,0.0,42340.5,0,
2026-03-04,42340.5,0.0,42340.5,0,
2026-03-05,42340.5,0.0,42340.5,0,
2026-03-06,42340.5,0.0,42340.5,0,
2026-03-08,42340.5,0.0,42340.5,0,
