date,realized_points,open_unrealized_points,total_equity_points,open_units,direction
2019-05-05,0.0,0.0,0.0,0,
2019-05-06,0.0,0.0,0.0,0,
2019-05-07,0.0,0.0,0.0,0,
2019-05-08,0.0,0.0,0.0,0,
2019-05-09,0.0,0.0,0.0,0,
2019-05-10,0.0,0.0,0.0,0,
2019-05-12,0.0,0.0,0.0,0,
2019-05-13,0.0,0.0,0.0,0,
2019-05-14,0.0,0.0,0.0,0,
2019-05-15,0.0,0.0,0.0,0,
2019-05-16,0.0,0.0,0.0,0,
2019-05-17,0.0,0.0,0.0,0,
2019-05-19,0.0,0.0,0.0,0,
2019-05-20,0.0,0.0,0.0,0,
2019-05-21,0.0,0.0,0.0,0,
2019-05-22,0.0,0.0,0.0,0,
2019-05-23,0.0,0.0,0.0,0,
2019-05-24,0.0,0.0,0.0,0,
2019-05-26,0.0,0.0,0.0,0,
2019-05-27,0.0,0.0,0.0,0,
2019-05-28,0.0,0.0,0.0,0,
2019-05-29,0.0,0.0,0.0,0,
2019-05-30,0.0,0.0,0.0,0,
2019-05-31,0.0,0.0,0.0,0,
2019-06-02,0.0,0.0,0.0,0,
2019-06-03,0.0,0.0,0.0,0,
2019-06-04,0.0,0.0,0.0,0,
2019-06-05,0.0,492.0,492.0,3,Long
2019-06-06,0.0,1131.0,1131.0,3,Long
2019-06-07,0.0,1896.0,1896.0,3,Long
2019-06-09,0.0,2007.0,2007.0,3,Long
2019-06-10,0.0,2190.0,2190.0,3,Long
2019-06-11,0.0,1953.0,1953.0,3,Long
2019-06-12,0.0,1707.0,1707.0,3,Long
2019-06-13,0.0,2259.0,2259.0,3,Long
2019-06-14,0.0,2191.0,2191.0,4,Long
2019-06-16,0.0,2443.0,2443.0,4,Long
2019-06-17,0.0,2191.0,2191.0,4,Long
2019-06-18,0.0,3735.0,3735.0,4,Long
2019-06-19,0.0,4127.0,4127.0,4,Long
2019-06-20,0.0,4519.0,4519.0,4,Long
2019-06-21,0.0,4375.0,4375.0,4,Long
2019-06-23,0.0,4735.0,4735.0,4,Long
2019-06-24,0.0,4491.0,4491.0,4,Long
2019-06-25,0.0,3907.0,3907.0,4,Long
2019-06-26,0.0,4095.0,4095.0,4,Long
2019-06-27,0.0,3987.0,3987.0,4,Long
2019-06-28,0.0,4356.0,4356.0,5,Long
2019-06-30,0.0,5131.0,5131.0,5,Long
2019-07-01,0.0,4731.0,4731.0,5,Long
2019-07-02,0.0,4921.0,4921.0,5,Long
2019-07-03,0.0,5876.0,5876.0,5,Long
2019-07-04,0.0,6051.0,6051.0,5,Long
2019-07-05,0.0,5606.0,5606.0,5,Long
2019-07-07,0.0,5246.0,5246.0,5,Long
2019-07-08,0.0,4546.0,4546.0,5,Long
2019-07-09,0.0,4956.0,4956.0,5,Long
2019-07-10,0.0,5681.0,5681.0,5,Long
2019-07-11,0.0,6911.0,6911.0,5,Long
2019-07-12,0.0,7673.0,7673.0,6,Long
2019-07-14,0.0,7823.0,7823.0,6,Long
2019-07-15,0.0,7925.0,7925.0,6,Long
2019-07-16,0.0,7817.0,7817.0,6,Long
2019-07-17,0.0,6707.0,6707.0,6,Long
2019-07-18,0.0,7655.0,7655.0,6,Long
2019-07-19,0.0,6269.0,6269.0,6,Long
2019-07-21,0.0,6599.0,6599.0,6,Long
2019-07-22,0.0,7055.0,7055.0,6,Long
2019-07-23,0.0,7817.0,7817.0,6,Long
2019-07-24,0.0,7481.0,7481.0,6,Long
2019-07-25,0.0,6677.0,6677.0,6,Long
2019-07-26,0.0,6612.0,6612.0,7,Long
2019-07-28,0.0,6486.0,6486.0,7,Long
2019-07-29,0.0,7235.0,7235.0,7,Long
2019-07-30,0.0,7284.0,7284.0,7,Long
2019-07-31,0.0,4778.0,4778.0,7,Long
2019-08-01,4764.0,0.0,4764.0,0,
2019-08-02,4764.0,0.0,4764.0,0,
2019-08-04,4764.0,0.0,4764.0,0,
2019-08-05,4764.0,0.0,4764.0,0,
2019-08-06,4764.0,0.0,4764.0,0,
2019-08-07,4764.0,0.0,4764.0,0,
2019-08-08,4764.0,0.0,4764.0,0,
2019-08-09,4764.0,0.0,4764.0,0,
2019-08-11,4764.0,0.0,4764.0,0,
2019-08-12,4764.0,0.0,4764.0,0,
2019-08-13,4764.0,0.0,4764.0,0,
2019-08-14,4764.0,0.0,4764.0,0,
2019-08-15,4764.0,0.0,4764.0,0,
2019-08-16,4764.0,0.0,4764.0,0,
2019-08-18,4764.0,0.0,4764.0,0,
2019-08-19,4764.0,0.0,4764.0,0,
2019-08-20,4764.0,0.0,4764.0,0,
2019-08-21,4764.0,0.0,4764.0,0,
2019-08-22,4764.0,0.0,4764.0,0,
2019-08-23,4764.0,0.0,4764.0,0,
2019-08-25,4764.0,0.0,4764.0,0,
2019-08-26,4764.0,0.0,4764.0,0,
2019-08-27,4764.0,0.0,4764.0,0,
2019-08-28,4764.0,0.0,4764.0,0,
2019-08-29,4764.0,0.0,4764.0,0,
2019-08-30,4764.0,0.0,4764.0,0,
2019-09-01,4764.0,0.0,4764.0,0,
2019-09-02,4764.0,0.0,4764.0,0,
2019-09-03,4764.0,0.0,4764.0,0,
2019-09-04,4764.0,1386.0,6150.0,3,Long
2019-09-05,4764.0,1764.0,6528.0,3,Long
2019-09-06,4764.0,1968.0,6732.0,3,Long
2019-09-08,4764.0,1995.0,6759.0,3,Long
2019-09-09,4764.0,1929.0,6693.0,3,Long
2019-09-10,4764.0,2151.0,6915.0,3,Long
2019-09-11,4764.0,3300.0,8064.0,3,Long
2019-09-12,4764.0,3144.0,7908.0,3,Long
2019-09-13,4764.0,3102.0,7866.0,4,Long
2019-09-15,4764.0,2562.0,7326.0,4,Long
2019-09-16,4764.0,2466.0,7230.0,4,Long
2019-09-17,4764.0,2502.0,7266.0,4,Long
2019-09-18,4764.0,2490.0,7254.0,4,Long
2019-09-19,4764.0,2598.0,7362.0,4,Long
2019-09-20,4764.0,1766.0,6530.0,4,Long
2019-09-22,4764.0,2170.0,6934.0,4,Long
2019-09-23,4764.0,2322.0,7086.0,4,Long
2019-09-24,4764.0,1722.0,6486.0,4,Long
2019-09-25,4764.0,1958.0,6722.0,4,Long
2019-09-26,4764.0,1590.0,6354.0,4,Long
2019-09-27,4764.0,1634.0,6398.0,5,Long
2019-09-29,4764.0,1944.0,6708.0,5,Long
2019-09-30,4764.0,2409.0,7173.0,5,Long
2019-10-01,4764.0,354.0,5118.0,5,Long
2019-10-02,5118.0,0.0,5118.0,0,
2019-10-03,5118.0,0.0,5118.0,0,
2019-10-04,5118.0,0.0,5118.0,0,
2019-10-06,5118.0,0.0,5118.0,0,
2019-10-07,5118.0,0.0,5118.0,0,
2019-10-08,5118.0,0.0,5118.0,0,
2019-10-09,5118.0,0.0,5118.0,0,
2019-10-10,5118.0,0.0,5118.0,0,
2019-10-11,5118.0,0.0,5118.0,0,
2019-10-13,5118.0,0.0,5118.0,0,
2019-10-14,5118.0,0.0,5118.0,0,
2019-10-15,5118.0,381.0,5499.0,3,Long
2019-10-16,5118.0,375.0,5493.0,3,Long
2019-10-17,5118.0,507.0,5625.0,3,Long
2019-10-18,5118.0,-99.0,5019.0,3,Long
2019-10-20,4908.0,0.0,4908.0,0,
2019-10-21,4908.0,87.0,4995.0,3,Long
2019-10-22,4908.0,-348.0,4560.0,3,Long
2019-10-23,4572.0,0.0,4572.0,0,
2019-10-24,4572.0,-114.0,4458.0,3,Long
2019-10-25,4464.0,0.0,4464.0,0,
2019-10-27,4464.0,78.0,4542.0,3,Long
2019-10-28,4464.0,354.0,4818.0,3,Long
2019-10-29,4464.0,270.0,4734.0,3,Long
2019-10-30,4464.0,672.0,5136.0,3,Long
2019-10-31,4464.0,321.0,4785.0,3,Long
2019-11-01,4464.0,1008.0,5472.0,3,Long
2019-11-03,4464.0,1176.0,5640.0,3,Long
2019-11-04,4464.0,1512.0,5976.0,3,Long
2019-11-05,4464.0,1440.0,5904.0,3,Long
2019-11-06,4464.0,1446.0,5910.0,3,Long
2019-11-07,4464.0,2055.0,6519.0,3,Long
2019-11-08,4464.0,2172.0,6636.0,4,Long
2019-11-10,4464.0,1808.0,6272.0,4,Long
2019-11-11,4464.0,2136.0,6600.0,4,Long
2019-11-12,4464.0,1944.0,6408.0,4,Long
2019-11-13,4464.0,2560.0,7024.0,4,Long
2019-11-14,4464.0,2956.0,7420.0,4,Long
2019-11-15,4464.0,3436.0,7900.0,4,Long
2019-11-17,4464.0,3384.0,7848.0,4,Long
2019-11-18,4464.0,3724.0,8188.0,4,Long
2019-11-19,4464.0,3024.0,7488.0,4,Long
2019-11-20,4464.0,2528.0,6992.0,4,Long
2019-11-21,4464.0,2728.0,7192.0,4,Long
2019-11-22,4464.0,3072.0,7536.0,5,Long
2019-11-24,4464.0,3417.0,7881.0,5,Long
2019-11-25,4464.0,4082.0,8546.0,5,Long
2019-11-26,4464.0,4437.0,8901.0,5,Long
2019-11-27,4464.0,4122.0,8586.0,5,Long
2019-11-28,4464.0,4097.0,8561.0,5,Long
2019-11-29,4464.0,4107.0,8571.0,5,Long
2019-12-01,4464.0,4557.0,9021.0,5,Long
2019-12-02,4464.0,2932.0,7396.0,5,Long
2019-12-03,7391.0,0.0,7391.0,0,
2019-12-04,7391.0,0.0,7391.0,0,
2019-12-05,7391.0,0.0,7391.0,0,
2019-12-06,7391.0,0.0,7391.0,0,
2019-12-08,7391.0,0.0,7391.0,0,
2019-12-09,7391.0,0.0,7391.0,0,
2019-12-10,7391.0,0.0,7391.0,0,
2019-12-11,7391.0,0.0,7391.0,0,
2019-12-12,7391.0,912.0,8303.0,3,Long
2019-12-13,7391.0,684.0,8075.0,3,Long
2019-12-15,7391.0,705.0,8096.0,3,Long
2019-12-16,7391.0,921.0,8312.0,3,Long
2019-12-17,7391.0,1005.0,8396.0,3,Long
2019-12-18,7391.0,948.0,8339.0,3,Long
2019-12-19,7391.0,1356.0,8747.0,3,Long
2019-12-20,7391.0,1562.0,8953.0,4,Long
2019-12-22,7391.0,1662.0,9053.0,4,Long
2019-12-23,7391.0,1918.0,9309.0,4,Long
2019-12-24,7391.0,1710.0,9101.0,4,Long
2019-12-25,7391.0,1842.0,9233.0,4,Long
2019-12-26,7391.0,2366.0,9757.0,4,Long
2019-12-27,7391.0,2090.0,9481.0,4,Long
2019-12-29,7391.0,2290.0,9681.0,4,Long
2019-12-30,7391.0,1566.0,8957.0,4,Long
2019-12-31,7391.0,1890.0,9281.0,4,Long
2020-01-01,7391.0,2062.0,9453.0,4,Long
2020-01-02,7391.0,2346.0,9737.0,4,Long
2020-01-03,7391.0,2111.0,9502.0,5,Long
2020-01-05,7391.0,1716.0,9107.0,5,Long
2020-01-06,7391.0,2661.0,10052.0,5,Long
2020-01-07,7391.0,831.0,8222.0,5,Long
2020-01-08,7391.0,3071.0,10462.0,5,Long
2020-01-09,7391.0,4086.0,11477.0,5,Long
2020-01-10,7391.0,2931.0,10322.0,5,Long
2020-01-12,7391.0,3336.0,10727.0,5,Long
2020-01-13,7391.0,3446.0,10837.0,5,Long
2020-01-14,7391.0,3386.0,10777.0,5,Long
2020-01-15,7391.0,4406.0,11797.0,5,Long
2020-01-16,7391.0,5456.0,12847.0,5,Long
2020-01-17,7391.0,5430.0,12821.0,6,Long
2020-01-19,7391.0,5592.0,12983.0,6,Long
2020-01-20,7391.0,4878.0,12269.0,6,Long
2020-01-21,7391.0,5490.0,12881.0,6,Long
2020-01-22,7391.0,4380.0,11771.0,6,Long
2020-01-23,7391.0,4800.0,12191.0,6,Long
2020-01-24,7391.0,3234.0,10625.0,6,Long
2020-01-26,7391.0,1842.0,9233.0,6,Long
2020-01-27,9251.0,0.0,9251.0,0,
2020-01-28,9251.0,0.0,9251.0,0,
2020-01-29,9251.0,0.0,9251.0,0,
2020-01-30,9251.0,0.0,9251.0,0,
2020-01-31,9251.0,0.0,9251.0,0,
2020-02-02,9251.0,0.0,9251.0,0,
2020-02-03,9251.0,0.0,9251.0,0,
2020-02-04,9251.0,0.0,9251.0,0,
2020-02-05,9251.0,2025.0,11276.0,3,Long
2020-02-06,9251.0,1557.0,10808.0,3,Long
2020-02-07,9251.0,816.0,10067.0,3,Long
2020-02-09,9251.0,822.0,10073.0,3,Long
2020-02-10,9251.0,1698.0,10949.0,3,Long
2020-02-11,9251.0,1593.0,10844.0,3,Long
2020-02-12,9251.0,1956.0,11207.0,3,Long
2020-02-13,9251.0,2166.0,11417.0,3,Long
2020-02-14,9251.0,1937.0,11188.0,4,Long
2020-02-16,9251.0,2097.0,11348.0,4,Long
2020-02-17,9251.0,1605.0,10856.0,4,Long
2020-02-18,9251.0,1557.0,10808.0,4,Long
2020-02-19,9251.0,1537.0,10788.0,4,Long
2020-02-20,9251.0,701.0,9952.0,4,Long
2020-02-21,9251.0,285.0,9536.0,4,Long
2020-02-23,9251.0,-1287.0,7964.0,4,Long
2020-02-24,7968.0,0.0,7968.0,0,
2020-02-25,7968.0,0.0,7968.0,0,
2020-02-26,7968.0,0.0,7968.0,0,
2020-02-27,7968.0,0.0,7968.0,0,
2020-03-01,7968.0,0.0,7968.0,0,
2020-03-02,7968.0,0.0,7968.0,0,
2020-03-03,7968.0,0.0,7968.0,0,
2020-03-04,7968.0,0.0,7968.0,0,
2020-03-05,7968.0,0.0,7968.0,0,
2020-03-06,7968.0,0.0,7968.0,0,
2020-03-08,7968.0,0.0,7968.0,0,
2020-03-09,7968.0,0.0,7968.0,0,
2020-03-10,7968.0,0.0,7968.0,0,
2020-03-11,7968.0,0.0,7968.0,0,
2020-03-12,7968.0,0.0,7968.0,0,
2020-03-13,7968.0,0.0,7968.0,0,
2020-03-15,7968.0,0.0,7968.0,0,
2020-03-16,7968.0,0.0,7968.0,0,
2020-03-17,7968.0,0.0,7968.0,0,
2020-03-18,7968.0,0.0,7968.0,0,
2020-03-19,7968.0,0.0,7968.0,0,
2020-03-20,7968.0,0.0,7968.0,0,
2020-03-22,7968.0,0.0,7968.0,0,
2020-03-23,7968.0,0.0,7968.0,0,
2020-03-24,7968.0,0.0,7968.0,0,
2020-03-25,7968.0,0.0,7968.0,0,
2020-03-26,7968.0,0.0,7968.0,0,
2020-03-27,7968.0,0.0,7968.0,0,
2020-03-29,7968.0,0.0,7968.0,0,
2020-03-30,7968.0,0.0,7968.0,0,
2020-03-31,7968.0,0.0,7968.0,0,
2020-04-01,7968.0,0.0,7968.0,0,
2020-04-02,7968.0,0.0,7968.0,0,
2020-04-03,7968.0,0.0,7968.0,0,
2020-04-05,7968.0,0.0,7968.0,0,
2020-04-06,7968.0,2073.0,10041.0,3,Long
2020-04-07,7968.0,2571.0,10539.0,3,Long
2020-04-08,7968.0,4875.0,12843.0,3,Long
2020-04-09,7968.0,6105.0,14073.0,3,Long
2020-04-12,7968.0,4947.0,12915.0,3,Long
2020-04-13,7968.0,5925.0,13893.0,3,Long
2020-04-14,7968.0,6333.0,14301.0,3,Long
2020-04-15,7968.0,4860.0,12828.0,3,Long
2020-04-16,7968.0,7782.0,15750.0,3,Long
2020-04-17,7968.0,7506.0,15474.0,3,Long
2020-04-19,7968.0,7497.0,15465.0,3,Long
2020-04-20,7968.0,4881.0,12849.0,3,Long
2020-04-21,7968.0,3957.0,11925.0,3,Long
2020-04-22,7968.0,4845.0,12813.0,3,Long
2020-04-23,7968.0,4803.0,12771.0,3,Long
2020-04-24,7968.0,5942.0,13910.0,4,Long
2020-04-26,7968.0,6546.0,14514.0,4,Long
2020-04-27,7968.0,7078.0,15046.0,4,Long
2020-04-28,7968.0,8394.0,16362.0,4,Long
2020-04-29,7968.0,10202.0,18170.0,4,Long
2020-04-30,7968.0,7094.0,15062.0,4,Long
2020-05-01,7968.0,5738.0,13706.0,4,Long
2020-05-03,7968.0,5302.0,13270.0,4,Long
2020-05-04,7968.0,6354.0,14322.0,4,Long
2020-05-05,7968.0,6486.0,14454.0,4,Long
2020-05-06,7968.0,5926.0,13894.0,4,Long
2020-05-07,7968.0,7898.0,15866.0,4,Long
2020-05-08,7968.0,8639.0,16607.0,5,Long
2020-05-10,7968.0,9349.0,17317.0,5,Long
2020-05-11,7968.0,6909.0,14877.0,5,Long
2020-05-12,7968.0,5204.0,13172.0,5,Long
2020-05-13,7968.0,3019.0,10987.0,5,Long
2020-05-14,7968.0,4849.0,12817.0,5,Long
2020-05-15,7968.0,5014.0,12982.0,5,Long
2020-05-17,7968.0,6094.0,14062.0,5,Long
2020-05-18,7968.0,9424.0,17392.0,5,Long
2020-05-19,7968.0,8704.0,16672.0,5,Long
2020-05-20,7968.0,9014.0,16982.0,5,Long
2020-05-21,7968.0,8264.0,16232.0,5,Long
2020-05-22,7968.0,9503.0,17471.0,6,Long
2020-05-24,7968.0,9785.0,17753.0,6,Long
2020-05-25,7968.0,11783.0,19751.0,6,Long
2020-05-26,7968.0,13757.0,21725.0,6,Long
2020-05-27,7968.0,16439.0,24407.0,6,Long
2020-05-28,7968.0,14753.0,22721.0,6,Long
2020-05-29,7968.0,15701.0,23669.0,6,Long
2020-05-31,7968.0,14837.0,22805.0,6,Long
2020-06-01,7968.0,14855.0,22823.0,6,Long
2020-06-02,7968.0,17531.0,25499.0,6,Long
2020-06-03,7968.0,19913.0,27881.0,6,Long
2020-06-04,7968.0,21125.0,29093.0,6,Long
2020-06-05,7968.0,25086.0,33054.0,7,Long
2020-06-07,7968.0,25618.0,33586.0,7,Long
2020-06-08,7968.0,28327.0,36295.0,7,Long
2020-06-09,7968.0,27648.0,35616.0,7,Long
2020-06-10,7968.0,22104.0,30072.0,7,Long
2020-06-11,30065.0,0.0,30065.0,0,
2020-06-12,30065.0,0.0,30065.0,0,
2020-06-14,30065.0,0.0,30065.0,0,
2020-06-15,30065.0,0.0,30065.0,0,
2020-06-16,30065.0,0.0,30065.0,0,
2020-06-17,30065.0,0.0,30065.0,0,
2020-06-18,30065.0,0.0,30065.0,0,
2020-06-19,30065.0,0.0,30065.0,0,
2020-06-21,30065.0,0.0,30065.0,0,
2020-06-22,30065.0,0.0,30065.0,0,
2020-06-23,30065.0,0.0,30065.0,0,
2020-06-24,30065.0,0.0,30065.0,0,
2020-06-25,30065.0,0.0,30065.0,0,
2020-06-26,30065.0,0.0,30065.0,0,
2020-06-28,30065.0,0.0,30065.0,0,
2020-06-29,30065.0,0.0,30065.0,0,
2020-06-30,30065.0,0.0,30065.0,0,
2020-07-01,30065.0,0.0,30065.0,0,
2020-07-02,30065.0,0.0,30065.0,0,
2020-07-03,30065.0,0.0,30065.0,0,
2020-07-05,30065.0,0.0,30065.0,0,
2020-07-06,30065.0,0.0,30065.0,0,
2020-07-07,30065.0,0.0,30065.0,0,
2020-07-08,30065.0,0.0,30065.0,0,
2020-07-09,30065.0,0.0,30065.0,0,
2020-07-10,30065.0,0.0,30065.0,0,
2020-07-12,30065.0,0.0,30065.0,0,
2020-07-13,30065.0,0.0,30065.0,0,
2020-07-14,30065.0,0.0,30065.0,0,
2020-07-15,30065.0,0.0,30065.0,0,
2020-07-16,30065.0,0.0,30065.0,0,
2020-07-17,30065.0,0.0,30065.0,0,
2020-07-19,30065.0,0.0,30065.0,0,
2020-07-20,30065.0,0.0,30065.0,0,
2020-07-21,30065.0,0.0,30065.0,0,
2020-07-22,30065.0,0.0,30065.0,0,
2020-07-23,30065.0,0.0,30065.0,0,
2020-07-24,30065.0,0.0,30065.0,0,
2020-07-26,30065.0,0.0,30065.0,0,
2020-07-27,30065.0,0.0,30065.0,0,
2020-07-28,30065.0,0.0,30065.0,0,
2020-07-29,30065.0,0.0,30065.0,0,
2020-07-30,30065.0,0.0,30065.0,0,
2020-07-31,30065.0,0.0,30065.0,0,
2020-08-02,30065.0,0.0,30065.0,0,
2020-08-03,30065.0,0.0,30065.0,0,
2020-08-04,30065.0,0.0,30065.0,0,
2020-08-05,30065.0,984.0,31049.0,3,Long
2020-08-06,30065.0,1167.0,31232.0,3,Long
2020-08-07,30065.0,1782.0,31847.0,3,Long
2020-08-09,30065.0,1938.0,32003.0,3,Long
2020-08-10,30065.0,3054.0,33119.0,3,Long
2020-08-11,30065.0,2724.0,32789.0,3,Long
2020-08-12,30065.0,3324.0,33389.0,3,Long
2020-08-13,30065.0,3273.0,33338.0,3,Long
2020-08-14,30065.0,3167.0,33232.0,4,Long
2020-08-16,30065.0,3571.0,33636.0,4,Long
2020-08-17,30065.0,3019.0,33084.0,4,Long
2020-08-18,30065.0,2975.0,33040.0,4,Long
2020-08-19,30065.0,1879.0,31944.0,4,Long
2020-08-20,30065.0,2923.0,32988.0,4,Long
2020-08-21,30065.0,3399.0,33464.0,4,Long
2020-08-23,30065.0,3675.0,33740.0,4,Long
2020-08-24,30065.0,5539.0,35604.0,4,Long
2020-08-25,30065.0,4599.0,34664.0,4,Long
2020-08-26,30065.0,5003.0,35068.0,4,Long
2020-08-27,30065.0,6691.0,36756.0,4,Long
2020-08-28,30065.0,6393.0,36458.0,5,Long
2020-08-30,30065.0,7118.0,37183.0,5,Long
2020-08-31,30065.0,5458.0,35523.0,5,Long
2020-09-01,30065.0,6738.0,36803.0,5,Long
2020-09-02,30065.0,8728.0,38793.0,5,Long
2020-09-03,30065.0,4573.0,34638.0,5,Long
2020-09-04,30065.0,3583.0,33648.0,5,Long
2020-09-06,30065.0,3938.0,34003.0,5,Long
2020-09-07,30065.0,4633.0,34698.0,5,Long
2020-09-08,34703.0,0.0,34703.0,0,
2020-09-09,34703.0,0.0,34703.0,0,
2020-09-10,34703.0,0.0,34703.0,0,
2020-09-11,34703.0,0.0,34703.0,0,
2020-09-13,34703.0,0.0,34703.0,0,
2020-09-14,34703.0,0.0,34703.0,0,
2020-09-15,34703.0,0.0,34703.0,0,
2020-09-16,34703.0,0.0,34703.0,0,
2020-09-17,34703.0,0.0,34703.0,0,
2020-09-18,34703.0,0.0,34703.0,0,
2020-09-20,34703.0,0.0,34703.0,0,
2020-09-21,34703.0,0.0,34703.0,0,
2020-09-22,34703.0,0.0,34703.0,0,
2020-09-23,34703.0,0.0,34703.0,0,
2020-09-24,34703.0,0.0,34703.0,0,
2020-09-25,34703.0,0.0,34703.0,0,
2020-09-27,34703.0,0.0,34703.0,0,
2020-09-28,34703.0,0.0,34703.0,0,
2020-09-29,34703.0,0.0,34703.0,0,
2020-09-30,34703.0,0.0,34703.0,0,
2020-10-01,34703.0,0.0,34703.0,0,
2020-10-02,34703.0,0.0,34703.0,0,
2020-10-04,34703.0,0.0,34703.0,0,
2020-10-05,34703.0,0.0,34703.0,0,
2020-10-06,34703.0,0.0,34703.0,0,
2020-10-07,34703.0,0.0,34703.0,0,
2020-10-08,34703.0,552.0,35255.0,3,Long
2020-10-09,34703.0,867.0,35570.0,3,Long
2020-10-11,34703.0,756.0,35459.0,3,Long
2020-10-12,34703.0,1296.0,35999.0,3,Long
2020-10-13,34703.0,1179.0,35882.0,3,Long
2020-10-14,34703.0,120.0,34823.0,3,Long
2020-10-15,34703.0,357.0,35060.0,3,Long
2020-10-16,34703.0,369.0,35072.0,4,Long
2020-10-18,34703.0,945.0,35648.0,4,Long
2020-10-19,34703.0,-535.0,34168.0,4,Long
2020-10-20,34168.0,0.0,34168.0,0,
2020-10-21,34168.0,-1278.0,32890.0,3,Long
2020-10-22,32887.0,0.0,32887.0,0,
2020-10-23,32887.0,-261.0,32626.0,3,Long
2020-10-25,32521.0,0.0,32521.0,0,
2020-10-26,32521.0,0.0,32521.0,0,
2020-10-27,32521.0,0.0,32521.0,0,
2020-10-28,32521.0,0.0,32521.0,0,
2020-10-29,32521.0,0.0,32521.0,0,
2020-10-30,32521.0,0.0,32521.0,0,
2020-11-01,32521.0,0.0,32521.0,0,
2020-11-02,32521.0,0.0,32521.0,0,
2020-11-03,32521.0,0.0,32521.0,0,
2020-11-04,32521.0,1515.0,34036.0,3,Long
2020-11-05,32521.0,2100.0,34621.0,3,Long
2020-11-06,32521.0,2544.0,35065.0,3,Long
2020-11-08,32521.0,3468.0,35989.0,3,Long
2020-11-09,32521.0,4176.0,36697.0,3,Long
2020-11-10,32521.0,5868.0,38389.0,3,Long
2020-11-11,32521.0,4914.0,37435.0,3,Long
2020-11-12,32521.0,4626.0,37147.0,3,Long
2020-11-13,32521.0,5918.0,38439.0,4,Long
2020-11-15,32521.0,6862.0,39383.0,4,Long
2020-11-16,32521.0,7394.0,39915.0,4,Long
2020-11-17,32521.0,6942.0,39463.0,4,Long
2020-11-18,32521.0,5734.0,38255.0,4,Long
2020-11-19,32521.0,5302.0,37823.0,4,Long
2020-11-20,32521.0,4962.0,37483.0,4,Long
2020-11-22,32521.0,5454.0,37975.0,4,Long
2020-11-23,32521.0,7550.0,40071.0,4,Long
2020-11-24,32521.0,8446.0,40967.0,4,Long
2020-11-25,32521.0,7642.0,40163.0,4,Long
2020-11-26,32521.0,7446.0,39967.0,4,Long
2020-11-27,32521.0,7822.0,40343.0,5,Long
2020-11-29,32521.0,6777.0,39298.0,5,Long
2020-11-30,32521.0,7692.0,40213.0,5,Long
2020-12-01,32521.0,6827.0,39348.0,5,Long
2020-12-02,32521.0,7517.0,40038.0,5,Long
2020-12-03,32521.0,8312.0,40833.0,5,Long
2020-12-04,32521.0,9112.0,41633.0,5,Long
2020-12-06,32521.0,9067.0,41588.0,5,Long
2020-12-07,32521.0,8327.0,40848.0,5,Long
2020-12-08,32521.0,9717.0,42238.0,5,Long
2020-12-09,32521.0,8822.0,41343.0,5,Long
2020-12-10,32521.0,8402.0,40923.0,5,Long
2020-12-11,32521.0,8160.0,40681.0,6,Long
2020-12-13,32521.0,9174.0,41695.0,6,Long
2020-12-14,32521.0,7164.0,39685.0,6,Long
2020-12-15,32521.0,8976.0,41497.0,6,Long
2020-12-16,32521.0,9330.0,41851.0,6,Long
2020-12-17,32521.0,9120.0,41641.0,6,Long
2020-12-18,32521.0,10110.0,42631.0,6,Long
2020-12-20,32521.0,9198.0,41719.0,6,Long
2020-12-21,32521.0,8400.0,40921.0,6,Long
2020-12-22,32521.0,7716.0,40237.0,6,Long
2020-12-23,32521.0,9012.0,41533.0,6,Long
2020-12-24,32521.0,9024.0,41545.0,6,Long
2020-12-27,32521.0,9870.0,42391.0,6,Long
2020-12-28,32521.0,11160.0,43681.0,6,Long
2020-12-29,32521.0,10308.0,42829.0,6,Long
2020-12-30,32521.0,10296.0,42817.0,6,Long
2020-12-31,32521.0,11382.0,43903.0,6,Long
2021-01-03,32521.0,11418.0,43939.0,6,Long
2021-01-04,32521.0,8868.0,41389.0,6,Long
2021-01-05,32521.0,9774.0,42295.0,6,Long
2021-01-06,32521.0,13488.0,46009.0,6,Long
2021-01-07,32521.0,14940.0,47461.0,6,Long
2021-01-08,32521.0,14596.0,47117.0,7,Long
2021-01-10,32521.0,13035.0,45556.0,7,Long
2021-01-11,32521.0,13679.0,46200.0,7,Long
2021-01-12,32521.0,14722.0,47243.0,7,Long
2021-01-13,32521.0,15044.0,47565.0,7,Long
2021-01-14,32521.0,12972.0,45493.0,7,Long
2021-01-15,32521.0,11817.0,44338.0,7,Long
2021-01-17,32521.0,12209.0,44730.0,7,Long
2021-01-18,32521.0,13644.0,46165.0,7,Long
2021-01-19,32521.0,13105.0,45626.0,7,Long
2021-01-20,32521.0,15464.0,47985.0,7,Long
2021-01-21,32521.0,14365.0,46886.0,7,Long
2021-01-22,32521.0,13688.0,46209.0,8,Long
2021-01-24,32521.0,14400.0,46921.0,8,Long
2021-01-25,32521.0,12048.0,44569.0,8,Long
2021-01-26,32521.0,12576.0,45097.0,8,Long
2021-01-27,32521.0,7680.0,40201.0,8,Long
2021-01-28,32521.0,8304.0,40825.0,8,Long
2021-01-29,40809.0,0.0,40809.0,0,
2021-01-31,40809.0,0.0,40809.0,0,
2021-02-01,40809.0,0.0,40809.0,0,
2021-02-02,40809.0,0.0,40809.0,0,
2021-02-03,40809.0,0.0,40809.0,0,
2021-02-04,40809.0,0.0,40809.0,0,
2021-02-05,40809.0,213.0,41022.0,3,Long
2021-02-07,40809.0,555.0,41364.0,3,Long
2021-02-08,40809.0,771.0,41580.0,3,Long
2021-02-09,40809.0,1083.0,41892.0,3,Long
2021-02-10,40809.0,1104.0,41913.0,3,Long
2021-02-11,40809.0,933.0,41742.0,3,Long
2021-02-12,40809.0,1233.0,42042.0,3,Long
2021-02-14,40809.0,1605.0,42414.0,3,Long
2021-02-15,40809.0,1941.0,42750.0,3,Long
2021-02-16,40809.0,1353.0,42162.0,3,Long
2021-02-17,40809.0,1572.0,42381.0,3,Long
2021-02-18,40809.0,1032.0,41841.0,3,Long
2021-02-19,40809.0,1235.0,42044.0,4,Long
2021-02-21,40809.0,1151.0,41960.0,4,Long
2021-02-22,40809.0,1903.0,42712.0,4,Long
2021-02-23,40809.0,1239.0,42048.0,4,Long
2021-02-24,40809.0,3567.0,44376.0,4,Long
2021-02-25,40809.0,543.0,41352.0,4,Long
2021-02-26,40809.0,-873.0,39936.0,4,Long
2021-02-28,40232.0,0.0,40232.0,0,
2021-03-01,40232.0,885.0,41117.0,3,Long
2021-03-02,40232.0,1056.0,41288.0,3,Long
2021-03-03,40232.0,18.0,40250.0,3,Long
2021-03-04,40232.0,-948.0,39284.0,3,Long
2021-03-05,39284.0,0.0,39284.0,0,
2021-03-07,39284.0,-264.0,39020.0,3,Long
2021-03-08,39284.0,1260.0,40544.0,3,Long
2021-03-09,39284.0,717.0,40001.0,3,Long
2021-03-10,39284.0,2550.0,41834.0,3,Long
2021-03-11,39284.0,3078.0,42362.0,3,Long
2021-03-12,39284.0,3381.0,42665.0,3,Long
2021-03-14,39284.0,3534.0,42818.0,3,Long
2021-03-15,39284.0,3753.0,43037.0,3,Long
2021-03-16,39284.0,3405.0,42689.0,3,Long
2021-03-17,39284.0,4254.0,43538.0,3,Long
2021-03-18,39284.0,3741.0,43025.0,3,Long
2021-03-19,39284.0,2740.0,42024.0,4,Long
2021-03-21,39284.0,2408.0,41692.0,4,Long
2021-03-22,39284.0,3040.0,42324.0,4,Long
2021-03-23,39284.0,1924.0,41208.0,4,Long
2021-03-24,39284.0,2352.0,41636.0,4,Long
2021-03-25,39284.0,3060.0,42344.0,4,Long
2021-03-26,39284.0,4540.0,43824.0,4,Long
2021-03-28,39284.0,4136.0,43420.0,4,Long
2021-03-29,39284.0,5076.0,44360.0,4,Long
2021-03-30,39284.0,4496.0,43780.0,4,Long
2021-03-31,39284.0,4148.0,43432.0,4,Long
2021-04-01,39284.0,4832.0,44116.0,4,Long
2021-04-02,39284.0,5584.0,44868.0,5,Long
2021-04-04,39284.0,5784.0,45068.0,5,Long
2021-04-05,39284.0,6149.0,45433.0,5,Long
2021-04-06,39284.0,6239.0,45523.0,5,Long
2021-04-07,39284.0,6409.0,45693.0,5,Long
2021-04-08,39284.0,6499.0,45783.0,5,Long
2021-04-09,39284.0,7694.0,46978.0,5,Long
2021-04-11,39284.0,7434.0,46718.0,5,Long
2021-04-12,39284.0,7759.0,47043.0,5,Long
2021-04-13,39284.0,7159.0,46443.0,5,Long
2021-04-14,39284.0,7914.0,47198.0,5,Long
2021-04-15,39284.0,8959.0,48243.0,5,Long
2021-04-16,39284.0,9706.0,48990.0,6,Long
2021-04-18,39284.0,9292.0,48576.0,6,Long
2021-04-19,39284.0,9652.0,48936.0,6,Long
2021-04-20,39284.0,7396.0,46680.0,6,Long
2021-04-21,39284.0,9256.0,48540.0,6,Long
2021-04-22,39284.0,7888.0,47172.0,6,Long
2021-04-23,39284.0,8848.0,48132.0,6,Long
2021-04-25,39284.0,9262.0,48546.0,6,Long
2021-04-26,39284.0,8800.0,48084.0,6,Long
2021-04-27,39284.0,8416.0,47700.0,6,Long
2021-04-28,39284.0,8230.0,47514.0,6,Long
2021-04-29,39284.0,8758.0,48042.0,6,Long
2021-04-30,39284.0,8190.0,47474.0,7,Long
2021-05-02,39284.0,8869.0,48153.0,7,Long
2021-05-03,39284.0,9317.0,48601.0,7,Long
2021-05-04,39284.0,10353.0,49637.0,7,Long
2021-05-05,39284.0,10409.0,49693.0,7,Long
2021-05-06,39284.0,12796.0,52080.0,7,Long
2021-05-07,39284.0,14483.0,53767.0,7,Long
2021-05-09,39284.0,15015.0,54299.0,7,Long
2021-05-10,39284.0,13664.0,52948.0,7,Long
2021-05-11,39284.0,9184.0,48468.0,7,Long
2021-05-12,48461.0,0.0,48461.0,0,
2021-05-13,48461.0,0.0,48461.0,0,
2021-05-14,48461.0,0.0,48461.0,0,
2021-05-16,48461.0,0.0,48461.0,0,
2021-05-17,48461.0,0.0,48461.0,0,
2021-05-18,48461.0,0.0,48461.0,0,
2021-05-19,48461.0,0.0,48461.0,0,
2021-05-20,48461.0,0.0,48461.0,0,
2021-05-21,48461.0,0.0,48461.0,0,
2021-05-23,48461.0,0.0,48461.0,0,
2021-05-24,48461.0,0.0,48461.0,0,
2021-05-25,48461.0,0.0,48461.0,0,
2021-05-26,48461.0,0.0,48461.0,0,
2021-05-27,48461.0,0.0,48461.0,0,
2021-05-28,48461.0,0.0,48461.0,0,
2021-05-30,48461.0,0.0,48461.0,0,
2021-05-31,48461.0,0.0,48461.0,0,
2021-06-01,48461.0,0.0,48461.0,0,
2021-06-02,48461.0,0.0,48461.0,0,
2021-06-03,48461.0,0.0,48461.0,0,
2021-06-04,48461.0,0.0,48461.0,0,
2021-06-06,48461.0,0.0,48461.0,0,
2021-06-07,48461.0,0.0,48461.0,0,
2021-06-08,48461.0,0.0,48461.0,0,
2021-06-09,48461.0,0.0,48461.0,0,
2021-06-10,48461.0,0.0,48461.0,0,
2021-06-11,48461.0,0.0,48461.0,0,
2021-06-13,48461.0,0.0,48461.0,0,
2021-06-14,48461.0,0.0,48461.0,0,
2021-06-15,48461.0,0.0,48461.0,0,
2021-06-16,48461.0,0.0,48461.0,0,
2021-06-17,48461.0,0.0,48461.0,0,
2021-06-18,48461.0,0.0,48461.0,0,
2021-06-20,48461.0,0.0,48461.0,0,
2021-06-21,48461.0,0.0,48461.0,0,
2021-06-22,48461.0,0.0,48461.0,0,
2021-06-23,48461.0,0.0,48461.0,0,
2021-06-24,48461.0,1104.0,49565.0,3,Long
2021-06-25,48461.0,1539.0,50000.0,3,Long
2021-06-27,48461.0,1461.0,49922.0,3,Long
2021-06-28,48461.0,801.0,49262.0,3,Long
2021-06-29,48461.0,1068.0,49529.0,3,Long
2021-06-30,48461.0,1794.0,50255.0,3,Long
2021-07-01,48461.0,2058.0,50519.0,3,Long
2021-07-02,48461.0,2300.0,50761.0,4,Long
2021-07-04,48461.0,2204.0,50665.0,4,Long
2021-07-05,48461.0,2628.0,51089.0,4,Long
2021-07-06,48461.0,1480.0,49941.0,4,Long
2021-07-07,48461.0,1644.0,50105.0,4,Long
2021-07-08,48461.0,572.0,49033.0,4,Long
2021-07-09,48461.0,2748.0,51209.0,4,Long
2021-07-11,48461.0,2496.0,50957.0,4,Long
2021-07-12,48461.0,3208.0,51669.0,4,Long
2021-07-13,48461.0,2696.0,51157.0,4,Long
2021-07-14,48461.0,2768.0,51229.0,4,Long
2021-07-15,48461.0,3200.0,51661.0,4,Long
2021-07-16,48461.0,1968.0,50429.0,5,Long
2021-07-18,48461.0,1248.0,49709.0,5,Long
2021-07-19,48461.0,-1317.0,47144.0,5,Long
2021-07-20,48461.0,1198.0,49659.0,5,Long
2021-07-21,48461.0,2788.0,51249.0,5,Long
2021-07-22,48461.0,2998.0,51459.0,5,Long
2021-07-23,48461.0,3783.0,52244.0,5,Long
2021-07-25,48461.0,3183.0,51644.0,5,Long
2021-07-26,48461.0,4098.0,52559.0,5,Long
2021-07-27,48461.0,3578.0,52039.0,5,Long
2021-07-28,48461.0,3313.0,51774.0,5,Long
2021-07-29,48461.0,3548.0,52009.0,5,Long
2021-07-30,48461.0,3606.0,52067.0,6,Long
2021-08-01,48461.0,4278.0,52739.0,6,Long
2021-08-02,48461.0,3162.0,51623.0,6,Long
2021-08-03,48461.0,4170.0,52631.0,6,Long
2021-08-04,48461.0,2868.0,51329.0,6,Long
2021-08-05,48461.0,3870.0,52331.0,6,Long
2021-08-06,48461.0,4944.0,53405.0,6,Long
2021-08-08,48461.0,4662.0,53123.0,6,Long
2021-08-09,48461.0,4008.0,52469.0,6,Long
2021-08-10,48461.0,5208.0,53669.0,6,Long
2021-08-11,48461.0,6720.0,55181.0,6,Long
2021-08-12,48461.0,6804.0,55265.0,6,Long
2021-08-13,48461.0,6807.0,55268.0,7,Long
2021-08-15,48461.0,6002.0,54463.0,7,Long
2021-08-16,48461.0,7024.0,55485.0,7,Long
2021-08-17,48461.0,5827.0,54288.0,7,Long
2021-08-18,48461.0,3090.0,51551.0,7,Long
2021-08-19,48461.0,2446.0,50907.0,7,Long
2021-08-20,48461.0,4392.0,52853.0,7,Long
2021-08-22,48461.0,5323.0,53784.0,7,Long
2021-08-23,48461.0,6408.0,54869.0,7,Long
2021-08-24,48461.0,5862.0,54323.0,7,Long
2021-08-25,48461.0,6254.0,54715.0,7,Long
2021-08-26,48461.0,5421.0,53882.0,7,Long
2021-08-27,48461.0,6866.0,55327.0,8,Long
2021-08-29,48461.0,7002.0,55463.0,8,Long
2021-08-30,48461.0,6754.0,55215.0,8,Long
2021-08-31,48461.0,7010.0,55471.0,8,Long
2021-09-01,48461.0,5538.0,53999.0,8,Long
2021-09-02,48461.0,7402.0,55863.0,8,Long
2021-09-03,48461.0,6290.0,54751.0,8,Long
2021-09-05,48461.0,6362.0,54823.0,8,Long
2021-09-06,48461.0,6786.0,55247.0,8,Long
2021-09-07,48461.0,4218.0,52679.0,8,Long
2021-09-08,48461.0,2882.0,51343.0,8,Long
2021-09-09,48461.0,3234.0,51695.0,8,Long
2021-09-10,50751.0,0.0,50751.0,0,
2021-09-12,50751.0,0.0,50751.0,0,
2021-09-13,50751.0,0.0,50751.0,0,
2021-09-14,50751.0,0.0,50751.0,0,
2021-09-15,50751.0,0.0,50751.0,0,
2021-09-16,50751.0,0.0,50751.0,0,
2021-09-17,50751.0,0.0,50751.0,0,
2021-09-19,50751.0,0.0,50751.0,0,
2021-09-20,50751.0,0.0,50751.0,0,
2021-09-21,50751.0,0.0,50751.0,0,
2021-09-22,50751.0,0.0,50751.0,0,
2021-09-23,50751.0,0.0,50751.0,0,
2021-09-24,50751.0,0.0,50751.0,0,
2021-09-26,50751.0,0.0,50751.0,0,
2021-09-27,50751.0,0.0,50751.0,0,
2021-09-28,50751.0,0.0,50751.0,0,
2021-09-29,50751.0,0.0,50751.0,0,
2021-09-30,50751.0,0.0,50751.0,0,
2021-10-01,50751.0,0.0,50751.0,0,
2021-10-03,50751.0,0.0,50751.0,0,
2021-10-04,50751.0,0.0,50751.0,0,
2021-10-05,50751.0,0.0,50751.0,0,
2021-10-06,50751.0,0.0,50751.0,0,
2021-10-07,50751.0,0.0,50751.0,0,
2021-10-08,50751.0,0.0,50751.0,0,
2021-10-10,50751.0,0.0,50751.0,0,
2021-10-11,50751.0,0.0,50751.0,0,
2021-10-12,50751.0,0.0,50751.0,0,
2021-10-13,50751.0,0.0,50751.0,0,
2021-10-14,50751.0,1584.0,52335.0,3,Long
2021-10-15,50751.0,2481.0,53232.0,3,Long
2021-10-17,50751.0,2469.0,53220.0,3,Long
2021-10-18,50751.0,2268.0,53019.0,3,Long
2021-10-19,50751.0,2919.0,53670.0,3,Long
2021-10-20,50751.0,3213.0,53964.0,3,Long
2021-10-21,50751.0,3462.0,54213.0,3,Long
2021-10-22,50751.0,3327.0,54078.0,4,Long
2021-10-24,50751.0,3603.0,54354.0,4,Long
2021-10-25,50751.0,4023.0,54774.0,4,Long
2021-10-26,50751.0,3911.0,54662.0,4,Long
2021-10-27,50751.0,3119.0,53870.0,4,Long
2021-10-28,50751.0,3699.0,54450.0,4,Long
2021-10-29,50751.0,4315.0,55066.0,4,Long
2021-10-31,50751.0,4483.0,55234.0,4,Long
2021-11-01,50751.0,4231.0,54982.0,4,Long
2021-11-02,50751.0,4923.0,55674.0,4,Long
2021-11-03,50751.0,5387.0,56138.0,4,Long
2021-11-04,50751.0,5295.0,56046.0,4,Long
2021-11-05,50751.0,5978.0,56729.0,5,Long
2021-11-07,50751.0,6038.0,56789.0,5,Long
2021-11-08,50751.0,6228.0,56979.0,5,Long
2021-11-09,50751.0,5563.0,56314.0,5,Long
2021-11-10,50751.0,4913.0,55664.0,5,Long
2021-11-11,50751.0,4538.0,55289.0,5,Long
2021-11-12,50751.0,5273.0,56024.0,5,Long
2021-11-14,50751.0,5183.0,55934.0,5,Long
2021-11-15,50751.0,5183.0,55934.0,5,Long
2021-11-16,50751.0,5468.0,56219.0,5,Long
2021-11-17,50751.0,4483.0,55234.0,5,Long
2021-11-18,50751.0,4793.0,55544.0,5,Long
2021-11-19,50751.0,3106.0,53857.0,6,Long
2021-11-21,50751.0,3556.0,54307.0,6,Long
2021-11-22,50751.0,3226.0,53977.0,6,Long
2021-11-23,50751.0,3724.0,54475.0,6,Long
2021-11-24,50751.0,4804.0,55555.0,6,Long
2021-11-25,55561.0,0.0,55561.0,0,
2021-11-26,55561.0,0.0,55561.0,0,
2021-11-28,55561.0,0.0,55561.0,0,
2021-11-29,55561.0,0.0,55561.0,0,
2021-11-30,55561.0,0.0,55561.0,0,
2021-12-01,55561.0,0.0,55561.0,0,
2021-12-02,55561.0,0.0,55561.0,0,
2021-12-03,55561.0,0.0,55561.0,0,
2021-12-05,55561.0,0.0,55561.0,0,
2021-12-06,55561.0,0.0,55561.0,0,
2021-12-07,55561.0,1350.0,56911.0,3,Long
2021-12-08,55561.0,981.0,56542.0,3,Long
2021-12-09,55561.0,1161.0,56722.0,3,Long
2021-12-10,55561.0,1587.0,57148.0,3,Long
2021-12-12,55561.0,1932.0,57493.0,3,Long
2021-12-13,55561.0,684.0,56245.0,3,Long
2021-12-14,55561.0,444.0,56005.0,3,Long
2021-12-15,55561.0,1539.0,57100.0,3,Long
2021-12-16,55561.0,1239.0,56800.0,3,Long
2021-12-17,55561.0,-60.0,55501.0,3,Long
2021-12-19,55252.0,0.0,55252.0,0,
2021-12-20,55252.0,0.0,55252.0,0,
2021-12-21,55252.0,0.0,55252.0,0,
2021-12-22,55252.0,807.0,56059.0,3,Long
2021-12-23,55252.0,1404.0,56656.0,3,Long
2021-12-26,55252.0,1359.0,56611.0,3,Long
2021-12-27,55252.0,2298.0,57550.0,3,Long
2021-12-28,55252.0,2751.0,58003.0,3,Long
2021-12-29,55252.0,2961.0,58213.0,3,Long
2021-12-30,55252.0,2529.0,57781.0,3,Long
2021-12-31,55252.0,2631.0,57883.0,3,Long
2022-01-02,55252.0,2901.0,58153.0,3,Long
2022-01-03,55252.0,3375.0,58627.0,3,Long
2022-01-04,55252.0,3663.0,58915.0,3,Long
2022-01-05,55252.0,2394.0,57646.0,3,Long
2022-01-06,55252.0,2457.0,57709.0,3,Long
2022-01-07,55252.0,2192.0,57444.0,4,Long
2022-01-09,55252.0,2140.0,57392.0,4,Long
2022-01-10,55252.0,1508.0,56760.0,4,Long
2022-01-11,55252.0,2376.0,57628.0,4,Long
2022-01-12,55252.0,2200.0,57452.0,4,Long
2022-01-13,55252.0,1768.0,57020.0,4,Long
2022-01-14,55252.0,1036.0,56288.0,4,Long
2022-01-16,55252.0,664.0,55916.0,4,Long
2022-01-17,55252.0,572.0,55824.0,4,Long
2022-01-18,55840.0,0.0,55840.0,0,
2022-01-19,55840.0,0.0,55840.0,0,
2022-01-20,55840.0,0.0,55840.0,0,
2022-01-21,55840.0,0.0,55840.0,0,
2022-01-23,55840.0,0.0,55840.0,0,
2022-01-24,55840.0,0.0,55840.0,0,
2022-01-25,55840.0,0.0,55840.0,0,
2022-01-26,55840.0,0.0,55840.0,0,
2022-01-27,55840.0,0.0,55840.0,0,
2022-01-28,55840.0,0.0,55840.0,0,
2022-01-30,55840.0,0.0,55840.0,0,
2022-01-31,55840.0,0.0,55840.0,0,
2022-02-01,55840.0,0.0,55840.0,0,
2022-02-02,55840.0,630.0,56470.0,3,Long
2022-02-03,55840.0,-309.0,55531.0,3,Long
2022-02-04,55528.0,0.0,55528.0,0,
2022-02-06,55528.0,0.0,55528.0,0,
2022-02-07,55528.0,0.0,55528.0,0,
2022-02-08,55528.0,0.0,55528.0,0,
2022-02-09,55528.0,489.0,56017.0,3,Long
2022-02-10,55528.0,-1680.0,53848.0,3,Long
2022-02-11,53851.0,0.0,53851.0,0,
2022-02-13,53851.0,0.0,53851.0,0,
2022-02-14,53851.0,0.0,53851.0,0,
2022-02-15,53851.0,0.0,53851.0,0,
2022-02-16,53851.0,0.0,53851.0,0,
2022-02-17,53851.0,0.0,53851.0,0,
2022-02-18,53851.0,0.0,53851.0,0,
2022-02-20,53851.0,0.0,53851.0,0,
2022-02-21,53851.0,0.0,53851.0,0,
2022-02-22,53851.0,0.0,53851.0,0,
2022-02-23,53851.0,0.0,53851.0,0,
2022-02-24,53851.0,0.0,53851.0,0,
2022-02-25,53851.0,0.0,53851.0,0,
2022-02-27,53851.0,0.0,53851.0,0,
2022-02-28,53851.0,0.0,53851.0,0,
2022-03-01,53851.0,0.0,53851.0,0,
2022-03-02,53851.0,0.0,53851.0,0,
2022-03-03,53851.0,0.0,53851.0,0,
2022-03-04,53851.0,0.0,53851.0,0,
2022-03-06,53851.0,0.0,53851.0,0,
2022-03-07,53851.0,0.0,53851.0,0,
2022-03-08,53851.0,0.0,53851.0,0,
2022-03-09,53851.0,0.0,53851.0,0,
2022-03-10,53851.0,0.0,53851.0,0,
2022-03-11,53851.0,0.0,53851.0,0,
2022-03-13,53851.0,0.0,53851.0,0,
2022-03-14,53851.0,0.0,53851.0,0,
2022-03-15,53851.0,0.0,53851.0,0,
2022-03-16,53851.0,0.0,53851.0,0,
2022-03-17,53851.0,0.0,53851.0,0,
2022-03-18,53851.0,0.0,53851.0,0,
2022-03-20,53851.0,0.0,53851.0,0,
2022-03-21,53851.0,0.0,53851.0,0,
2022-03-22,53851.0,0.0,53851.0,0,
2022-03-23,53851.0,0.0,53851.0,0,
2022-03-24,53851.0,0.0,53851.0,0,
2022-03-25,53851.0,0.0,53851.0,0,
2022-03-27,53851.0,0.0,53851.0,0,
2022-03-28,53851.0,660.0,54511.0,3,Long
2022-03-29,53851.0,1446.0,55297.0,3,Long
2022-03-30,53851.0,1473.0,55324.0,3,Long
2022-03-31,53851.0,225.0,54076.0,3,Long
2022-04-01,53851.0,153.0,54004.0,3,Long
2022-04-03,53851.0,177.0,54028.0,3,Long
2022-04-04,53851.0,378.0,54229.0,3,Long
2022-04-05,53851.0,-447.0,53404.0,3,Long
2022-04-06,53410.0,0.0,53410.0,0,
2022-04-07,53410.0,0.0,53410.0,0,
2022-04-08,53410.0,0.0,53410.0,0,
2022-04-10,53410.0,0.0,53410.0,0,
2022-04-11,53410.0,0.0,53410.0,0,
2022-04-12,53410.0,0.0,53410.0,0,
2022-04-13,53410.0,0.0,53410.0,0,
2022-04-14,53410.0,0.0,53410.0,0,
2022-04-17,53410.0,0.0,53410.0,0,
2022-04-18,53410.0,0.0,53410.0,0,
2022-04-19,53410.0,0.0,53410.0,0,
2022-04-20,53410.0,1068.0,54478.0,3,Long
2022-04-21,53410.0,-660.0,52750.0,3,Long
2022-04-22,52753.0,0.0,52753.0,0,
2022-04-24,52753.0,0.0,52753.0,0,
2022-04-25,52753.0,0.0,52753.0,0,
2022-04-26,52753.0,0.0,52753.0,0,
2022-04-27,52753.0,0.0,52753.0,0,
2022-04-28,52753.0,0.0,52753.0,0,
2022-04-29,52753.0,0.0,52753.0,0,
2022-05-01,52753.0,0.0,52753.0,0,
2022-05-02,52753.0,0.0,52753.0,0,
2022-05-03,52753.0,0.0,52753.0,0,
2022-05-04,52753.0,0.0,52753.0,0,
2022-05-05,52753.0,0.0,52753.0,0,
2022-05-06,52753.0,0.0,52753.0,0,
2022-05-08,52753.0,0.0,52753.0,0,
2022-05-09,52753.0,0.0,52753.0,0,
2022-05-10,52753.0,0.0,52753.0,0,
2022-05-11,52753.0,0.0,52753.0,0,
2022-05-12,52753.0,0.0,52753.0,0,
2022-05-13,52753.0,0.0,52753.0,0,
2022-05-15,52753.0,0.0,52753.0,0,
2022-05-16,52753.0,0.0,52753.0,0,
2022-05-17,52753.0,0.0,52753.0,0,
2022-05-18,52753.0,0.0,52753.0,0,
2022-05-19,52753.0,0.0,52753.0,0,
2022-05-20,52753.0,0.0,52753.0,0,
2022-05-22,52753.0,0.0,52753.0,0,
2022-05-23,52753.0,0.0,52753.0,0,
2022-05-24,52753.0,0.0,52753.0,0,
2022-05-25,52753.0,0.0,52753.0,0,
2022-05-26,52753.0,0.0,52753.0,0,
2022-05-27,52753.0,2115.0,54868.0,3,Long
2022-05-29,52753.0,2052.0,54805.0,3,Long
2022-05-30,52753.0,1944.0,54697.0,3,Long
2022-05-31,52753.0,1821.0,54574.0,3,Long
2022-06-01,52753.0,744.0,53497.0,3,Long
2022-06-02,52753.0,2103.0,54856.0,3,Long
2022-06-03,52753.0,1116.0,53869.0,3,Long
2022-06-05,52753.0,1440.0,54193.0,3,Long
2022-06-06,52753.0,702.0,53455.0,3,Long
2022-06-07,52753.0,1602.0,54355.0,3,Long
2022-06-08,52753.0,1059.0,53812.0,3,Long
2022-06-09,52753.0,-666.0,52087.0,3,Long
2022-06-10,51997.0,0.0,51997.0,0,
2022-06-12,51997.0,0.0,51997.0,0,
2022-06-13,51997.0,0.0,51997.0,0,
2022-06-14,51997.0,0.0,51997.0,0,
2022-06-15,51997.0,0.0,51997.0,0,
2022-06-16,51997.0,0.0,51997.0,0,
2022-06-17,51997.0,0.0,51997.0,0,
2022-06-19,51997.0,0.0,51997.0,0,
2022-06-20,51997.0,0.0,51997.0,0,
2022-06-21,51997.0,0.0,51997.0,0,
2022-06-22,51997.0,0.0,51997.0,0,
2022-06-23,51997.0,0.0,51997.0,0,
2022-06-24,51997.0,0.0,51997.0,0,
2022-06-26,51997.0,0.0,51997.0,0,
2022-06-27,51997.0,0.0,51997.0,0,
2022-06-28,51997.0,0.0,51997.0,0,
2022-06-29,51997.0,0.0,51997.0,0,
2022-06-30,51997.0,0.0,51997.0,0,
2022-07-01,51997.0,0.0,51997.0,0,
2022-07-03,51997.0,0.0,51997.0,0,
2022-07-04,51997.0,0.0,51997.0,0,
2022-07-05,51997.0,0.0,51997.0,0,
2022-07-06,51997.0,0.0,51997.0,0,
2022-07-07,51997.0,0.0,51997.0,0,
2022-07-08,51997.0,0.0,51997.0,0,
2022-07-10,51997.0,0.0,51997.0,0,
2022-07-11,51997.0,0.0,51997.0,0,
2022-07-12,51997.0,0.0,51997.0,0,
2022-07-13,51997.0,0.0,51997.0,0,
2022-07-14,51997.0,0.0,51997.0,0,
2022-07-15,51997.0,0.0,51997.0,0,
2022-07-17,51997.0,0.0,51997.0,0,
2022-07-18,51997.0,0.0,51997.0,0,
2022-07-19,51997.0,2649.0,54646.0,3,Long
2022-07-20,51997.0,2229.0,54226.0,3,Long
2022-07-21,51997.0,2694.0,54691.0,3,Long
2022-07-22,51997.0,2367.0,54364.0,3,Long
2022-07-24,51997.0,2334.0,54331.0,3,Long
2022-07-25,51997.0,2349.0,54346.0,3,Long
2022-07-26,51997.0,2295.0,54292.0,3,Long
2022-07-27,51997.0,3147.0,55144.0,3,Long
2022-07-28,51997.0,4287.0,56284.0,3,Long
2022-07-29,51997.0,5169.0,57166.0,4,Long
2022-07-31,51997.0,4621.0,56618.0,4,Long
2022-08-01,51997.0,4601.0,56598.0,4,Long
2022-08-02,51997.0,3677.0,55674.0,4,Long
2022-08-03,51997.0,4941.0,56938.0,4,Long
2022-08-04,51997.0,5005.0,57002.0,4,Long
2022-08-05,51997.0,4793.0,56790.0,4,Long
2022-08-07,51997.0,4813.0,56810.0,4,Long
2022-08-08,51997.0,5429.0,57426.0,4,Long
2022-08-09,51997.0,4841.0,56838.0,4,Long
2022-08-10,51997.0,7373.0,59370.0,4,Long
2022-08-11,51997.0,7297.0,59294.0,4,Long
2022-08-12,51997.0,8825.0,60822.0,5,Long
2022-08-14,51997.0,8485.0,60482.0,5,Long
2022-08-15,51997.0,9600.0,61597.0,5,Long
2022-08-16,51997.0,10865.0,62862.0,5,Long
2022-08-17,51997.0,9950.0,61947.0,5,Long
2022-08-18,51997.0,9925.0,61922.0,5,Long
2022-08-19,51997.0,8730.0,60727.0,5,Long
2022-08-21,51997.0,8130.0,60127.0,5,Long
2022-08-22,51997.0,5760.0,57757.0,5,Long
2022-08-23,57762.0,0.0,57762.0,0,
2022-08-24,57762.0,0.0,57762.0,0,
2022-08-25,57762.0,0.0,57762.0,0,
2022-08-26,57762.0,0.0,57762.0,0,
2022-08-28,57762.0,0.0,57762.0,0,
2022-08-29,57762.0,0.0,57762.0,0,
2022-08-30,57762.0,0.0,57762.0,0,
2022-08-31,57762.0,0.0,57762.0,0,
2022-09-01,57762.0,0.0,57762.0,0,
2022-09-02,57762.0,0.0,57762.0,0,
2022-09-04,57762.0,0.0,57762.0,0,
2022-09-05,57762.0,0.0,57762.0,0,
2022-09-06,57762.0,0.0,57762.0,0,
2022-09-07,57762.0,0.0,57762.0,0,
2022-09-08,57762.0,0.0,57762.0,0,
2022-09-09,57762.0,0.0,57762.0,0,
2022-09-11,57762.0,0.0,57762.0,0,
2022-09-12,57762.0,0.0,57762.0,0,
2022-09-13,57762.0,0.0,57762.0,0,
2022-09-14,57762.0,0.0,57762.0,0,
2022-09-15,57762.0,0.0,57762.0,0,
2022-09-16,57762.0,0.0,57762.0,0,
2022-09-18,57762.0,0.0,57762.0,0,
2022-09-19,57762.0,0.0,57762.0,0,
2022-09-20,57762.0,0.0,57762.0,0,
2022-09-21,57762.0,0.0,57762.0,0,
2022-09-22,57762.0,0.0,57762.0,0,
2022-09-23,57762.0,0.0,57762.0,0,
2022-09-25,57762.0,0.0,57762.0,0,
2022-09-26,57762.0,0.0,57762.0,0,
2022-09-27,57762.0,0.0,57762.0,0,
2022-09-28,57762.0,0.0,57762.0,0,
2022-09-29,57762.0,0.0,57762.0,0,
2022-09-30,57762.0,0.0,57762.0,0,
2022-10-02,57762.0,0.0,57762.0,0,
2022-10-03,57762.0,0.0,57762.0,0,
2022-10-04,57762.0,0.0,57762.0,0,
2022-10-05,57762.0,0.0,57762.0,0,
2022-10-06,57762.0,0.0,57762.0,0,
2022-10-07,57762.0,0.0,57762.0,0,
2022-10-09,57762.0,0.0,57762.0,0,
2022-10-10,57762.0,0.0,57762.0,0,
2022-10-11,57762.0,0.0,57762.0,0,
2022-10-12,57762.0,0.0,57762.0,0,
2022-10-13,57762.0,0.0,57762.0,0,
2022-10-14,57762.0,0.0,57762.0,0,
2022-10-16,57762.0,0.0,57762.0,0,
2022-10-17,57762.0,2289.0,60051.0,3,Long
2022-10-18,57762.0,2715.0,60477.0,3,Long
2022-10-19,57762.0,1626.0,59388.0,3,Long
2022-10-20,57762.0,1470.0,59232.0,3,Long
2022-10-21,57762.0,4074.0,61836.0,3,Long
2022-10-23,57762.0,3891.0,61653.0,3,Long
2022-10-24,57762.0,5145.0,62907.0,3,Long
2022-10-25,57762.0,5934.0,63696.0,3,Long
2022-10-26,57762.0,6678.0,64440.0,3,Long
2022-10-27,57762.0,6828.0,64590.0,3,Long
2022-10-28,57762.0,9601.0,67363.0,4,Long
2022-10-30,57762.0,9169.0,66931.0,4,Long
2022-10-31,57762.0,9177.0,66939.0,4,Long
2022-11-01,57762.0,8549.0,66311.0,4,Long
2022-11-02,57762.0,6593.0,64355.0,4,Long
2022-11-03,57762.0,5629.0,63391.0,4,Long
2022-11-04,57762.0,7149.0,64911.0,4,Long
2022-11-06,57762.0,7189.0,64951.0,4,Long
2022-11-07,57762.0,9025.0,66787.0,4,Long
2022-11-08,57762.0,10301.0,68063.0,4,Long
2022-11-09,57762.0,7961.0,65723.0,4,Long
2022-11-10,57762.0,12817.0,70579.0,4,Long
2022-11-11,57762.0,12623.0,70385.0,5,Long
2022-11-13,57762.0,12273.0,70035.0,5,Long
2022-11-14,57762.0,12178.0,69940.0,5,Long
2022-11-15,57762.0,11553.0,69315.0,5,Long
2022-11-16,57762.0,11793.0,69555.0,5,Long
2022-11-17,57762.0,11468.0,69230.0,5,Long
2022-11-18,57762.0,12648.0,70410.0,5,Long
2022-11-20,57762.0,12323.0,70085.0,5,Long
2022-11-21,57762.0,12593.0,70355.0,5,Long
2022-11-22,57762.0,14443.0,72205.0,5,Long
2022-11-23,57762.0,15118.0,72880.0,5,Long
2022-11-24,57762.0,15053.0,72815.0,5,Long
2022-11-25,57762.0,15713.0,73475.0,6,Long
2022-11-27,57762.0,14633.0,72395.0,6,Long
2022-11-28,57762.0,13067.0,70829.0,6,Long
2022-11-29,57762.0,12821.0,70583.0,6,Long
2022-11-30,57762.0,17081.0,74843.0,6,Long
2022-12-01,57762.0,15737.0,73499.0,6,Long
2022-12-02,57762.0,15797.0,73559.0,6,Long
2022-12-04,57762.0,16049.0,73811.0,6,Long
2022-12-05,57762.0,13595.0,71357.0,6,Long
2022-12-06,57762.0,11567.0,69329.0,6,Long
2022-12-07,57762.0,11075.0,68837.0,6,Long
2022-12-08,57762.0,12545.0,70307.0,6,Long
2022-12-09,57762.0,10275.0,68037.0,7,Long
2022-12-11,57762.0,11997.0,69759.0,7,Long
2022-12-12,57762.0,15791.0,73553.0,7,Long
2022-12-13,57762.0,17282.0,75044.0,7,Long
2022-12-14,57762.0,15700.0,73462.0,7,Long
2022-12-15,57762.0,9673.0,67435.0,7,Long
2022-12-16,67449.0,0.0,67449.0,0,
2022-12-18,67449.0,0.0,67449.0,0,
2022-12-19,67449.0,0.0,67449.0,0,
2022-12-20,67449.0,0.0,67449.0,0,
2022-12-21,67449.0,0.0,67449.0,0,
2022-12-22,67449.0,0.0,67449.0,0,
2022-12-23,67449.0,0.0,67449.0,0,
2022-12-26,67449.0,0.0,67449.0,0,
2022-12-27,67449.0,0.0,67449.0,0,
2022-12-28,67449.0,0.0,67449.0,0,
2022-12-29,67449.0,0.0,67449.0,0,
2022-12-30,67449.0,0.0,67449.0,0,
2023-01-02,67449.0,0.0,67449.0,0,
2023-01-03,67449.0,0.0,67449.0,0,
2023-01-04,67449.0,0.0,67449.0,0,
2023-01-05,67449.0,0.0,67449.0,0,
2023-01-06,67449.0,0.0,67449.0,0,
2023-01-08,67449.0,0.0,67449.0,0,
2023-01-09,67449.0,0.0,67449.0,0,
2023-01-10,67449.0,0.0,67449.0,0,
2023-01-11,67449.0,0.0,67449.0,0,
2023-01-12,67449.0,0.0,67449.0,0,
2023-01-13,67449.0,0.0,67449.0,0,
2023-01-15,67449.0,0.0,67449.0,0,
2023-01-16,67449.0,0.0,67449.0,0,
2023-01-17,67449.0,0.0,67449.0,0,
2023-01-18,67449.0,0.0,67449.0,0,
2023-01-19,67449.0,0.0,67449.0,0,
2023-01-20,67449.0,0.0,67449.0,0,
2023-01-22,67449.0,0.0,67449.0,0,
2023-01-23,67449.0,0.0,67449.0,0,
2023-01-24,67449.0,0.0,67449.0,0,
2023-01-25,67449.0,0.0,67449.0,0,
2023-01-26,67449.0,0.0,67449.0,0,
2023-01-27,67449.0,0.0,67449.0,0,
2023-01-29,67449.0,0.0,67449.0,0,
2023-01-30,67449.0,0.0,67449.0,0,
2023-01-31,67449.0,0.0,67449.0,0,
2023-02-01,67449.0,0.0,67449.0,0,
2023-02-02,67449.0,0.0,67449.0,0,
2023-02-03,67449.0,0.0,67449.0,0,
2023-02-05,67449.0,0.0,67449.0,0,
2023-02-06,67449.0,0.0,67449.0,0,
2023-02-07,67449.0,0.0,67449.0,0,
2023-02-08,67449.0,0.0,67449.0,0,
2023-02-09,67449.0,0.0,67449.0,0,
2023-02-10,67449.0,0.0,67449.0,0,
2023-02-12,67449.0,0.0,67449.0,0,
2023-02-13,67449.0,0.0,67449.0,0,
2023-02-14,67449.0,0.0,67449.0,0,
2023-02-15,67449.0,0.0,67449.0,0,
2023-02-16,67449.0,0.0,67449.0,0,
2023-02-17,67449.0,0.0,67449.0,0,
2023-02-19,67449.0,0.0,67449.0,0,
2023-02-20,67449.0,0.0,67449.0,0,
2023-02-21,67449.0,0.0,67449.0,0,
2023-02-22,67449.0,0.0,67449.0,0,
2023-02-23,67449.0,0.0,67449.0,0,
2023-02-24,67449.0,0.0,67449.0,0,
2023-02-26,67449.0,0.0,67449.0,0,
2023-02-27,67449.0,0.0,67449.0,0,
2023-02-28,67449.0,0.0,67449.0,0,
2023-03-01,67449.0,0.0,67449.0,0,
2023-03-02,67449.0,0.0,67449.0,0,
2023-03-03,67449.0,0.0,67449.0,0,
2023-03-05,67449.0,0.0,67449.0,0,
2023-03-06,67449.0,0.0,67449.0,0,
2023-03-07,67449.0,0.0,67449.0,0,
2023-03-08,67449.0,0.0,67449.0,0,
2023-03-09,67449.0,0.0,67449.0,0,
2023-03-10,67449.0,0.0,67449.0,0,
2023-03-12,67449.0,0.0,67449.0,0,
2023-03-13,67449.0,0.0,67449.0,0,
2023-03-14,67449.0,0.0,67449.0,0,
2023-03-15,67449.0,0.0,67449.0,0,
2023-03-16,67449.0,0.0,67449.0,0,
2023-03-17,67449.0,0.0,67449.0,0,
2023-03-19,67449.0,0.0,67449.0,0,
2023-03-20,67449.0,0.0,67449.0,0,
2023-03-21,67449.0,0.0,67449.0,0,
2023-03-22,67449.0,0.0,67449.0,0,
2023-03-23,67449.0,0.0,67449.0,0,
2023-03-24,67449.0,0.0,67449.0,0,
2023-03-26,67449.0,0.0,67449.0,0,
2023-03-27,67449.0,0.0,67449.0,0,
2023-03-28,67449.0,0.0,67449.0,0,
2023-03-29,67449.0,0.0,67449.0,0,
2023-03-30,67449.0,0.0,67449.0,0,
2023-03-31,67449.0,1281.0,68730.0,3,Long
2023-04-02,67449.0,1059.0,68508.0,3,Long
2023-04-03,67449.0,2046.0,69495.0,3,Long
2023-04-04,67449.0,1494.0,68943.0,3,Long
2023-04-05,67449.0,1494.0,68943.0,3,Long
2023-04-06,67449.0,1545.0,68994.0,3,Long
2023-04-07,67449.0,1848.0,69297.0,3,Long
2023-04-09,67449.0,1728.0,69177.0,3,Long
2023-04-10,67449.0,2076.0,69525.0,3,Long
2023-04-11,67449.0,2304.0,69753.0,3,Long
2023-04-12,67449.0,2103.0,69552.0,3,Long
2023-04-13,67449.0,3123.0,70572.0,3,Long
2023-04-14,67449.0,3027.0,70476.0,4,Long
2023-04-16,67449.0,3035.0,70484.0,4,Long
2023-04-17,67449.0,3139.0,70588.0,4,Long
2023-04-18,67449.0,2935.0,70384.0,4,Long
2023-04-19,67449.0,2731.0,70180.0,4,Long
2023-04-20,67449.0,2267.0,69716.0,4,Long
2023-04-21,67449.0,2367.0,69816.0,4,Long
2023-04-23,67449.0,2019.0,69468.0,4,Long
2023-04-24,67449.0,2455.0,69904.0,4,Long
2023-04-25,67449.0,1399.0,68848.0,4,Long
2023-04-26,67449.0,451.0,67900.0,4,Long
2023-04-27,67449.0,2191.0,69640.0,4,Long
2023-04-28,67449.0,3595.0,71044.0,5,Long
2023-04-30,67449.0,3575.0,71024.0,5,Long
2023-05-01,67449.0,3260.0,70709.0,5,Long
2023-05-02,67449.0,1645.0,69094.0,5,Long
2023-05-03,67449.0,155.0,67604.0,5,Long
2023-05-04,67604.0,0.0,67604.0,0,
2023-05-05,67604.0,0.0,67604.0,0,
2023-05-07,67604.0,0.0,67604.0,0,
2023-05-08,67604.0,0.0,67604.0,0,
2023-05-09,67604.0,0.0,67604.0,0,
2023-05-10,67604.0,0.0,67604.0,0,
2023-05-11,67604.0,0.0,67604.0,0,
2023-05-12,67604.0,0.0,67604.0,0,
2023-05-14,67604.0,0.0,67604.0,0,
2023-05-15,67604.0,0.0,67604.0,0,
2023-05-16,67604.0,0.0,67604.0,0,
2023-05-17,67604.0,0.0,67604.0,0,
2023-05-18,67604.0,0.0,67604.0,0,
2023-05-19,67604.0,0.0,67604.0,0,
2023-05-21,67604.0,0.0,67604.0,0,
2023-05-22,67604.0,0.0,67604.0,0,
2023-05-23,67604.0,0.0,67604.0,0,
2023-05-24,67604.0,0.0,67604.0,0,
2023-05-25,67604.0,0.0,67604.0,0,
2023-05-26,67604.0,0.0,67604.0,0,
2023-05-28,67604.0,0.0,67604.0,0,
2023-05-29,67604.0,0.0,67604.0,0,
2023-05-30,67604.0,0.0,67604.0,0,
2023-05-31,67604.0,0.0,67604.0,0,
2023-06-01,67604.0,0.0,67604.0,0,
2023-06-02,67604.0,1974.0,69578.0,3,Long
2023-06-04,67604.0,2019.0,69623.0,3,Long
2023-06-05,67604.0,1368.0,68972.0,3,Long
2023-06-06,67604.0,1419.0,69023.0,3,Long
2023-06-07,67604.0,1509.0,69113.0,3,Long
2023-06-08,67604.0,1986.0,69590.0,3,Long
2023-06-09,67604.0,2187.0,69791.0,3,Long
2023-06-11,67604.0,2247.0,69851.0,3,Long
2023-06-12,67604.0,3747.0,71351.0,3,Long
2023-06-13,67604.0,3864.0,71468.0,3,Long
2023-06-14,67604.0,3318.0,70922.0,3,Long
2023-06-15,67604.0,4611.0,72215.0,3,Long
2023-06-16,67604.0,4249.0,71853.0,4,Long
2023-06-18,67604.0,4041.0,71645.0,4,Long
2023-06-19,67604.0,3781.0,71385.0,4,Long
2023-06-20,67604.0,3265.0,70869.0,4,Long
2023-06-21,67604.0,2777.0,70381.0,4,Long
2023-06-22,67604.0,2149.0,69753.0,4,Long
2023-06-23,67604.0,1733.0,69337.0,4,Long
2023-06-25,67604.0,2061.0,69665.0,4,Long
2023-06-26,67604.0,1977.0,69581.0,4,Long
2023-06-27,67604.0,2561.0,70165.0,4,Long
2023-06-28,67604.0,2373.0,69977.0,4,Long
2023-06-29,67604.0,3217.0,70821.0,4,Long
2023-06-30,67604.0,4236.0,71840.0,5,Long
2023-07-02,67604.0,4381.0,71985.0,5,Long
2023-07-03,67604.0,4391.0,71995.0,5,Long
2023-07-04,67604.0,4176.0,71780.0,5,Long
2023-07-05,67604.0,3186.0,70790.0,5,Long
2023-07-06,67604.0,1841.0,69445.0,5,Long
2023-07-07,67604.0,1026.0,68630.0,5,Long
2023-07-09,67604.0,631.0,68235.0,5,Long
2023-07-10,67604.0,1966.0,69570.0,5,Long
2023-07-11,67604.0,3406.0,71010.0,5,Long
2023-07-12,67604.0,4256.0,71860.0,5,Long
2023-07-13,67604.0,3871.0,71475.0,5,Long
2023-07-14,67604.0,4461.0,72065.0,6,Long
2023-07-16,67604.0,4443.0,72047.0,6,Long
2023-07-17,67604.0,5025.0,72629.0,6,Long
2023-07-18,67604.0,7455.0,75059.0,6,Long
2023-07-19,67604.0,8025.0,75629.0,6,Long
2023-07-20,67604.0,9201.0,76805.0,6,Long
2023-07-21,67604.0,8805.0,76409.0,6,Long
2023-07-23,67604.0,8787.0,76391.0,6,Long
2023-07-24,67604.0,9915.0,77519.0,6,Long
2023-07-25,67604.0,9945.0,77549.0,6,Long
2023-07-26,67604.0,10671.0,78275.0,6,Long
2023-07-27,67604.0,9177.0,76781.0,6,Long
2023-07-28,67604.0,9983.0,77587.0,7,Long
2023-07-30,67604.0,9633.0,77237.0,7,Long
2023-07-31,67604.0,10802.0,78406.0,7,Long
2023-08-01,67604.0,10431.0,78035.0,7,Long
2023-08-02,67604.0,9213.0,76817.0,7,Long
2023-08-03,67604.0,8541.0,76145.0,7,Long
2023-08-04,67604.0,6959.0,74563.0,7,Long
2023-08-06,67604.0,7722.0,75326.0,7,Long
2023-08-07,67604.0,9395.0,76999.0,7,Long
2023-08-08,67604.0,8618.0,76222.0,7,Long
2023-08-09,67604.0,8303.0,75907.0,7,Long
2023-08-10,67604.0,7715.0,75319.0,7,Long
2023-08-11,67604.0,8541.0,76145.0,8,Long
2023-08-13,67604.0,7829.0,75433.0,8,Long
2023-08-14,67604.0,8717.0,76321.0,8,Long
2023-08-15,67604.0,5733.0,73337.0,8,Long
2023-08-16,73345.0,0.0,73345.0,0,
2023-08-17,73345.0,0.0,73345.0,0,
2023-08-18,73345.0,0.0,73345.0,0,
2023-08-20,73345.0,0.0,73345.0,0,
2023-08-21,73345.0,0.0,73345.0,0,
2023-08-22,73345.0,0.0,73345.0,0,
2023-08-23,73345.0,0.0,73345.0,0,
2023-08-24,73345.0,0.0,73345.0,0,
2023-08-25,73345.0,0.0,73345.0,0,
2023-08-27,73345.0,0.0,73345.0,0,
2023-08-28,73345.0,0.0,73345.0,0,
2023-08-29,73345.0,0.0,73345.0,0,
2023-08-30,73345.0,0.0,73345.0,0,
2023-08-31,73345.0,0.0,73345.0,0,
2023-09-01,73345.0,0.0,73345.0,0,
2023-09-03,73345.0,0.0,73345.0,0,
2023-09-04,73345.0,0.0,73345.0,0,
2023-09-05,73345.0,0.0,73345.0,0,
2023-09-06,73345.0,0.0,73345.0,0,
2023-09-07,73345.0,0.0,73345.0,0,
2023-09-08,73345.0,0.0,73345.0,0,
2023-09-10,73345.0,0.0,73345.0,0,
2023-09-11,73345.0,0.0,73345.0,0,
2023-09-12,73345.0,0.0,73345.0,0,
2023-09-13,73345.0,0.0,73345.0,0,
2023-09-14,73345.0,1035.0,74380.0,3,Long
2023-09-15,73345.0,-141.0,73204.0,3,Long
2023-09-17,73198.0,0.0,73198.0,0,
2023-09-18,73198.0,0.0,73198.0,0,
2023-09-19,73198.0,0.0,73198.0,0,
2023-09-20,73198.0,0.0,73198.0,0,
2023-09-21,73198.0,0.0,73198.0,0,
2023-09-22,73198.0,0.0,73198.0,0,
2023-09-24,73198.0,0.0,73198.0,0,
2023-09-25,73198.0,0.0,73198.0,0,
2023-09-26,73198.0,0.0,73198.0,0,
2023-09-27,73198.0,0.0,73198.0,0,
2023-09-28,73198.0,0.0,73198.0,0,
2023-09-29,73198.0,0.0,73198.0,0,
2023-10-01,73198.0,0.0,73198.0,0,
2023-10-02,73198.0,0.0,73198.0,0,
2023-10-03,73198.0,0.0,73198.0,0,
2023-10-04,73198.0,0.0,73198.0,0,
2023-10-05,73198.0,0.0,73198.0,0,
2023-10-06,73198.0,0.0,73198.0,0,
2023-10-08,73198.0,0.0,73198.0,0,
2023-10-09,73198.0,0.0,73198.0,0,
2023-10-10,73198.0,0.0,73198.0,0,
2023-10-11,73198.0,0.0,73198.0,0,
2023-10-12,73198.0,0.0,73198.0,0,
2023-10-13,73198.0,0.0,73198.0,0,
2023-10-15,73198.0,0.0,73198.0,0,
2023-10-16,73198.0,0.0,73198.0,0,
2023-10-17,73198.0,0.0,73198.0,0,
2023-10-18,73198.0,0.0,73198.0,0,
2023-10-19,73198.0,0.0,73198.0,0,
2023-10-20,73198.0,0.0,73198.0,0,
2023-10-22,73198.0,0.0,73198.0,0,
2023-10-23,73198.0,0.0,73198.0,0,
2023-10-24,73198.0,0.0,73198.0,0,
2023-10-25,73198.0,0.0,73198.0,0,
2023-10-26,73198.0,0.0,73198.0,0,
2023-10-27,73198.0,0.0,73198.0,0,
2023-10-29,73198.0,0.0,73198.0,0,
2023-10-30,73198.0,0.0,73198.0,0,
2023-10-31,73198.0,0.0,73198.0,0,
2023-11-01,73198.0,0.0,73198.0,0,
2023-11-02,73198.0,1728.0,74926.0,3,Long
2023-11-03,73198.0,2370.0,75568.0,3,Long
2023-11-05,73198.0,2355.0,75553.0,3,Long
2023-11-06,73198.0,2115.0,75313.0,3,Long
2023-11-07,73198.0,2457.0,75655.0,3,Long
2023-11-08,73198.0,2400.0,75598.0,3,Long
2023-11-09,73198.0,1863.0,75061.0,3,Long
2023-11-10,73198.0,2735.0,75933.0,4,Long
2023-11-12,73198.0,2391.0,75589.0,4,Long
2023-11-13,73198.0,3083.0,76281.0,4,Long
2023-11-14,73198.0,5299.0,78497.0,4,Long
2023-11-15,73198.0,5595.0,78793.0,4,Long
2023-11-16,73198.0,5771.0,78969.0,4,Long
2023-11-17,73198.0,5495.0,78693.0,4,Long
2023-11-19,73198.0,5543.0,78741.0,4,Long
2023-11-20,73198.0,6455.0,79653.0,4,Long
2023-11-21,73198.0,6251.0,79449.0,4,Long
2023-11-22,73198.0,6739.0,79937.0,4,Long
2023-11-23,73198.0,6891.0,80089.0,4,Long
2023-11-24,73198.0,7283.0,80481.0,5,Long
2023-11-26,73198.0,6858.0,80056.0,5,Long
2023-11-27,73198.0,7013.0,80211.0,5,Long
2023-11-28,73198.0,7608.0,80806.0,5,Long
2023-11-29,73198.0,8193.0,81391.0,5,Long
2023-11-30,73198.0,10268.0,83466.0,5,Long
2023-12-01,73198.0,11743.0,84941.0,5,Long
2023-12-03,73198.0,11638.0,84836.0,5,Long
2023-12-04,73198.0,11143.0,84341.0,5,Long
2023-12-05,73198.0,11403.0,84601.0,5,Long
2023-12-06,73198.0,10538.0,83736.0,5,Long
2023-12-07,73198.0,11028.0,84226.0,5,Long
2023-12-08,73198.0,11516.0,84714.0,6,Long
2023-12-10,73198.0,13640.0,86838.0,6,Long
2023-12-11,73198.0,14720.0,87918.0,6,Long
2023-12-12,73198.0,15866.0,89064.0,6,Long
2023-12-13,73198.0,19358.0,92556.0,6,Long
2023-12-14,73198.0,19958.0,93156.0,6,Long
2023-12-15,73198.0,19796.0,92994.0,6,Long
2023-12-17,73198.0,20234.0,93432.0,6,Long
2023-12-18,73198.0,19820.0,93018.0,6,Long
2023-12-19,73198.0,21404.0,94602.0,6,Long
2023-12-20,73198.0,18998.0,92196.0,6,Long
2023-12-21,73198.0,19586.0,92784.0,6,Long
2023-12-22,73198.0,20029.0,93227.0,7,Long
2023-12-25,73198.0,20582.0,93780.0,7,Long
2023-12-26,73198.0,21331.0,94529.0,7,Long
2023-12-27,73198.0,22178.0,95376.0,7,Long
2023-12-28,73198.0,22423.0,95621.0,7,Long
2023-12-29,73198.0,21856.0,95054.0,7,Long
2024-01-01,73198.0,22353.0,95551.0,7,Long
2024-01-02,73198.0,21905.0,95103.0,7,Long
2024-01-03,73198.0,20176.0,93374.0,7,Long
2024-01-04,73198.0,20267.0,93465.0,7,Long
2024-01-05,73198.0,20063.0,93261.0,8,Long
2024-01-07,73198.0,19095.0,92293.0,8,Long
2024-01-08,73198.0,21439.0,94637.0,8,Long
2024-01-09,73198.0,20111.0,93309.0,8,Long
2024-01-10,73198.0,22311.0,95509.0,8,Long
2024-01-11,73198.0,21511.0,94709.0,8,Long
2024-01-12,73198.0,20431.0,93629.0,8,Long
2024-01-14,73198.0,20943.0,94141.0,8,Long
2024-01-15,73198.0,19799.0,92997.0,8,Long
2024-01-16,73198.0,18343.0,91541.0,8,Long
2024-01-17,73198.0,17735.0,90933.0,8,Long
2024-01-18,73198.0,19399.0,92597.0,8,Long
2024-01-19,73198.0,22789.0,95987.0,9,Long
2024-01-21,73198.0,23284.0,96482.0,9,Long
2024-01-22,73198.0,23977.0,97175.0,9,Long
2024-01-23,73198.0,23284.0,96482.0,9,Long
2024-01-24,73198.0,22780.0,95978.0,9,Long
2024-01-25,73198.0,23005.0,96203.0,9,Long
2024-01-26,73198.0,24553.0,97751.0,9,Long
2024-01-28,73198.0,24112.0,97310.0,9,Long
2024-01-29,73198.0,26263.0,99461.0,9,Long
2024-01-30,73198.0,28036.0,101234.0,9,Long
2024-01-31,73198.0,25372.0,98570.0,9,Long
2024-02-01,73198.0,28018.0,101216.0,9,Long
2024-02-02,73198.0,28943.0,102141.0,10,Long
2024-02-04,73198.0,28323.0,101521.0,10,Long
2024-02-05,73198.0,26193.0,99391.0,10,Long
2024-02-06,73198.0,27783.0,100981.0,10,Long
2024-02-07,73198.0,29353.0,102551.0,10,Long
2024-02-08,73198.0,29433.0,102631.0,10,Long
2024-02-09,73198.0,28713.0,101911.0,10,Long
2024-02-11,73198.0,28923.0,102121.0,10,Long
2024-02-12,73198.0,29823.0,103021.0,10,Long
2024-02-13,73198.0,24703.0,97901.0,10,Long
2024-02-14,73198.0,26493.0,99691.0,10,Long
2024-02-15,73198.0,29513.0,102711.0,10,Long
2024-02-16,73198.0,28133.0,101331.0,10,Long
2024-02-18,73198.0,28733.0,101931.0,10,Long
2024-02-19,73198.0,27393.0,100591.0,10,Long
2024-02-20,73198.0,27563.0,100761.0,10,Long
2024-02-21,73198.0,28793.0,101991.0,10,Long
2024-02-22,73198.0,33253.0,106451.0,10,Long
2024-02-23,73198.0,33053.0,106251.0,10,Long
2024-02-25,73198.0,32943.0,106141.0,10,Long
2024-02-26,73198.0,32533.0,105731.0,10,Long
2024-02-27,73198.0,31413.0,104611.0,10,Long
2024-02-28,73198.0,31533.0,104731.0,10,Long
2024-02-29,73198.0,32183.0,105381.0,10,Long
2024-03-01,73198.0,32343.0,105541.0,10,Long
2024-03-03,73198.0,32383.0,105581.0,10,Long
2024-03-04,73198.0,31173.0,104371.0,10,Long
2024-03-05,73198.0,27593.0,100791.0,10,Long
2024-03-06,73198.0,28143.0,101341.0,10,Long
2024-03-07,73198.0,29633.0,102831.0,10,Long
2024-03-08,73198.0,29333.0,102531.0,10,Long
2024-03-10,73198.0,32873.0,106071.0,10,Long
2024-03-11,73198.0,34293.0,107491.0,10,Long
2024-03-12,73198.0,36043.0,109241.0,10,Long
2024-03-13,73198.0,36993.0,110191.0,10,Long
2024-03-14,73198.0,34953.0,108151.0,10,Long
2024-03-15,73198.0,32943.0,106141.0,10,Long
2024-03-17,73198.0,33203.0,106401.0,10,Long
2024-03-18,73198.0,33583.0,106781.0,10,Long
2024-03-19,73198.0,36783.0,109981.0,10,Long
2024-03-20,73198.0,42083.0,115281.0,10,Long
2024-03-21,73198.0,43753.0,116951.0,10,Long
2024-03-22,73198.0,39793.0,112991.0,10,Long
2024-03-24,73198.0,39613.0,112811.0,10,Long
2024-03-25,73198.0,38743.0,111941.0,10,Long
2024-03-26,73198.0,39433.0,112631.0,10,Long
2024-03-27,73198.0,42653.0,115851.0,10,Long
2024-03-28,73198.0,42953.0,116151.0,10,Long
2024-03-31,73198.0,44713.0,117911.0,10,Long
2024-04-01,73198.0,39193.0,112391.0,10,Long
2024-04-02,73198.0,36133.0,109331.0,10,Long
2024-04-03,73198.0,36903.0,110101.0,10,Long
2024-04-04,110121.0,0.0,110121.0,0,
2024-04-05,110121.0,0.0,110121.0,0,
2024-04-07,110121.0,0.0,110121.0,0,
2024-04-08,110121.0,0.0,110121.0,0,
2024-04-09,110121.0,0.0,110121.0,0,
2024-04-10,110121.0,0.0,110121.0,0,
2024-04-11,110121.0,0.0,110121.0,0,
2024-04-12,110121.0,0.0,110121.0,0,
2024-04-14,110121.0,0.0,110121.0,0,
2024-04-15,110121.0,0.0,110121.0,0,
2024-04-16,110121.0,0.0,110121.0,0,
2024-04-17,110121.0,0.0,110121.0,0,
2024-04-18,110121.0,0.0,110121.0,0,
2024-04-19,110121.0,0.0,110121.0,0,
2024-04-21,110121.0,0.0,110121.0,0,
2024-04-22,110121.0,0.0,110121.0,0,
2024-04-23,110121.0,0.0,110121.0,0,
2024-04-24,110121.0,0.0,110121.0,0,
2024-04-25,110121.0,0.0,110121.0,0,
2024-04-26,110121.0,0.0,110121.0,0,
2024-04-28,110121.0,0.0,110121.0,0,
2024-04-29,110121.0,0.0,110121.0,0,
2024-04-30,110121.0,0.0,110121.0,0,
2024-05-01,110121.0,0.0,110121.0,0,
2024-05-02,110121.0,0.0,110121.0,0,
2024-05-03,110121.0,0.0,110121.0,0,
2024-05-05,110121.0,0.0,110121.0,0,
2024-05-06,110121.0,0.0,110121.0,0,
2024-05-07,110121.0,0.0,110121.0,0,
2024-05-08,110121.0,0.0,110121.0,0,
2024-05-09,110121.0,1206.0,111327.0,3,Long
2024-05-10,110121.0,1356.0,111477.0,3,Long
2024-05-12,110121.0,1425.0,111546.0,3,Long
2024-05-13,110121.0,1158.0,111279.0,3,Long
2024-05-14,110121.0,1653.0,111774.0,3,Long
2024-05-15,110121.0,2871.0,112992.0,3,Long
2024-05-16,110121.0,2463.0,112584.0,3,Long
2024-05-17,110121.0,2932.0,113053.0,4,Long
2024-05-19,110121.0,3084.0,113205.0,4,Long
2024-05-20,110121.0,2180.0,112301.0,4,Long
2024-05-21,110121.0,2452.0,112573.0,4,Long
2024-05-22,110121.0,1804.0,111925.0,4,Long
2024-05-23,111925.0,0.0,111925.0,0,
2024-05-24,111925.0,0.0,111925.0,0,
2024-05-26,111925.0,0.0,111925.0,0,
2024-05-27,111925.0,0.0,111925.0,0,
2024-05-28,111925.0,0.0,111925.0,0,
2024-05-29,111925.0,0.0,111925.0,0,
2024-05-30,111925.0,0.0,111925.0,0,
2024-05-31,111925.0,0.0,111925.0,0,
2024-06-02,111925.0,0.0,111925.0,0,
2024-06-03,111925.0,0.0,111925.0,0,
2024-06-04,111925.0,0.0,111925.0,0,
2024-06-05,111925.0,0.0,111925.0,0,
2024-06-06,111925.0,0.0,111925.0,0,
2024-06-07,111925.0,0.0,111925.0,0,
2024-06-09,111925.0,0.0,111925.0,0,
2024-06-10,111925.0,0.0,111925.0,0,
2024-06-11,111925.0,0.0,111925.0,0,
2024-06-12,111925.0,0.0,111925.0,0,
2024-06-13,111925.0,0.0,111925.0,0,
2024-06-14,111925.0,0.0,111925.0,0,
2024-06-16,111925.0,0.0,111925.0,0,
2024-06-17,111925.0,819.0,112744.0,3,Long
2024-06-18,111925.0,798.0,112723.0,3,Long
2024-06-19,111925.0,798.0,112723.0,3,Long
2024-06-20,111925.0,1773.0,113698.0,3,Long
2024-06-21,111925.0,1788.0,113713.0,3,Long
2024-06-23,111925.0,1542.0,113467.0,3,Long
2024-06-24,111925.0,2781.0,114706.0,3,Long
2024-06-25,111925.0,1578.0,113503.0,3,Long
2024-06-26,111925.0,1293.0,113218.0,3,Long
2024-06-27,111925.0,1695.0,113620.0,3,Long
2024-06-28,111925.0,1722.0,113647.0,4,Long
2024-06-30,111925.0,1698.0,113623.0,4,Long
2024-07-01,111925.0,1406.0,113331.0,4,Long
2024-07-02,111925.0,2178.0,114103.0,4,Long
2024-07-03,111925.0,2142.0,114067.0,4,Long
2024-07-04,111925.0,2334.0,114259.0,4,Long
2024-07-05,111925.0,2250.0,114175.0,4,Long
2024-07-07,111925.0,2162.0,114087.0,4,Long
2024-07-08,111925.0,2526.0,114451.0,4,Long
2024-07-09,111925.0,1946.0,113871.0,4,Long
2024-07-10,111925.0,3782.0,115707.0,4,Long
2024-07-11,111925.0,4062.0,115987.0,4,Long
2024-07-12,111925.0,4900.0,116825.0,5,Long
2024-07-14,111925.0,5110.0,117035.0,5,Long
2024-07-15,111925.0,6115.0,118040.0,5,Long
2024-07-16,111925.0,9710.0,121635.0,5,Long
2024-07-17,111925.0,11240.0,123165.0,5,Long
2024-07-18,111925.0,8170.0,120095.0,5,Long
2024-07-19,111925.0,6005.0,117930.0,5,Long
2024-07-21,111925.0,6165.0,118090.0,5,Long
2024-07-22,111925.0,6515.0,118440.0,5,Long
2024-07-23,111925.0,5870.0,117795.0,5,Long
2024-07-24,117810.0,0.0,117810.0,0,
2024-07-25,117810.0,0.0,117810.0,0,
2024-07-26,117810.0,0.0,117810.0,0,
2024-07-28,117810.0,0.0,117810.0,0,
2024-07-29,117810.0,0.0,117810.0,0,
2024-07-30,117810.0,0.0,117810.0,0,
2024-07-31,117810.0,0.0,117810.0,0,
2024-08-01,117810.0,0.0,117810.0,0,
2024-08-02,117810.0,0.0,117810.0,0,
2024-08-04,117810.0,0.0,117810.0,0,
2024-08-05,117810.0,0.0,117810.0,0,
2024-08-06,117810.0,0.0,117810.0,0,
2024-08-07,117810.0,0.0,117810.0,0,
2024-08-08,117810.0,0.0,117810.0,0,
2024-08-09,117810.0,0.0,117810.0,0,
2024-08-11,117810.0,0.0,117810.0,0,
2024-08-12,117810.0,0.0,117810.0,0,
2024-08-13,117810.0,0.0,117810.0,0,
2024-08-14,117810.0,0.0,117810.0,0,
2024-08-15,117810.0,1674.0,119484.0,3,Long
2024-08-16,117810.0,1848.0,119658.0,3,Long
2024-08-18,117810.0,1869.0,119679.0,3,Long
2024-08-19,117810.0,2442.0,120252.0,3,Long
2024-08-20,117810.0,2448.0,120258.0,3,Long
2024-08-21,117810.0,2346.0,120156.0,3,Long
2024-08-22,117810.0,2133.0,119943.0,3,Long
2024-08-23,117810.0,3260.0,121070.0,4,Long
2024-08-25,117810.0,3120.0,120930.0,4,Long
2024-08-26,117810.0,3424.0,121234.0,4,Long
2024-08-27,117810.0,3596.0,121406.0,4,Long
2024-08-28,117810.0,3264.0,121074.0,4,Long
2024-08-29,117810.0,3964.0,121774.0,4,Long
2024-08-30,117810.0,4728.0,122538.0,4,Long
2024-09-01,117810.0,4652.0,122462.0,4,Long
2024-09-02,117810.0,4488.0,122298.0,4,Long
2024-09-03,117810.0,1728.0,119538.0,4,Long
2024-09-04,117810.0,2236.0,120046.0,4,Long
2024-09-05,117810.0,1580.0,119390.0,4,Long
2024-09-06,119378.0,0.0,119378.0,0,
2024-09-08,119378.0,0.0,119378.0,0,
2024-09-09,119378.0,0.0,119378.0,0,
2024-09-10,119378.0,0.0,119378.0,0,
2024-09-11,119378.0,0.0,119378.0,0,
2024-09-12,119378.0,0.0,119378.0,0,
2024-09-13,119378.0,0.0,119378.0,0,
2024-09-15,119378.0,0.0,119378.0,0,
2024-09-16,119378.0,474.0,119852.0,3,Long
2024-09-17,119378.0,624.0,120002.0,3,Long
2024-09-18,119378.0,951.0,120329.0,3,Long
2024-09-19,119378.0,1707.0,121085.0,3,Long
2024-09-20,119378.0,1710.0,121088.0,3,Long
2024-09-22,119378.0,1923.0,121301.0,3,Long
2024-09-23,119378.0,1674.0,121052.0,3,Long
2024-09-24,119378.0,1926.0,121304.0,3,Long
2024-09-25,119378.0,1524.0,120902.0,3,Long
2024-09-26,119378.0,2010.0,121388.0,3,Long
2024-09-27,119378.0,2210.0,121588.0,4,Long
2024-09-29,119378.0,2422.0,121800.0,4,Long
2024-09-30,119378.0,2246.0,121624.0,4,Long
2024-10-01,119378.0,1394.0,120772.0,4,Long
2024-10-02,119378.0,1566.0,120944.0,4,Long
2024-10-03,119378.0,966.0,120344.0,4,Long
2024-10-04,119378.0,2246.0,121624.0,4,Long
2024-10-06,119378.0,2262.0,121640.0,4,Long
2024-10-07,119378.0,574.0,119952.0,4,Long
2024-10-08,119378.0,1054.0,120432.0,4,Long
2024-10-09,119378.0,3054.0,122432.0,4,Long
2024-10-10,119378.0,2750.0,122128.0,4,Long
2024-10-11,119378.0,4063.0,123441.0,5,Long
2024-10-13,119378.0,4263.0,123641.0,5,Long
2024-10-14,119378.0,5643.0,125021.0,5,Long
2024-10-15,119378.0,3618.0,122996.0,5,Long
2024-10-16,119378.0,4958.0,124336.0,5,Long
2024-10-17,119378.0,5943.0,125321.0,5,Long
2024-10-18,119378.0,6213.0,125591.0,5,Long
2024-10-20,119378.0,6273.0,125651.0,5,Long
2024-10-21,119378.0,4108.0,123486.0,5,Long
2024-10-22,119378.0,3718.0,123096.0,5,Long
2024-10-23,119378.0,1908.0,121286.0,5,Long
2024-10-24,119378.0,1463.0,120841.0,5,Long
2024-10-25,120856.0,0.0,120856.0,0,
2024-10-27,120856.0,0.0,120856.0,0,
2024-10-28,120856.0,0.0,120856.0,0,
2024-10-29,120856.0,0.0,120856.0,0,
2024-10-30,120856.0,0.0,120856.0,0,
2024-10-31,120856.0,0.0,120856.0,0,
2024-11-01,120856.0,0.0,120856.0,0,
2024-11-03,120856.0,0.0,120856.0,0,
2024-11-04,120856.0,0.0,120856.0,0,
2024-11-05,120856.0,0.0,120856.0,0,
2024-11-06,120856.0,3198.0,124054.0,3,Long
2024-11-07,120856.0,2865.0,123721.0,3,Long
2024-11-08,120856.0,3597.0,124453.0,3,Long
2024-11-10,120856.0,3705.0,124561.0,3,Long
2024-11-11,120856.0,4353.0,125209.0,3,Long
2024-11-12,120856.0,3231.0,124087.0,3,Long
2024-11-13,120856.0,3426.0,124282.0,3,Long
2024-11-14,120856.0,2571.0,123427.0,3,Long
2024-11-15,120856.0,1999.0,122855.0,4,Long
2024-11-17,120856.0,1947.0,122803.0,4,Long
2024-11-18,120856.0,2067.0,122923.0,4,Long
2024-11-19,120856.0,1615.0,122471.0,4,Long
2024-11-20,120856.0,1651.0,122507.0,4,Long
2024-11-21,120856.0,3619.0,124475.0,4,Long
2024-11-22,120856.0,5447.0,126303.0,4,Long
2024-11-24,120856.0,6247.0,127103.0,4,Long
2024-11-25,120856.0,6999.0,127855.0,4,Long
2024-11-26,120856.0,7567.0,128423.0,4,Long
2024-11-27,120856.0,7195.0,128051.0,4,Long
2024-11-28,120856.0,7523.0,128379.0,4,Long
2024-11-29,120856.0,7883.0,128739.0,5,Long
2024-12-01,120856.0,7483.0,128339.0,5,Long
2024-12-02,120856.0,7093.0,127949.0,5,Long
2024-12-03,120856.0,7318.0,128174.0,5,Long
2024-12-04,120856.0,8043.0,128899.0,5,Long
2024-12-05,120856.0,6733.0,127589.0,5,Long
2024-12-06,120856.0,6063.0,126919.0,5,Long
2024-12-08,120856.0,5958.0,126814.0,5,Long
2024-12-09,120856.0,4908.0,125764.0,5,Long
2024-12-10,120856.0,4218.0,125074.0,5,Long
2024-12-11,120856.0,3268.0,124124.0,5,Long
2024-12-12,120856.0,2523.0,123379.0,5,Long
2024-12-13,123384.0,0.0,123384.0,0,
2024-12-15,123384.0,0.0,123384.0,0,
2024-12-16,123384.0,0.0,123384.0,0,
2024-12-17,123384.0,0.0,123384.0,0,
2024-12-18,123384.0,0.0,123384.0,0,
2024-12-19,123384.0,0.0,123384.0,0,
2024-12-20,123384.0,0.0,123384.0,0,
2024-12-22,123384.0,0.0,123384.0,0,
2024-12-23,123384.0,0.0,123384.0,0,
2024-12-24,123384.0,0.0,123384.0,0,
2024-12-25,123384.0,0.0,123384.0,0,
2024-12-26,123384.0,0.0,123384.0,0,
2024-12-27,123384.0,0.0,123384.0,0,
2024-12-29,123384.0,0.0,123384.0,0,
2024-12-30,123384.0,0.0,123384.0,0,
2024-12-31,123384.0,0.0,123384.0,0,
2025-01-01,123384.0,0.0,123384.0,0,
2025-01-02,123384.0,0.0,123384.0,0,
2025-01-03,123384.0,0.0,123384.0,0,
2025-01-05,123384.0,0.0,123384.0,0,
2025-01-06,123384.0,0.0,123384.0,0,
2025-01-07,123384.0,0.0,123384.0,0,
2025-01-08,123384.0,0.0,123384.0,0,
2025-01-09,123384.0,0.0,123384.0,0,
2025-01-10,123384.0,0.0,123384.0,0,
2025-01-12,123384.0,0.0,123384.0,0,
2025-01-13,123384.0,0.0,123384.0,0,
2025-01-14,123384.0,0.0,123384.0,0,
2025-01-15,123384.0,2163.0,125547.0,3,Long
2025-01-16,123384.0,1950.0,125334.0,3,Long
2025-01-17,123384.0,2712.0,126096.0,3,Long
2025-01-19,123384.0,2793.0,126177.0,3,Long
2025-01-20,123384.0,3120.0,126504.0,3,Long
2025-01-21,123384.0,4461.0,127845.0,3,Long
2025-01-22,123384.0,4692.0,128076.0,3,Long
2025-01-23,123384.0,5838.0,129222.0,3,Long
2025-01-24,123384.0,5476.0,128860.0,4,Long
2025-01-26,123384.0,4840.0,128224.0,4,Long
2025-01-27,123384.0,6440.0,129824.0,4,Long
2025-01-28,123384.0,7216.0,130600.0,4,Long
2025-01-29,123384.0,7044.0,130428.0,4,Long
2025-01-30,123384.0,7500.0,130884.0,4,Long
2025-01-31,123384.0,5912.0,129296.0,4,Long
2025-02-02,123384.0,3192.0,126576.0,4,Long
2025-02-03,123384.0,5480.0,128864.0,4,Long
2025-02-04,123384.0,5492.0,128876.0,4,Long
2025-02-05,123384.0,7468.0,130852.0,4,Long
2025-02-06,123384.0,6436.0,129820.0,4,Long
2025-02-07,123384.0,4775.0,128159.0,5,Long
2025-02-09,123384.0,5130.0,128514.0,5,Long
2025-02-10,123384.0,5240.0,128624.0,5,Long
2025-02-11,123384.0,6100.0,129484.0,5,Long
2025-02-12,123384.0,5400.0,128784.0,5,Long
2025-02-13,123384.0,7005.0,130389.0,5,Long
2025-02-14,123384.0,5880.0,129264.0,5,Long
2025-02-16,123384.0,6075.0,129459.0,5,Long
2025-02-17,123384.0,6100.0,129484.0,5,Long
2025-02-18,123384.0,6115.0,129499.0,5,Long
2025-02-19,123384.0,5760.0,129144.0,5,Long
2025-02-20,123384.0,4000.0,127384.0,5,Long
2025-02-21,127394.0,0.0,127394.0,0,
2025-02-23,127394.0,0.0,127394.0,0,
2025-02-24,127394.0,0.0,127394.0,0,
2025-02-25,127394.0,0.0,127394.0,0,
2025-02-26,127394.0,0.0,127394.0,0,
2025-02-27,127394.0,0.0,127394.0,0,
2025-02-28,127394.0,0.0,127394.0,0,
2025-03-02,127394.0,0.0,127394.0,0,
2025-03-03,127394.0,0.0,127394.0,0,
2025-03-04,127394.0,0.0,127394.0,0,
2025-03-05,127394.0,0.0,127394.0,0,
2025-03-06,127394.0,0.0,127394.0,0,
2025-03-07,127394.0,0.0,127394.0,0,
2025-03-09,127394.0,0.0,127394.0,0,
2025-03-10,127394.0,0.0,127394.0,0,
2025-03-11,127394.0,0.0,127394.0,0,
2025-03-12,127394.0,0.0,127394.0,0,
2025-03-13,127394.0,0.0,127394.0,0,
2025-03-14,127394.0,0.0,127394.0,0,
2025-03-16,127394.0,0.0,127394.0,0,
2025-03-17,127394.0,0.0,127394.0,0,
2025-03-18,127394.0,0.0,127394.0,0,
2025-03-19,127394.0,0.0,127394.0,0,
2025-03-20,127394.0,0.0,127394.0,0,
2025-03-21,127394.0,0.0,127394.0,0,
2025-03-23,127394.0,0.0,127394.0,0,
2025-03-24,127394.0,0.0,127394.0,0,
2025-03-25,127394.0,0.0,127394.0,0,
2025-03-26,127394.0,0.0,127394.0,0,
2025-03-27,127394.0,0.0,127394.0,0,
2025-03-28,127394.0,0.0,127394.0,0,
2025-03-30,127394.0,0.0,127394.0,0,
2025-03-31,127394.0,0.0,127394.0,0,
2025-04-01,127394.0,0.0,127394.0,0,
2025-04-02,127394.0,0.0,127394.0,0,
2025-04-03,127394.0,0.0,127394.0,0,
2025-04-04,127394.0,0.0,127394.0,0,
2025-04-06,127394.0,0.0,127394.0,0,
2025-04-07,127394.0,0.0,127394.0,0,
2025-04-08,127394.0,0.0,127394.0,0,
2025-04-09,127394.0,10725.0,138119.0,3,Long
2025-04-10,127394.0,7575.0,134969.0,3,Long
2025-04-11,127394.0,9663.0,137057.0,3,Long
2025-04-13,127394.0,9855.0,137249.0,3,Long
2025-04-14,127394.0,10509.0,137903.0,3,Long
2025-04-15,127394.0,9636.0,137030.0,3,Long
2025-04-16,127394.0,8664.0,136058.0,3,Long
2025-04-17,127394.0,6549.0,133943.0,3,Long
2025-04-20,127394.0,5331.0,132725.0,3,Long
2025-04-21,127394.0,3672.0,131066.0,3,Long
2025-04-22,127394.0,7746.0,135140.0,3,Long
2025-04-23,127394.0,7314.0,134708.0,3,Long
2025-04-24,127394.0,9240.0,136634.0,3,Long
2025-04-25,127394.0,9259.0,136653.0,4,Long
2025-04-27,127394.0,8467.0,135861.0,4,Long
2025-04-28,127394.0,9815.0,137209.0,4,Long
2025-04-29,127394.0,10379.0,137773.0,4,Long
2025-04-30,127394.0,12191.0,139585.0,4,Long
2025-05-01,127394.0,12975.0,140369.0,4,Long
2025-05-02,127394.0,13911.0,141305.0,4,Long
2025-05-04,127394.0,12787.0,140181.0,4,Long
2025-05-05,127394.0,13339.0,140733.0,4,Long
2025-05-06,127394.0,12727.0,140121.0,4,Long
2025-05-07,127394.0,13927.0,141321.0,4,Long
2025-05-08,127394.0,14067.0,141461.0,4,Long
2025-05-09,127394.0,13679.0,141073.0,5,Long
2025-05-11,127394.0,15754.0,143148.0,5,Long
2025-05-12,127394.0,18724.0,146118.0,5,Long
2025-05-13,127394.0,18004.0,145398.0,5,Long
2025-05-14,127394.0,16599.0,143993.0,5,Long
2025-05-15,127394.0,18784.0,146178.0,5,Long
2025-05-16,127394.0,19534.0,146928.0,5,Long
2025-05-18,127394.0,18849.0,146243.0,5,Long
2025-05-19,127394.0,20974.0,148368.0,5,Long
2025-05-20,127394.0,20099.0,147493.0,5,Long
2025-05-21,127394.0,16549.0,143943.0,5,Long
2025-05-22,127394.0,16614.0,144008.0,5,Long
2025-05-23,127394.0,15118.0,142512.0,6,Long
2025-05-25,127394.0,17344.0,144738.0,6,Long
2025-05-26,127394.0,17080.0,144474.0,6,Long
2025-05-27,127394.0,19408.0,146802.0,6,Long
2025-05-28,127394.0,21292.0,148686.0,6,Long
2025-05-29,127394.0,18400.0,145794.0,6,Long
2025-05-30,127394.0,18742.0,146136.0,6,Long
2025-06-01,127394.0,17926.0,145320.0,6,Long
2025-06-02,127394.0,18424.0,145818.0,6,Long
2025-06-03,127394.0,20500.0,147894.0,6,Long
2025-06-04,127394.0,19960.0,147354.0,6,Long
2025-06-05,127394.0,20020.0,147414.0,6,Long
2025-06-06,127394.0,22091.0,149485.0,7,Long
2025-06-08,127394.0,21475.0,148869.0,7,Long
2025-06-09,127394.0,22714.0,150108.0,7,Long
2025-06-10,127394.0,21965.0,149359.0,7,Long
2025-06-11,127394.0,21566.0,148960.0,7,Long
2025-06-12,127394.0,19158.0,146552.0,7,Long
2025-06-13,127394.0,17506.0,144900.0,7,Long
2025-06-15,127394.0,20096.0,147490.0,7,Long
2025-06-16,127394.0,21370.0,148764.0,7,Long
2025-06-17,127394.0,20173.0,147567.0,7,Long
2025-06-18,127394.0,19487.0,146881.0,7,Long
2025-06-19,127394.0,19046.0,146440.0,7,Long
2025-06-20,127394.0,20357.0,147751.0,8,Long
2025-06-22,127394.0,18861.0,146255.0,8,Long
2025-06-23,127394.0,24773.0,152167.0,8,Long
2025-06-24,127394.0,27149.0,154543.0,8,Long
2025-06-25,127394.0,26509.0,153903.0,8,Long
2025-06-26,127394.0,30157.0,157551.0,8,Long
2025-06-27,127394.0,33757.0,161151.0,8,Long
2025-06-29,127394.0,34749.0,162143.0,8,Long
2025-06-30,127394.0,34605.0,161999.0,8,Long
2025-07-01,127394.0,38733.0,166127.0,8,Long
2025-07-02,127394.0,38213.0,165607.0,8,Long
2025-07-03,127394.0,39685.0,167079.0,8,Long
2025-07-04,127394.0,38509.0,165903.0,9,Long
2025-07-06,127394.0,39715.0,167109.0,9,Long
2025-07-07,127394.0,36610.0,164004.0,9,Long
2025-07-08,127394.0,35125.0,162519.0,9,Long
2025-07-09,127394.0,36448.0,163842.0,9,Long
2025-07-10,127394.0,37879.0,165273.0,9,Long
2025-07-11,127394.0,35971.0,163365.0,9,Long
2025-07-13,127394.0,34585.0,161979.0,9,Long
2025-07-14,127394.0,36862.0,164256.0,9,Long
2025-07-15,127394.0,32470.0,159864.0,9,Long
2025-07-16,127394.0,34414.0,161808.0,9,Long
2025-07-17,127394.0,38113.0,165507.0,9,Long
2025-07-18,127394.0,35765.0,163159.0,10,Long
2025-07-20,127394.0,36125.0,163519.0,10,Long
2025-07-21,127394.0,36315.0,163709.0,10,Long
2025-07-22,127394.0,38635.0,166029.0,10,Long
2025-07-23,127394.0,41235.0,168629.0,10,Long
2025-07-24,127394.0,40685.0,168079.0,10,Long
2025-07-25,127394.0,41255.0,168649.0,10,Long
2025-07-27,127394.0,42985.0,170379.0,10,Long
2025-07-28,127394.0,40915.0,168309.0,10,Long
2025-07-29,127394.0,38885.0,166279.0,10,Long
2025-07-30,127394.0,37945.0,165339.0,10,Long
2025-07-31,127394.0,32835.0,160229.0,10,Long
2025-08-01,160199.0,0.0,160199.0,0,
2025-08-03,160199.0,0.0,160199.0,0,
2025-08-04,160199.0,0.0,160199.0,0,
2025-08-05,160199.0,0.0,160199.0,0,
2025-08-06,160199.0,0.0,160199.0,0,
2025-08-07,160199.0,0.0,160199.0,0,
2025-08-08,160199.0,0.0,160199.0,0,
2025-08-10,160199.0,0.0,160199.0,0,
2025-08-11,160199.0,0.0,160199.0,0,
2025-08-12,160199.0,0.0,160199.0,0,
2025-08-13,160199.0,0.0,160199.0,0,
2025-08-14,160199.0,804.0,161003.0,3,Long
2025-08-15,160199.0,-12.0,160187.0,3,Long
2025-08-17,160205.0,0.0,160205.0,0,
2025-08-18,160205.0,-444.0,159761.0,3,Long
2025-08-19,159767.0,0.0,159767.0,0,
2025-08-20,159767.0,0.0,159767.0,0,
2025-08-21,159767.0,0.0,159767.0,0,
2025-08-22,159767.0,0.0,159767.0,0,
2025-08-24,159767.0,-183.0,159584.0,3,Long
2025-08-25,159767.0,-1296.0,158471.0,3,Long
2025-08-26,159767.0,-582.0,159185.0,3,Long
2025-08-27,159767.0,0.0,159767.0,3,Long
2025-08-28,159767.0,-258.0,159509.0,3,Long
2025-08-29,159767.0,-282.0,159485.0,3,Long
2025-08-31,159767.0,-375.0,159392.0,3,Long
2025-09-01,159767.0,-402.0,159365.0,3,Long
2025-09-02,159767.0,-1545.0,158222.0,3,Long
2025-09-03,159767.0,-1383.0,158384.0,3,Long
2025-09-04,159767.0,-81.0,159686.0,3,Long
2025-09-05,159767.0,-777.0,158990.0,4,Long
2025-09-07,159767.0,-613.0,159154.0,4,Long
2025-09-08,159767.0,-141.0,159626.0,4,Long
2025-09-09,159767.0,207.0,159974.0,4,Long
2025-09-10,159767.0,-349.0,159418.0,4,Long
2025-09-11,159767.0,1963.0,161730.0,4,Long
2025-09-12,159767.0,787.0,160554.0,4,Long
2025-09-14,159767.0,2223.0,161990.0,4,Long
2025-09-15,159767.0,2507.0,162274.0,4,Long
2025-09-16,159767.0,1719.0,161486.0,4,Long
2025-09-17,159767.0,3371.0,163138.0,4,Long
2025-09-18,159767.0,3615.0,163382.0,4,Long
2025-09-19,159767.0,3724.0,163491.0,5,Long
2025-09-21,159767.0,3684.0,163451.0,5,Long
2025-09-22,159767.0,4294.0,164061.0,5,Long
2025-09-23,159767.0,4094.0,163861.0,5,Long
2025-09-24,159767.0,3339.0,163106.0,5,Long
2025-09-25,159767.0,2054.0,161821.0,5,Long
2025-09-26,159767.0,3469.0,163236.0,5,Long
2025-09-28,159767.0,4039.0,163806.0,5,Long
2025-09-29,159767.0,3694.0,163461.0,5,Long
2025-09-30,159767.0,3169.0,162936.0,5,Long
2025-10-01,159767.0,4239.0,164006.0,5,Long
2025-10-02,159767.0,5109.0,164876.0,5,Long
2025-10-03,159767.0,5831.0,165598.0,6,Long
2025-10-05,159767.0,6359.0,166126.0,6,Long
2025-10-06,159767.0,4781.0,164548.0,6,Long
2025-10-07,159767.0,5027.0,164794.0,6,Long
2025-10-08,159767.0,4475.0,164242.0,6,Long
2025-10-09,159767.0,3449.0,163216.0,6,Long
2025-10-10,163222.0,0.0,163222.0,0,
2025-10-12,163222.0,0.0,163222.0,0,
2025-10-13,163222.0,0.0,163222.0,0,
2025-10-14,163222.0,0.0,163222.0,0,
2025-10-15,163222.0,0.0,163222.0,0,
2025-10-16,163222.0,0.0,163222.0,0,
2025-10-17,163222.0,0.0,163222.0,0,
2025-10-19,163222.0,0.0,163222.0,0,
2025-10-20,163222.0,0.0,163222.0,0,
2025-10-21,163222.0,0.0,163222.0,0,
2025-10-22,163222.0,0.0,163222.0,0,
2025-10-23,163222.0,0.0,163222.0,0,
2025-10-24,163222.0,1239.0,164461.0,3,Long
2025-10-26,163222.0,2055.0,165277.0,3,Long
2025-10-27,163222.0,2223.0,165445.0,3,Long
2025-10-28,163222.0,2613.0,165835.0,3,Long
2025-10-29,163222.0,2721.0,165943.0,3,Long
2025-10-30,163222.0,2187.0,165409.0,3,Long
2025-10-31,163222.0,2271.0,165493.0,3,Long
2025-11-02,163222.0,2400.0,165622.0,3,Long
2025-11-03,163222.0,996.0,164218.0,3,Long
2025-11-04,163222.0,801.0,164023.0,3,Long
2025-11-05,163222.0,1365.0,164587.0,3,Long
2025-11-06,163222.0,255.0,163477.0,3,Long
2025-11-07,163222.0,722.0,163944.0,4,Long
2025-11-09,163222.0,722.0,163944.0,4,Long
2025-11-10,163222.0,1970.0,165192.0,4,Long
2025-11-11,163222.0,4350.0,167572.0,4,Long
2025-11-12,163222.0,5994.0,169216.0,4,Long
2025-11-13,163222.0,2286.0,165508.0,4,Long
2025-11-14,163222.0,1182.0,164404.0,4,Long
2025-11-16,163222.0,1194.0,164416.0,4,Long
2025-11-17,164416.0,0.0,164416.0,0,
2025-11-18,164416.0,0.0,164416.0,0,
2025-11-19,164416.0,0.0,164416.0,0,
2025-11-20,164416.0,0.0,164416.0,0,
2025-11-21,164416.0,0.0,164416.0,0,
2025-11-23,164416.0,0.0,164416.0,0,
2025-11-24,164416.0,0.0,164416.0,0,
2025-11-25,164416.0,0.0,164416.0,0,
2025-11-26,164416.0,0.0,164416.0,0,
2025-11-27,164416.0,0.0,164416.0,0,
2025-11-28,164416.0,0.0,164416.0,0,
2025-11-30,164416.0,0.0,164416.0,0,
2025-12-01,164416.0,0.0,164416.0,0,
2025-12-02,164416.0,0.0,164416.0,0,
2025-12-03,164416.0,1071.0,165487.0,3,Long
2025-12-04,164416.0,843.0,165259.0,3,Long
2025-12-05,164416.0,1050.0,165466.0,3,Long
2025-12-07,164416.0,1071.0,165487.0,3,Long
2025-12-08,164416.0,420.0,164836.0,3,Long
2025-12-09,164416.0,-54.0,164362.0,3,Long
2025-12-10,164362.0,0.0,164362.0,0,
2025-12-11,164362.0,2802.0,167164.0,3,Long
2025-12-12,164362.0,1818.0,166180.0,3,Long
2025-12-14,164362.0,3336.0,167698.0,3,Long
2025-12-15,164362.0,2439.0,166801.0,3,Long
2025-12-16,164362.0,1518.0,165880.0,3,Long
2025-12-17,164362.0,906.0,165268.0,3,Long
2025-12-18,164362.0,963.0,165325.0,3,Long
2025-12-19,164362.0,1775.0,166137.0,4,Long
2025-12-21,164362.0,1815.0,166177.0,4,Long
2025-12-22,164362.0,2387.0,166749.0,4,Long
2025-12-23,164362.0,2707.0,167069.0,4,Long
2025-12-24,164362.0,3895.0,168257.0,4,Long
2025-12-25,164362.0,3955.0,168317.0,4,Long
2025-12-26,164362.0,3835.0,168197.0,4,Long
2025-12-28,164362.0,3795.0,168157.0,4,Long
2025-12-29,164362.0,2835.0,167197.0,4,Long
2025-12-30,164362.0,2327.0,166689.0,4,Long
2025-12-31,164362.0,1187.0,165549.0,4,Long
2026-01-01,164362.0,1615.0,165977.0,4,Long
2026-01-02,164362.0,2270.0,166632.0,5,Long
2026-01-04,164362.0,2435.0,166797.0,5,Long
2026-01-05,164362.0,5505.0,169867.0,5,Long
2026-01-06,164362.0,8260.0,172622.0,5,Long
2026-01-07,164362.0,5055.0,169417.0,5,Long
2026-01-08,164362.0,6775.0,171137.0,5,Long
2026-01-09,164362.0,7940.0,172302.0,5,Long
2026-01-11,164362.0,6665.0,171027.0,5,Long
2026-01-12,164362.0,8270.0,172632.0,5,Long
2026-01-13,164362.0,5655.0,170017.0,5,Long
2026-01-14,164362.0,5785.0,170147.0,5,Long
2026-01-15,164362.0,8005.0,172367.0,5,Long
2026-01-16,164362.0,7062.0,171424.0,6,Long
2026-01-18,164362.0,4788.0,169150.0,6,Long
2026-01-19,164362.0,4212.0,168574.0,6,Long
2026-01-20,164362.0,2316.0,166678.0,6,Long
2026-01-21,164362.0,5868.0,170230.0,6,Long
2026-01-22,164362.0,7308.0,171670.0,6,Long
2026-01-23,164362.0,4806.0,169168.0,6,Long
2026-01-25,164362.0,4542.0,168904.0,6,Long
2026-01-26,164362.0,6834.0,171196.0,6,Long
2026-01-27,164362.0,4602.0,168964.0,6,Long
2026-01-28,164362.0,4476.0,168838.0,6,Long
2026-01-29,164362.0,3600.0,167962.0,6,Long
2026-01-30,164362.0,3518.0,167880.0,7,Long
2026-02-01,164362.0,1194.0,165556.0,7,Long
2026-02-02,164362.0,7620.0,171982.0,7,Long
2026-02-03,164362.0,6465.0,170827.0,7,Long
2026-02-04,164362.0,7375.0,171737.0,7,Long
2026-02-05,164362.0,2769.0,167131.0,7,Long
2026-02-06,164362.0,12058.0,176420.0,7,Long
2026-02-08,164362.0,12618.0,176980.0,7,Long
2026-02-09,164362.0,12303.0,176665.0,7,Long
2026-02-10,164362.0,13395.0,177757.0,7,Long
2026-02-11,164362.0,13101.0,177463.0,7,Long
2026-02-12,164362.0,7130.0,171492.0,7,Long
2026-02-13,164362.0,7321.0,171683.0,8,Long
2026-02-15,164362.0,8249.0,172611.0,8,Long
2026-02-16,164362.0,6537.0,170899.0,8,Long
2026-02-17,164362.0,8313.0,172675.0,8,Long
2026-02-18,164362.0,8713.0,173075.0,8,Long
2026-02-19,164362.0,7273.0,171635.0,8,Long
2026-02-20,164362.0,8561.0,172923.0,8,Long
2026-02-22,164362.0,5977.0,170339.0,8,Long
2026-02-23,164362.0,2601.0,166963.0,8,Long
2026-02-24,164362.0,4977.0,169339.0,8,Long
2026-02-25,164362.0,6681.0,171043.0,8,Long
2026-02-26,164362.0,5465.0,169827.0,8,Long
2026-02-27,164362.0,2331.0,166693.0,9,Long
2026-03-01,163174.0,0.0,163174.0,0,
2026-03-02,163174.0,0.0,163174.0,0,
2026-03-03,163174.0,0.0,163174.0,0,
2026-03-04,163174.0,0.0,163174.0,0,
2026-03-05,163174.0,0.0,163174.0,0,
2026-03-06,163174.0,0.0,163174.0,0,
2026-03-08,163174.0,0.0,163174.0,0,
