date,realized_points,open_unrealized_points,total_equity_points,open_units,direction
2019-05-05,0.0,0.0,0.0,0,
2019-05-06,0.0,0.0,0.0,0,
2019-05-07,0.0,0.0,0.0,0,
2019-05-08,0.0,0.0,0.0,0,
2019-05-09,0.0,0.0,0.0,0,
2019-05-10,0.0,0.0,0.0,0,
2019-05-12,0.0,0.0,0.0,0,
2019-05-13,0.0,0.0,0.0,0,
2019-05-14,0.0,0.0,0.0,0,
2019-05-15,0.0,0.0,0.0,0,
2019-05-16,0.0,0.0,0.0,0,
2019-05-17,0.0,0.0,0.0,0,
2019-05-19,0.0,0.0,0.0,0,
2019-05-20,0.0,0.0,0.0,0,
2019-05-21,0.0,0.0,0.0,0,
2019-05-22,0.0,0.0,0.0,0,
2019-05-23,0.0,0.0,0.0,0,
2019-05-24,0.0,0.0,0.0,0,
2019-05-26,0.0,0.0,0.0,0,
2019-05-27,0.0,0.0,0.0,0,
2019-05-28,0.0,0.0,0.0,0,
2019-05-29,0.0,0.0,0.0,0,
2019-05-30,0.0,0.0,0.0,0,
2019-05-31,0.0,0.0,0.0,0,
2019-06-02,0.0,0.0,0.0,0,
2019-06-03,0.0,0.0,0.0,0,
2019-06-04,0.0,0.0,0.0,0,
2019-06-05,0.0,0.0,0.0,0,
2019-06-06,0.0,0.0,0.0,0,
2019-06-07,0.0,0.0,0.0,0,
2019-06-09,0.0,0.0,0.0,0,
2019-06-10,0.0,0.0,0.0,0,
2019-06-11,0.0,0.0,0.0,0,
2019-06-12,0.0,0.0,0.0,0,
2019-06-13,0.0,0.0,0.0,0,
2019-06-14,0.0,0.0,0.0,0,
2019-06-16,0.0,0.0,0.0,0,
2019-06-17,0.0,0.0,0.0,0,
2019-06-18,0.0,0.0,0.0,0,
2019-06-19,0.0,0.0,0.0,0,
2019-06-20,0.0,0.0,0.0,0,
2019-06-21,0.0,0.0,0.0,0,
2019-06-23,0.0,0.0,0.0,0,
2019-06-24,0.0,0.0,0.0,0,
2019-06-25,0.0,0.0,0.0,0,
2019-06-26,0.0,0.0,0.0,0,
2019-06-27,0.0,0.0,0.0,0,
2019-06-28,0.0,0.0,0.0,0,
2019-06-30,0.0,0.0,0.0,0,
2019-07-01,0.0,0.0,0.0,0,
2019-07-02,0.0,0.0,0.0,0,
2019-07-03,0.0,0.0,0.0,0,
2019-07-04,0.0,0.0,0.0,0,
2019-07-05,0.0,0.0,0.0,0,
2019-07-07,0.0,0.0,0.0,0,
2019-07-08,0.0,0.0,0.0,0,
2019-07-09,0.0,0.0,0.0,0,
2019-07-10,0.0,0.0,0.0,0,
2019-07-11,0.0,0.0,0.0,0,
2019-07-12,0.0,0.0,0.0,0,
2019-07-14,0.0,0.0,0.0,0,
2019-07-15,0.0,0.0,0.0,0,
2019-07-16,0.0,0.0,0.0,0,
2019-07-17,0.0,0.0,0.0,0,
2019-07-18,0.0,0.0,0.0,0,
2019-07-19,0.0,0.0,0.0,0,
2019-07-21,0.0,0.0,0.0,0,
2019-07-22,0.0,0.0,0.0,0,
2019-07-23,0.0,0.0,0.0,0,
2019-07-24,0.0,0.0,0.0,0,
2019-07-25,0.0,0.0,0.0,0,
2019-07-26,0.0,0.0,0.0,0,
2019-07-28,0.0,0.0,0.0,0,
2019-07-29,0.0,0.0,0.0,0,
2019-07-30,0.0,0.0,0.0,0,
2019-07-31,0.0,0.0,0.0,0,
2019-08-01,0.0,0.0,0.0,0,
2019-08-02,0.0,0.0,0.0,0,
2019-08-04,0.0,0.0,0.0,0,
2019-08-05,0.0,0.0,0.0,0,
2019-08-06,0.0,0.0,0.0,0,
2019-08-07,0.0,0.0,0.0,0,
2019-08-08,0.0,0.0,0.0,0,
2019-08-09,0.0,0.0,0.0,0,
2019-08-11,0.0,0.0,0.0,0,
2019-08-12,0.0,0.0,0.0,0,
2019-08-13,0.0,0.0,0.0,0,
2019-08-14,0.0,0.0,0.0,0,
2019-08-15,0.0,0.0,0.0,0,
2019-08-16,0.0,0.0,0.0,0,
2019-08-18,0.0,0.0,0.0,0,
2019-08-19,0.0,0.0,0.0,0,
2019-08-20,0.0,0.0,0.0,0,
2019-08-21,0.0,0.0,0.0,0,
2019-08-22,0.0,0.0,0.0,0,
2019-08-23,0.0,0.0,0.0,0,
2019-08-25,0.0,0.0,0.0,0,
2019-08-26,0.0,0.0,0.0,0,
2019-08-27,0.0,0.0,0.0,0,
2019-08-28,0.0,0.0,0.0,0,
2019-08-29,0.0,0.0,0.0,0,
2019-08-30,0.0,0.0,0.0,0,
2019-09-01,0.0,0.0,0.0,0,
2019-09-02,0.0,0.0,0.0,0,
2019-09-03,0.0,0.0,0.0,0,
2019-09-04,0.0,0.0,0.0,0,
2019-09-05,0.0,0.0,0.0,0,
2019-09-06,0.0,0.0,0.0,0,
2019-09-08,0.0,0.0,0.0,0,
2019-09-09,0.0,0.0,0.0,0,
2019-09-10,0.0,0.0,0.0,0,
2019-09-11,0.0,0.0,0.0,0,
2019-09-12,0.0,0.0,0.0,0,
2019-09-13,0.0,0.0,0.0,0,
2019-09-15,0.0,0.0,0.0,0,
2019-09-16,0.0,0.0,0.0,0,
2019-09-17,0.0,0.0,0.0,0,
2019-09-18,0.0,0.0,0.0,0,
2019-09-19,0.0,0.0,0.0,0,
2019-09-20,0.0,0.0,0.0,0,
2019-09-22,0.0,0.0,0.0,0,
2019-09-23,0.0,0.0,0.0,0,
2019-09-24,0.0,0.0,0.0,0,
2019-09-25,0.0,0.0,0.0,0,
2019-09-26,0.0,0.0,0.0,0,
2019-09-27,0.0,0.0,0.0,0,
2019-09-29,0.0,0.0,0.0,0,
2019-09-30,0.0,0.0,0.0,0,
2019-10-01,0.0,0.0,0.0,0,
2019-10-02,0.0,0.0,0.0,0,
2019-10-03,0.0,0.0,0.0,0,
2019-10-04,0.0,0.0,0.0,0,
2019-10-06,0.0,0.0,0.0,0,
2019-10-07,0.0,0.0,0.0,0,
2019-10-08,0.0,0.0,0.0,0,
2019-10-09,0.0,0.0,0.0,0,
2019-10-10,0.0,0.0,0.0,0,
2019-10-11,0.0,0.0,0.0,0,
2019-10-13,0.0,0.0,0.0,0,
2019-10-14,0.0,0.0,0.0,0,
2019-10-15,0.0,0.0,0.0,0,
2019-10-16,0.0,0.0,0.0,0,
2019-10-17,0.0,0.0,0.0,0,
2019-10-18,0.0,0.0,0.0,0,
2019-10-20,0.0,0.0,0.0,0,
2019-10-21,0.0,0.0,0.0,0,
2019-10-22,0.0,0.0,0.0,0,
2019-10-23,0.0,0.0,0.0,0,
2019-10-24,0.0,0.0,0.0,0,
2019-10-25,0.0,0.0,0.0,0,
2019-10-27,0.0,0.0,0.0,0,
2019-10-28,0.0,0.0,0.0,0,
2019-10-29,0.0,0.0,0.0,0,
2019-10-30,0.0,0.0,0.0,0,
2019-10-31,0.0,0.0,0.0,0,
2019-11-01,0.0,0.0,0.0,0,
2019-11-03,0.0,0.0,0.0,0,
2019-11-04,0.0,0.0,0.0,0,
2019-11-05,0.0,0.0,0.0,0,
2019-11-06,0.0,0.0,0.0,0,
2019-11-07,0.0,0.0,0.0,0,
2019-11-08,0.0,0.0,0.0,0,
2019-11-10,0.0,0.0,0.0,0,
2019-11-11,0.0,0.0,0.0,0,
2019-11-12,0.0,0.0,0.0,0,
2019-11-13,0.0,0.0,0.0,0,
2019-11-14,0.0,0.0,0.0,0,
2019-11-15,0.0,0.0,0.0,0,
2019-11-17,0.0,0.0,0.0,0,
2019-11-18,0.0,0.0,0.0,0,
2019-11-19,0.0,0.0,0.0,0,
2019-11-20,0.0,0.0,0.0,0,
2019-11-21,0.0,0.0,0.0,0,
2019-11-22,0.0,0.0,0.0,0,
2019-11-24,0.0,0.0,0.0,0,
2019-11-25,0.0,0.0,0.0,0,
2019-11-26,0.0,0.0,0.0,0,
2019-11-27,0.0,0.0,0.0,0,
2019-11-28,0.0,0.0,0.0,0,
2019-11-29,0.0,0.0,0.0,0,
2019-12-01,0.0,0.0,0.0,0,
2019-12-02,0.0,0.0,0.0,0,
2019-12-03,0.0,0.0,0.0,0,
2019-12-04,0.0,0.0,0.0,0,
2019-12-05,0.0,0.0,0.0,0,
2019-12-06,0.0,0.0,0.0,0,
2019-12-08,0.0,0.0,0.0,0,
2019-12-09,0.0,0.0,0.0,0,
2019-12-10,0.0,0.0,0.0,0,
2019-12-11,0.0,0.0,0.0,0,
2019-12-12,0.0,0.0,0.0,0,
2019-12-13,0.0,0.0,0.0,0,
2019-12-15,0.0,0.0,0.0,0,
2019-12-16,0.0,0.0,0.0,0,
2019-12-17,0.0,0.0,0.0,0,
2019-12-18,0.0,0.0,0.0,0,
2019-12-19,0.0,0.0,0.0,0,
2019-12-20,0.0,0.0,0.0,0,
2019-12-22,0.0,0.0,0.0,0,
2019-12-23,0.0,0.0,0.0,0,
2019-12-24,0.0,0.0,0.0,0,
2019-12-25,0.0,0.0,0.0,0,
2019-12-26,0.0,0.0,0.0,0,
2019-12-27,0.0,0.0,0.0,0,
2019-12-29,0.0,0.0,0.0,0,
2019-12-30,0.0,0.0,0.0,0,
2019-12-31,0.0,0.0,0.0,0,
2020-01-01,0.0,0.0,0.0,0,
2020-01-02,0.0,0.0,0.0,0,
2020-01-03,0.0,0.0,0.0,0,
2020-01-05,0.0,0.0,0.0,0,
2020-01-06,0.0,0.0,0.0,0,
2020-01-07,0.0,0.0,0.0,0,
2020-01-08,0.0,0.0,0.0,0,
2020-01-09,0.0,0.0,0.0,0,
2020-01-10,0.0,0.0,0.0,0,
2020-01-12,0.0,0.0,0.0,0,
2020-01-13,0.0,0.0,0.0,0,
2020-01-14,0.0,0.0,0.0,0,
2020-01-15,0.0,0.0,0.0,0,
2020-01-16,0.0,0.0,0.0,0,
2020-01-17,0.0,0.0,0.0,0,
2020-01-19,0.0,0.0,0.0,0,
2020-01-20,0.0,0.0,0.0,0,
2020-01-21,0.0,0.0,0.0,0,
2020-01-22,0.0,0.0,0.0,0,
2020-01-23,0.0,0.0,0.0,0,
2020-01-24,0.0,0.0,0.0,0,
2020-01-26,0.0,0.0,0.0,0,
2020-01-27,0.0,0.0,0.0,0,
2020-01-28,0.0,0.0,0.0,0,
2020-01-29,0.0,0.0,0.0,0,
2020-01-30,0.0,0.0,0.0,0,
2020-01-31,0.0,0.0,0.0,0,
2020-02-02,0.0,0.0,0.0,0,
2020-02-03,0.0,0.0,0.0,0,
2020-02-04,0.0,0.0,0.0,0,
2020-02-05,0.0,0.0,0.0,0,
2020-02-06,0.0,0.0,0.0,0,
2020-02-07,0.0,0.0,0.0,0,
2020-02-09,0.0,0.0,0.0,0,
2020-02-10,0.0,0.0,0.0,0,
2020-02-11,0.0,0.0,0.0,0,
2020-02-12,0.0,0.0,0.0,0,
2020-02-13,0.0,0.0,0.0,0,
2020-02-14,0.0,0.0,0.0,0,
2020-02-16,0.0,0.0,0.0,0,
2020-02-17,0.0,0.0,0.0,0,
2020-02-18,0.0,0.0,0.0,0,
2020-02-19,0.0,0.0,0.0,0,
2020-02-20,0.0,0.0,0.0,0,
2020-02-21,0.0,0.0,0.0,0,
2020-02-23,0.0,0.0,0.0,0,
2020-02-24,0.0,0.0,0.0,0,
2020-02-25,0.0,0.0,0.0,0,
2020-02-26,0.0,0.0,0.0,0,
2020-02-27,0.0,0.0,0.0,0,
2020-02-28,0.0,0.0,0.0,0,
2020-03-01,0.0,0.0,0.0,0,
2020-03-02,0.0,0.0,0.0,0,
2020-03-03,0.0,0.0,0.0,0,
2020-03-04,0.0,0.0,0.0,0,
2020-03-05,0.0,0.0,0.0,0,
2020-03-06,0.0,0.0,0.0,0,
2020-03-08,0.0,0.0,0.0,0,
2020-03-09,0.0,0.0,0.0,0,
2020-03-10,0.0,0.0,0.0,0,
2020-03-11,0.0,0.0,0.0,0,
2020-03-12,0.0,0.0,0.0,0,
2020-03-13,0.0,0.0,0.0,0,
2020-03-15,0.0,0.0,0.0,0,
2020-03-16,0.0,0.0,0.0,0,
2020-03-17,0.0,0.0,0.0,0,
2020-03-18,0.0,0.0,0.0,0,
2020-03-19,0.0,0.0,0.0,0,
2020-03-20,0.0,0.0,0.0,0,
2020-03-22,0.0,0.0,0.0,0,
2020-03-23,0.0,0.0,0.0,0,
2020-03-24,0.0,0.0,0.0,0,
2020-03-25,0.0,0.0,0.0,0,
2020-03-26,0.0,0.0,0.0,0,
2020-03-27,0.0,0.0,0.0,0,
2020-03-29,0.0,0.0,0.0,0,
2020-03-30,0.0,0.0,0.0,0,
2020-03-31,0.0,0.0,0.0,0,
2020-04-01,0.0,0.0,0.0,0,
2020-04-02,0.0,0.0,0.0,0,
2020-04-03,0.0,0.0,0.0,0,
2020-04-05,0.0,0.0,0.0,0,
2020-04-06,0.0,0.0,0.0,0,
2020-04-07,0.0,0.0,0.0,0,
2020-04-08,0.0,0.0,0.0,0,
2020-04-09,0.0,0.0,0.0,0,
2020-04-12,0.0,0.0,0.0,0,
2020-04-13,0.0,0.0,0.0,0,
2020-04-14,0.0,0.0,0.0,0,
2020-04-15,0.0,0.0,0.0,0,
2020-04-16,0.0,0.0,0.0,0,
2020-04-17,0.0,0.0,0.0,0,
2020-04-19,0.0,0.0,0.0,0,
2020-04-20,0.0,0.0,0.0,0,
2020-04-21,0.0,0.0,0.0,0,
2020-04-22,0.0,0.0,0.0,0,
2020-04-23,0.0,0.0,0.0,0,
2020-04-24,0.0,0.0,0.0,0,
2020-04-26,0.0,0.0,0.0,0,
2020-04-27,0.0,0.0,0.0,0,
2020-04-28,0.0,0.0,0.0,0,
2020-04-29,0.0,0.0,0.0,0,
2020-04-30,0.0,0.0,0.0,0,
2020-05-01,0.0,0.0,0.0,0,
2020-05-03,0.0,0.0,0.0,0,
2020-05-04,0.0,0.0,0.0,0,
2020-05-05,0.0,0.0,0.0,0,
2020-05-06,0.0,0.0,0.0,0,
2020-05-07,0.0,0.0,0.0,0,
2020-05-08,0.0,0.0,0.0,0,
2020-05-10,0.0,0.0,0.0,0,
2020-05-11,0.0,0.0,0.0,0,
2020-05-12,0.0,0.0,0.0,0,
2020-05-13,0.0,0.0,0.0,0,
2020-05-14,0.0,0.0,0.0,0,
2020-05-15,0.0,0.0,0.0,0,
2020-05-17,0.0,0.0,0.0,0,
2020-05-18,0.0,0.0,0.0,0,
2020-05-19,0.0,0.0,0.0,0,
2020-05-20,0.0,0.0,0.0,0,
2020-05-21,0.0,0.0,0.0,0,
2020-05-22,0.0,0.0,0.0,0,
2020-05-24,0.0,0.0,0.0,0,
2020-05-25,0.0,0.0,0.0,0,
2020-05-26,0.0,0.0,0.0,0,
2020-05-27,0.0,0.0,0.0,0,
2020-05-28,0.0,0.0,0.0,0,
2020-05-29,0.0,0.0,0.0,0,
2020-05-31,0.0,0.0,0.0,0,
2020-06-01,0.0,0.0,0.0,0,
2020-06-02,0.0,0.0,0.0,0,
2020-06-03,0.0,0.0,0.0,0,
2020-06-04,0.0,0.0,0.0,0,
2020-06-05,0.0,0.0,0.0,0,
2020-06-07,0.0,0.0,0.0,0,
2020-06-08,0.0,0.0,0.0,0,
2020-06-09,0.0,0.0,0.0,0,
2020-06-10,0.0,0.0,0.0,0,
2020-06-11,0.0,0.0,0.0,0,
2020-06-12,0.0,0.0,0.0,0,
2020-06-14,0.0,0.0,0.0,0,
2020-06-15,0.0,0.0,0.0,0,
2020-06-16,0.0,0.0,0.0,0,
2020-06-17,0.0,0.0,0.0,0,
2020-06-18,0.0,0.0,0.0,0,
2020-06-19,0.0,0.0,0.0,0,
2020-06-21,0.0,0.0,0.0,0,
2020-06-22,0.0,0.0,0.0,0,
2020-06-23,0.0,0.0,0.0,0,
2020-06-24,0.0,0.0,0.0,0,
2020-06-25,0.0,0.0,0.0,0,
2020-06-26,0.0,0.0,0.0,0,
2020-06-28,0.0,0.0,0.0,0,
2020-06-29,0.0,0.0,0.0,0,
2020-06-30,0.0,0.0,0.0,0,
2020-07-01,0.0,0.0,0.0,0,
2020-07-02,0.0,0.0,0.0,0,
2020-07-03,0.0,0.0,0.0,0,
2020-07-05,0.0,0.0,0.0,0,
2020-07-06,0.0,0.0,0.0,0,
2020-07-07,0.0,0.0,0.0,0,
2020-07-08,0.0,0.0,0.0,0,
2020-07-09,0.0,0.0,0.0,0,
2020-07-10,0.0,0.0,0.0,0,
2020-07-12,0.0,0.0,0.0,0,
2020-07-13,0.0,0.0,0.0,0,
2020-07-14,0.0,0.0,0.0,0,
2020-07-15,0.0,0.0,0.0,0,
2020-07-16,0.0,0.0,0.0,0,
2020-07-17,0.0,0.0,0.0,0,
2020-07-19,0.0,0.0,0.0,0,
2020-07-20,0.0,0.0,0.0,0,
2020-07-21,0.0,0.0,0.0,0,
2020-07-22,0.0,0.0,0.0,0,
2020-07-23,0.0,0.0,0.0,0,
2020-07-24,0.0,0.0,0.0,0,
2020-07-26,0.0,0.0,0.0,0,
2020-07-27,0.0,0.0,0.0,0,
2020-07-28,0.0,0.0,0.0,0,
2020-07-29,0.0,0.0,0.0,0,
2020-07-30,0.0,0.0,0.0,0,
2020-07-31,0.0,0.0,0.0,0,
2020-08-02,0.0,0.0,0.0,0,
2020-08-03,0.0,0.0,0.0,0,
2020-08-04,0.0,0.0,0.0,0,
2020-08-05,0.0,0.0,0.0,0,
2020-08-06,0.0,0.0,0.0,0,
2020-08-07,0.0,0.0,0.0,0,
2020-08-09,0.0,0.0,0.0,0,
2020-08-10,0.0,0.0,0.0,0,
2020-08-11,0.0,0.0,0.0,0,
2020-08-12,0.0,0.0,0.0,0,
2020-08-13,0.0,0.0,0.0,0,
2020-08-14,0.0,0.0,0.0,0,
2020-08-16,0.0,0.0,0.0,0,
2020-08-17,0.0,0.0,0.0,0,
2020-08-18,0.0,0.0,0.0,0,
2020-08-19,0.0,0.0,0.0,0,
2020-08-20,0.0,0.0,0.0,0,
2020-08-21,0.0,0.0,0.0,0,
2020-08-23,0.0,0.0,0.0,0,
2020-08-24,0.0,0.0,0.0,0,
2020-08-25,0.0,0.0,0.0,0,
2020-08-26,0.0,0.0,0.0,0,
2020-08-27,0.0,0.0,0.0,0,
2020-08-28,0.0,0.0,0.0,0,
2020-08-30,0.0,0.0,0.0,0,
2020-08-31,0.0,0.0,0.0,0,
2020-09-01,0.0,0.0,0.0,0,
2020-09-02,0.0,0.0,0.0,0,
2020-09-03,0.0,0.0,0.0,0,
2020-09-04,0.0,0.0,0.0,0,
2020-09-06,0.0,0.0,0.0,0,
2020-09-07,0.0,0.0,0.0,0,
2020-09-08,0.0,0.0,0.0,0,
2020-09-09,0.0,0.0,0.0,0,
2020-09-10,0.0,0.0,0.0,0,
2020-09-11,0.0,0.0,0.0,0,
2020-09-13,0.0,0.0,0.0,0,
2020-09-14,0.0,0.0,0.0,0,
2020-09-15,0.0,0.0,0.0,0,
2020-09-16,0.0,0.0,0.0,0,
2020-09-17,0.0,0.0,0.0,0,
2020-09-18,0.0,0.0,0.0,0,
2020-09-20,0.0,0.0,0.0,0,
2020-09-21,0.0,0.0,0.0,0,
2020-09-22,0.0,0.0,0.0,0,
2020-09-23,0.0,0.0,0.0,0,
2020-09-24,0.0,0.0,0.0,0,
2020-09-25,0.0,0.0,0.0,0,
2020-09-27,0.0,0.0,0.0,0,
2020-09-28,0.0,0.0,0.0,0,
2020-09-29,0.0,0.0,0.0,0,
2020-09-30,0.0,0.0,0.0,0,
2020-10-01,0.0,0.0,0.0,0,
2020-10-02,0.0,0.0,0.0,0,
2020-10-04,0.0,0.0,0.0,0,
2020-10-05,0.0,0.0,0.0,0,
2020-10-06,0.0,0.0,0.0,0,
2020-10-07,0.0,0.0,0.0,0,
2020-10-08,0.0,0.0,0.0,0,
2020-10-09,0.0,0.0,0.0,0,
2020-10-11,0.0,0.0,0.0,0,
2020-10-12,0.0,365.75,365.75,1,Long
2020-10-13,0.0,371.25,371.25,1,Long
2020-10-14,0.0,217.5,217.5,1,Long
2020-10-15,0.0,172.0,172.0,1,Long
2020-10-16,0.0,49.75,49.75,1,Long
2020-10-18,0.0,129.5,129.5,1,Long
2020-10-19,0.0,-28.5,-28.5,1,Long
2020-10-20,-28.25,0.0,-28.25,0,
2020-10-21,-28.25,0.0,-28.25,0,
2020-10-22,-28.25,0.0,-28.25,0,
2020-10-23,-28.25,0.0,-28.25,0,
2020-10-25,-28.25,0.0,-28.25,0,
2020-10-26,-28.25,0.0,-28.25,0,
2020-10-27,-28.25,0.0,-28.25,0,
2020-10-28,-28.25,0.0,-28.25,0,
2020-10-29,-28.25,0.0,-28.25,0,
2020-10-30,-28.25,0.0,-28.25,0,
2020-11-01,-28.25,0.0,-28.25,0,
2020-11-02,-28.25,0.0,-28.25,0,
2020-11-03,-28.25,0.0,-28.25,0,
2020-11-04,-28.25,0.0,-28.25,0,
2020-11-05,-28.25,272.25,244.0,1,Long
2020-11-06,-28.25,300.25,272.0,1,Long
2020-11-08,-28.25,438.0,409.75,1,Long
2020-11-09,-28.25,59.75,31.5,1,Long
2020-11-10,-28.25,-197.0,-225.25,1,Long
2020-11-11,-225.75,0.0,-225.75,0,
2020-11-12,-225.75,-44.25,-270.0,1,Long
2020-11-13,-225.75,50.5,-175.25,1,Long
2020-11-15,-225.75,149.75,-76.0,1,Long
2020-11-16,-225.75,153.0,-72.75,1,Long
2020-11-17,-225.75,83.5,-142.25,1,Long
2020-11-18,-225.75,-15.25,-241.0,1,Long
2020-11-19,-225.75,41.75,-184.0,1,Long
2020-11-20,-225.75,-21.0,-246.75,2,Long
2020-11-22,-225.75,19.5,-206.25,2,Long
2020-11-23,-225.75,60.5,-165.25,2,Long
2020-11-24,-225.75,409.0,183.25,2,Long
2020-11-25,-225.75,516.0,290.25,2,Long
2020-11-26,-225.75,466.0,240.25,2,Long
2020-11-27,-225.75,704.0,478.25,2,Long
2020-11-29,-225.75,790.5,564.75,2,Long
2020-11-30,-225.75,854.5,628.75,2,Long
2020-12-01,-225.75,1058.5,832.75,2,Long
2020-12-02,-225.75,1089.0,863.25,2,Long
2020-12-03,-225.75,1127.0,901.25,2,Long
2020-12-04,-225.75,1179.0,953.25,4,Long
2020-12-06,-225.75,1317.0,1091.25,4,Long
2020-12-07,-225.75,1439.0,1213.25,4,Long
2020-12-08,-225.75,1727.0,1501.25,4,Long
2020-12-09,-225.75,591.0,365.25,4,Long
2020-12-10,-225.75,751.0,525.25,4,Long
2020-12-11,-225.75,604.0,378.25,4,Long
2020-12-13,-225.75,804.0,578.25,4,Long
2020-12-14,-225.75,1056.0,830.25,4,Long
2020-12-15,-225.75,1518.0,1292.25,4,Long
2020-12-16,-225.75,1869.0,1643.25,4,Long
2020-12-17,-225.75,2138.0,1912.25,4,Long
2020-12-18,-225.75,2351.0,2125.25,6,Long
2020-12-20,-225.75,2355.5,2129.75,6,Long
2020-12-21,-225.75,2069.0,1843.25,6,Long
2020-12-22,-225.75,2183.0,1957.25,6,Long
2020-12-23,-225.75,1790.0,1564.25,6,Long
2020-12-24,-225.75,2085.5,1859.75,6,Long
2020-12-27,-225.75,2267.0,2041.25,6,Long
2020-12-28,-225.75,2972.0,2746.25,6,Long
2020-12-29,-225.75,2928.5,2702.75,6,Long
2020-12-30,-225.75,2952.5,2726.75,6,Long
2020-12-31,-225.75,3167.0,2941.25,6,Long
2021-01-03,-225.75,3044.0,2818.25,6,Long
2021-01-04,-225.75,1910.0,1684.25,6,Long
2021-01-05,-225.75,2630.0,2404.25,6,Long
2021-01-06,-225.75,1898.0,1672.25,6,Long
2021-01-07,-225.75,3491.0,3265.25,6,Long
2021-01-08,-225.75,4608.5,4382.75,6,Long
2021-01-10,-225.75,4356.5,4130.75,6,Long
2021-01-11,-225.75,3393.5,3167.75,6,Long
2021-01-12,-225.75,3242.0,3016.25,6,Long
2021-01-13,-225.75,3681.5,3455.75,6,Long
2021-01-14,-225.75,3363.5,3137.75,6,Long
2021-01-15,-225.75,2351.0,2125.25,8,Long
2021-01-17,-225.75,2209.0,1983.25,8,Long
2021-01-18,-225.75,2893.0,2667.25,8,Long
2021-01-19,-225.75,4639.0,4413.25,8,Long
2021-01-20,-225.75,6757.0,6531.25,8,Long
2021-01-21,-225.75,7311.0,7085.25,8,Long
2021-01-22,-225.75,7055.0,6829.25,8,Long
2021-01-24,-225.75,7425.0,7199.25,8,Long
2021-01-25,-225.75,7937.0,7711.25,8,Long
2021-01-26,-225.75,8715.0,8489.25,8,Long
2021-01-27,-225.75,4065.0,3839.25,8,Long
2021-01-28,-225.75,5335.0,5109.25,8,Long
2021-01-29,5111.25,0.0,5111.25,0,
2021-01-31,5111.25,0.0,5111.25,0,
2021-02-01,5111.25,0.0,5111.25,0,
2021-02-02,5111.25,0.0,5111.25,0,
2021-02-03,5111.25,0.0,5111.25,0,
2021-02-04,5111.25,0.0,5111.25,0,
2021-02-05,5111.25,0.0,5111.25,0,
2021-02-07,5111.25,0.0,5111.25,0,
2021-02-08,5111.25,0.0,5111.25,0,
2021-02-09,5111.25,0.0,5111.25,0,
2021-02-10,5111.25,0.0,5111.25,0,
2021-02-11,5111.25,0.0,5111.25,0,
2021-02-12,5111.25,0.0,5111.25,0,
2021-02-14,5111.25,0.0,5111.25,0,
2021-02-15,5111.25,0.0,5111.25,0,
2021-02-16,5111.25,0.0,5111.25,0,
2021-02-17,5111.25,0.0,5111.25,0,
2021-02-18,5111.25,0.0,5111.25,0,
2021-02-19,5111.25,0.0,5111.25,0,
2021-02-21,5111.25,0.0,5111.25,0,
2021-02-22,5111.25,0.0,5111.25,0,
2021-02-23,5111.25,0.0,5111.25,0,
2021-02-24,5111.25,0.0,5111.25,0,
2021-02-25,5111.25,0.0,5111.25,0,
2021-02-26,5111.25,0.0,5111.25,0,
2021-02-28,5111.25,0.0,5111.25,0,
2021-03-01,5111.25,0.0,5111.25,0,
2021-03-02,5111.25,0.0,5111.25,0,
2021-03-03,5111.25,0.0,5111.25,0,
2021-03-04,5111.25,0.0,5111.25,0,
2021-03-05,5111.25,0.0,5111.25,0,
2021-03-07,5111.25,0.0,5111.25,0,
2021-03-08,5111.25,0.0,5111.25,0,
2021-03-09,5111.25,0.0,5111.25,0,
2021-03-10,5111.25,0.0,5111.25,0,
2021-03-11,5111.25,0.0,5111.25,0,
2021-03-12,5111.25,0.0,5111.25,0,
2021-03-14,5111.25,0.0,5111.25,0,
2021-03-15,5111.25,0.0,5111.25,0,
2021-03-16,5111.25,0.0,5111.25,0,
2021-03-17,5111.25,0.0,5111.25,0,
2021-03-18,5111.25,0.0,5111.25,0,
2021-03-19,5111.25,0.0,5111.25,0,
2021-03-21,5111.25,0.0,5111.25,0,
2021-03-22,5111.25,0.0,5111.25,0,
2021-03-23,5111.25,0.0,5111.25,0,
2021-03-24,5111.25,0.0,5111.25,0,
2021-03-25,5111.25,0.0,5111.25,0,
2021-03-26,5111.25,0.0,5111.25,0,
2021-03-28,5111.25,0.0,5111.25,0,
2021-03-29,5111.25,0.0,5111.25,0,
2021-03-30,5111.25,0.0,5111.25,0,
2021-03-31,5111.25,0.0,5111.25,0,
2021-04-01,5111.25,0.0,5111.25,0,
2021-04-02,5111.25,0.0,5111.25,0,
2021-04-04,5111.25,0.0,5111.25,0,
2021-04-05,5111.25,0.0,5111.25,0,
2021-04-06,5111.25,0.0,5111.25,0,
2021-04-07,5111.25,0.0,5111.25,0,
2021-04-08,5111.25,0.0,5111.25,0,
2021-04-09,5111.25,0.0,5111.25,0,
2021-04-11,5111.25,0.0,5111.25,0,
2021-04-12,5111.25,0.0,5111.25,0,
2021-04-13,5111.25,0.0,5111.25,0,
2021-04-14,5111.25,0.0,5111.25,0,
2021-04-15,5111.25,0.0,5111.25,0,
2021-04-16,5111.25,0.0,5111.25,0,
2021-04-18,5111.25,0.0,5111.25,0,
2021-04-19,5111.25,0.0,5111.25,0,
2021-04-20,5111.25,0.0,5111.25,0,
2021-04-21,5111.25,0.0,5111.25,0,
2021-04-22,5111.25,0.0,5111.25,0,
2021-04-23,5111.25,0.0,5111.25,0,
2021-04-25,5111.25,0.0,5111.25,0,
2021-04-26,5111.25,0.0,5111.25,0,
2021-04-27,5111.25,0.0,5111.25,0,
2021-04-28,5111.25,0.0,5111.25,0,
2021-04-29,5111.25,0.0,5111.25,0,
2021-04-30,5111.25,0.0,5111.25,0,
2021-05-02,5111.25,0.0,5111.25,0,
2021-05-03,5111.25,0.0,5111.25,0,
2021-05-04,5111.25,0.0,5111.25,0,
2021-05-05,5111.25,0.0,5111.25,0,
2021-05-06,5111.25,0.0,5111.25,0,
2021-05-07,5111.25,0.0,5111.25,0,
2021-05-09,5111.25,0.0,5111.25,0,
2021-05-10,5111.25,0.0,5111.25,0,
2021-05-11,5111.25,0.0,5111.25,0,
2021-05-12,5111.25,0.0,5111.25,0,
2021-05-13,5111.25,0.0,5111.25,0,
2021-05-14,5111.25,0.0,5111.25,0,
2021-05-16,5111.25,0.0,5111.25,0,
2021-05-17,5111.25,0.0,5111.25,0,
2021-05-18,5111.25,0.0,5111.25,0,
2021-05-19,5111.25,0.0,5111.25,0,
2021-05-20,5111.25,0.0,5111.25,0,
2021-05-21,5111.25,0.0,5111.25,0,
2021-05-23,5111.25,0.0,5111.25,0,
2021-05-24,5111.25,0.0,5111.25,0,
2021-05-25,5111.25,0.0,5111.25,0,
2021-05-26,5111.25,0.0,5111.25,0,
2021-05-27,5111.25,0.0,5111.25,0,
2021-05-28,5111.25,0.0,5111.25,0,
2021-05-30,5111.25,0.0,5111.25,0,
2021-05-31,5111.25,0.0,5111.25,0,
2021-06-01,5111.25,0.0,5111.25,0,
2021-06-02,5111.25,0.0,5111.25,0,
2021-06-03,5111.25,0.0,5111.25,0,
2021-06-04,5111.25,0.0,5111.25,0,
2021-06-06,5111.25,-4.5,5106.75,1,Long
2021-06-07,5106.5,0.0,5106.5,0,
2021-06-08,5106.5,-5.5,5101.0,1,Long
2021-06-09,5106.5,-7.5,5099.0,1,Long
2021-06-10,5106.5,145.25,5251.75,1,Long
2021-06-11,5106.5,162.25,5268.75,1,Long
2021-06-13,5106.5,187.0,5293.5,1,Long
2021-06-14,5106.5,283.75,5390.25,1,Long
2021-06-15,5106.5,208.75,5315.25,1,Long
2021-06-16,5106.5,64.0,5170.5,1,Long
2021-06-17,5106.5,353.0,5459.5,1,Long
2021-06-18,5106.5,151.0,5257.5,2,Long
2021-06-20,5106.5,191.5,5298.0,2,Long
2021-06-21,5106.5,385.0,5491.5,2,Long
2021-06-22,5106.5,660.0,5766.5,2,Long
2021-06-23,5106.5,687.5,5794.0,2,Long
2021-06-24,5106.5,808.0,5914.5,2,Long
2021-06-25,5106.5,777.5,5884.0,2,Long
2021-06-27,5106.5,824.5,5931.0,2,Long
2021-06-28,5106.5,1098.5,6205.0,2,Long
2021-06-29,5106.5,1290.5,6397.0,2,Long
2021-06-30,5106.5,1236.0,6342.5,2,Long
2021-07-01,5106.5,1181.0,6287.5,2,Long
2021-07-02,5106.5,1486.0,6592.5,4,Long
2021-07-04,5106.5,1542.0,6648.5,4,Long
2021-07-05,5106.5,1541.0,6647.5,4,Long
2021-07-06,5106.5,1743.0,6849.5,4,Long
2021-07-07,5106.5,1925.0,7031.5,4,Long
2021-07-08,5106.5,1452.0,6558.5,4,Long
2021-07-09,5106.5,1942.0,7048.5,4,Long
2021-07-11,5106.5,2002.0,7108.5,4,Long
2021-07-12,5106.5,2203.0,7309.5,4,Long
2021-07-13,5106.5,2064.0,7170.5,4,Long
2021-07-14,5106.5,2301.0,7407.5,4,Long
2021-07-15,5106.5,1712.0,6818.5,4,Long
2021-07-16,5106.5,1384.5,6491.0,6,Long
2021-07-18,5106.5,1219.5,6326.0,6,Long
2021-07-19,5106.5,900.0,6006.5,6,Long
2021-07-20,5106.5,1821.0,6927.5,6,Long
2021-07-21,5106.5,2376.0,7482.5,6,Long
2021-07-22,5106.5,3187.5,8294.0,6,Long
2021-07-23,5106.5,3918.0,9024.5,6,Long
2021-07-25,5106.5,4089.0,9195.5,6,Long
2021-07-26,5106.5,4032.0,9138.5,6,Long
2021-07-27,5106.5,2884.5,7991.0,6,Long
2021-07-28,5106.5,3292.5,8399.0,6,Long
2021-07-29,5106.5,2583.0,7689.5,6,Long
2021-07-30,5106.5,3209.5,8316.0,8,Long
2021-08-01,5106.5,3485.5,8592.0,8,Long
2021-08-02,5106.5,3161.5,8268.0,8,Long
2021-08-03,5106.5,3719.5,8826.0,8,Long
2021-08-04,5106.5,4141.5,9248.0,8,Long
2021-08-05,5106.5,4755.5,9862.0,8,Long
2021-08-06,5106.5,4213.5,9320.0,8,Long
2021-08-08,5106.5,3647.5,8754.0,8,Long
2021-08-09,5106.5,4421.5,9528.0,8,Long
2021-08-10,5106.5,3755.5,8862.0,8,Long
2021-08-11,5106.5,3437.5,8544.0,8,Long
2021-08-12,5106.5,4013.5,9120.0,8,Long
2021-08-13,5106.5,4469.5,9576.0,9,Long
2021-08-15,5106.5,4381.75,9488.25,9,Long
2021-08-16,5106.5,4530.25,9636.75,9,Long
2021-08-17,5106.5,2968.75,8075.25,9,Long
2021-08-18,5106.5,1965.25,7071.75,9,Long
2021-08-19,5106.5,2606.5,7713.0,9,Long
2021-08-20,5106.5,4210.75,9317.25,9,Long
2021-08-22,5106.5,4321.0,9427.5,9,Long
2021-08-23,5106.5,6321.25,11427.75,9,Long
2021-08-24,5106.5,6575.5,11682.0,9,Long
2021-08-25,5106.5,6611.5,11718.0,9,Long
2021-08-26,5106.5,5860.0,10966.5,9,Long
2021-08-27,5106.5,7203.0,12309.5,10,Long
2021-08-29,5106.5,7448.0,12554.5,10,Long
2021-08-30,5106.5,8905.5,14012.0,10,Long
2021-08-31,5106.5,8893.0,13999.5,10,Long
2021-09-01,5106.5,9108.0,14214.5,10,Long
2021-09-02,5106.5,8893.0,13999.5,10,Long
2021-09-03,5106.5,9458.0,14564.5,10,Long
2021-09-05,5106.5,9425.5,14532.0,10,Long
2021-09-06,5106.5,9815.5,14922.0,10,Long
2021-09-07,5106.5,9543.0,14649.5,10,Long
2021-09-08,5106.5,8923.0,14029.5,10,Long
2021-09-09,5106.5,8563.0,13669.5,10,Long
2021-09-10,5106.5,7300.5,12407.0,10,Long
2021-09-12,5106.5,7768.0,12874.5,10,Long
2021-09-13,5106.5,7375.5,12482.0,10,Long
2021-09-14,5106.5,6993.0,12099.5,10,Long
2021-09-15,5106.5,7940.5,13047.0,10,Long
2021-09-16,5106.5,7738.0,12844.5,10,Long
2021-09-17,12844.5,0.0,12844.5,0,
2021-09-19,12844.5,0.0,12844.5,0,
2021-09-20,12844.5,0.0,12844.5,0,
2021-09-21,12844.5,0.0,12844.5,0,
2021-09-22,12844.5,0.0,12844.5,0,
2021-09-23,12844.5,0.0,12844.5,0,
2021-09-24,12844.5,0.0,12844.5,0,
2021-09-26,12844.5,0.0,12844.5,0,
2021-09-27,12844.5,0.0,12844.5,0,
2021-09-28,12844.5,0.0,12844.5,0,
2021-09-29,12844.5,0.0,12844.5,0,
2021-09-30,12844.5,0.0,12844.5,0,
2021-10-01,12844.5,0.0,12844.5,0,
2021-10-03,12844.5,0.0,12844.5,0,
2021-10-04,12844.5,0.0,12844.5,0,
2021-10-05,12844.5,0.0,12844.5,0,
2021-10-06,12844.5,0.0,12844.5,0,
2021-10-07,12844.5,0.0,12844.5,0,
2021-10-08,12844.5,0.0,12844.5,0,
2021-10-10,12844.5,0.0,12844.5,0,
2021-10-11,12844.5,0.0,12844.5,0,
2021-10-12,12844.5,0.0,12844.5,0,
2021-10-13,12844.5,0.0,12844.5,0,
2021-10-14,12844.5,0.0,12844.5,0,
2021-10-15,12844.5,0.0,12844.5,0,
2021-10-17,12844.5,0.0,12844.5,0,
2021-10-18,12844.5,0.0,12844.5,0,
2021-10-19,12844.5,117.0,12961.5,1,Long
2021-10-20,12844.5,43.0,12887.5,1,Long
2021-10-21,12844.5,99.5,12944.0,1,Long
2021-10-22,12844.5,31.75,12876.25,1,Long
2021-10-24,12844.5,14.0,12858.5,1,Long
2021-10-25,12844.5,246.75,13091.25,1,Long
2021-10-26,12844.5,267.75,13112.25,1,Long
2021-10-27,12844.5,334.0,13178.5,1,Long
2021-10-28,12844.5,380.0,13224.5,1,Long
2021-10-29,12844.5,644.5,13489.0,2,Long
2021-10-31,12844.5,667.5,13512.0,2,Long
2021-11-01,12844.5,659.0,13503.5,2,Long
2021-11-02,12844.5,792.0,13636.5,2,Long
2021-11-03,12844.5,1278.5,14123.0,2,Long
2021-11-04,12844.5,1587.0,14431.5,2,Long
2021-11-05,12844.5,1593.0,14437.5,2,Long
2021-11-07,12844.5,1531.0,14375.5,2,Long
2021-11-08,12844.5,1528.0,14372.5,2,Long
2021-11-09,12844.5,1278.0,14122.5,2,Long
2021-11-10,12844.5,887.5,13732.0,2,Long
2021-11-11,12844.5,1035.5,13880.0,2,Long
2021-11-12,12844.5,1351.0,14195.5,4,Long
2021-11-14,12844.5,1449.0,14293.5,4,Long
2021-11-15,12844.5,1303.0,14147.5,4,Long
2021-11-16,12844.5,1765.0,14609.5,4,Long
2021-11-17,12844.5,1862.0,14706.5,4,Long
2021-11-18,12844.5,2528.0,15372.5,4,Long
2021-11-19,12844.5,2897.0,15741.5,4,Long
2021-11-21,12844.5,2899.0,15743.5,4,Long
2021-11-22,12844.5,2131.0,14975.5,4,Long
2021-11-23,12844.5,1690.0,14534.5,4,Long
2021-11-24,12844.5,1975.0,14819.5,4,Long
2021-11-25,12844.5,2028.0,14872.5,4,Long
2021-11-26,14869.5,0.0,14869.5,0,
2021-11-28,14869.5,0.0,14869.5,0,
2021-11-29,14869.5,0.0,14869.5,0,
2021-11-30,14869.5,0.0,14869.5,0,
2021-12-01,14869.5,0.0,14869.5,0,
2021-12-02,14869.5,0.0,14869.5,0,
2021-12-03,14869.5,0.0,14869.5,0,
2021-12-05,14869.5,0.0,14869.5,0,
2021-12-06,14869.5,0.0,14869.5,0,
2021-12-07,14869.5,0.0,14869.5,0,
2021-12-08,14869.5,0.0,14869.5,0,
2021-12-09,14869.5,0.0,14869.5,0,
2021-12-10,14869.5,0.0,14869.5,0,
2021-12-12,14869.5,0.0,14869.5,0,
2021-12-13,14869.5,0.0,14869.5,0,
2021-12-14,14869.5,0.0,14869.5,0,
2021-12-15,14869.5,0.0,14869.5,0,
2021-12-16,14869.5,0.0,14869.5,0,
2021-12-17,14869.5,0.0,14869.5,0,
2021-12-19,14869.5,0.0,14869.5,0,
2021-12-20,14869.5,0.0,14869.5,0,
2021-12-21,14869.5,0.0,14869.5,0,
2021-12-22,14869.5,0.0,14869.5,0,
2021-12-23,14869.5,0.0,14869.5,0,
2021-12-26,14869.5,0.0,14869.5,0,
2021-12-27,14869.5,0.0,14869.5,0,
2021-12-28,14869.5,-15.75,14853.75,1,Long
2021-12-29,14853.25,0.0,14853.25,0,
2021-12-30,14853.25,0.0,14853.25,0,
2021-12-31,14853.25,0.0,14853.25,0,
2022-01-02,14853.25,0.0,14853.25,0,
2022-01-03,14853.25,0.0,14853.25,0,
2022-01-04,14853.25,0.0,14853.25,0,
2022-01-05,14853.25,0.0,14853.25,0,
2022-01-06,14853.25,0.0,14853.25,0,
2022-01-07,14853.25,0.0,14853.25,0,
2022-01-09,14853.25,0.0,14853.25,0,
2022-01-10,14853.25,0.0,14853.25,0,
2022-01-11,14853.25,0.0,14853.25,0,
2022-01-12,14853.25,0.0,14853.25,0,
2022-01-13,14853.25,0.0,14853.25,0,
2022-01-14,14853.25,0.0,14853.25,0,
2022-01-16,14853.25,0.0,14853.25,0,
2022-01-17,14853.25,0.0,14853.25,0,
2022-01-18,14853.25,0.0,14853.25,0,
2022-01-19,14853.25,0.0,14853.25,0,
2022-01-20,14853.25,0.0,14853.25,0,
2022-01-21,14853.25,0.0,14853.25,0,
2022-01-23,14853.25,0.0,14853.25,0,
2022-01-24,14853.25,0.0,14853.25,0,
2022-01-25,14853.25,0.0,14853.25,0,
2022-01-26,14853.25,0.0,14853.25,0,
2022-01-27,14853.25,0.0,14853.25,0,
2022-01-28,14853.25,0.0,14853.25,0,
2022-01-30,14853.25,0.0,14853.25,0,
2022-01-31,14853.25,0.0,14853.25,0,
2022-02-01,14853.25,0.0,14853.25,0,
2022-02-02,14853.25,0.0,14853.25,0,
2022-02-03,14853.25,0.0,14853.25,0,
2022-02-04,14853.25,0.0,14853.25,0,
2022-02-06,14853.25,0.0,14853.25,0,
2022-02-07,14853.25,0.0,14853.25,0,
2022-02-08,14853.25,0.0,14853.25,0,
2022-02-09,14853.25,0.0,14853.25,0,
2022-02-10,14853.25,0.0,14853.25,0,
2022-02-11,14853.25,0.0,14853.25,0,
2022-02-13,14853.25,0.0,14853.25,0,
2022-02-14,14853.25,0.0,14853.25,0,
2022-02-15,14853.25,0.0,14853.25,0,
2022-02-16,14853.25,0.0,14853.25,0,
2022-02-17,14853.25,0.0,14853.25,0,
2022-02-18,14853.25,0.0,14853.25,0,
2022-02-20,14853.25,0.0,14853.25,0,
2022-02-21,14853.25,0.0,14853.25,0,
2022-02-22,14853.25,0.0,14853.25,0,
2022-02-23,14853.25,0.0,14853.25,0,
2022-02-24,14853.25,0.0,14853.25,0,
2022-02-25,14853.25,0.0,14853.25,0,
2022-02-27,14853.25,0.0,14853.25,0,
2022-02-28,14853.25,0.0,14853.25,0,
2022-03-01,14853.25,0.0,14853.25,0,
2022-03-02,14853.25,0.0,14853.25,0,
2022-03-03,14853.25,0.0,14853.25,0,
2022-03-04,14853.25,0.0,14853.25,0,
2022-03-06,14853.25,0.0,14853.25,0,
2022-03-07,14853.25,0.0,14853.25,0,
2022-03-08,14853.25,0.0,14853.25,0,
2022-03-09,14853.25,0.0,14853.25,0,
2022-03-10,14853.25,0.0,14853.25,0,
2022-03-11,14853.25,0.0,14853.25,0,
2022-03-13,14853.25,0.0,14853.25,0,
2022-03-14,14853.25,0.0,14853.25,0,
2022-03-15,14853.25,0.0,14853.25,0,
2022-03-16,14853.25,0.0,14853.25,0,
2022-03-17,14853.25,0.0,14853.25,0,
2022-03-18,14853.25,0.0,14853.25,0,
2022-03-20,14853.25,0.0,14853.25,0,
2022-03-21,14853.25,0.0,14853.25,0,
2022-03-22,14853.25,0.0,14853.25,0,
2022-03-23,14853.25,0.0,14853.25,0,
2022-03-24,14853.25,0.0,14853.25,0,
2022-03-25,14853.25,0.0,14853.25,0,
2022-03-27,14853.25,0.0,14853.25,0,
2022-03-28,14853.25,0.0,14853.25,0,
2022-03-29,14853.25,0.0,14853.25,0,
2022-03-30,14853.25,0.0,14853.25,0,
2022-03-31,14853.25,0.0,14853.25,0,
2022-04-01,14853.25,0.0,14853.25,0,
2022-04-03,14853.25,0.0,14853.25,0,
2022-04-04,14853.25,0.0,14853.25,0,
2022-04-05,14853.25,0.0,14853.25,0,
2022-04-06,14853.25,0.0,14853.25,0,
2022-04-07,14853.25,0.0,14853.25,0,
2022-04-08,14853.25,0.0,14853.25,0,
2022-04-10,14853.25,0.0,14853.25,0,
2022-04-11,14853.25,0.0,14853.25,0,
2022-04-12,14853.25,0.0,14853.25,0,
2022-04-13,14853.25,0.0,14853.25,0,
2022-04-14,14853.25,0.0,14853.25,0,
2022-04-17,14853.25,0.0,14853.25,0,
2022-04-18,14853.25,0.0,14853.25,0,
2022-04-19,14853.25,0.0,14853.25,0,
2022-04-20,14853.25,0.0,14853.25,0,
2022-04-21,14853.25,0.0,14853.25,0,
2022-04-22,14853.25,0.0,14853.25,0,
2022-04-24,14853.25,0.0,14853.25,0,
2022-04-25,14853.25,0.0,14853.25,0,
2022-04-26,14853.25,0.0,14853.25,0,
2022-04-27,14853.25,0.0,14853.25,0,
2022-04-28,14853.25,0.0,14853.25,0,
2022-04-29,14853.25,0.0,14853.25,0,
2022-05-01,14853.25,0.0,14853.25,0,
2022-05-02,14853.25,0.0,14853.25,0,
2022-05-03,14853.25,0.0,14853.25,0,
2022-05-04,14853.25,0.0,14853.25,0,
2022-05-05,14853.25,0.0,14853.25,0,
2022-05-06,14853.25,0.0,14853.25,0,
2022-05-08,14853.25,0.0,14853.25,0,
2022-05-09,14853.25,0.0,14853.25,0,
2022-05-10,14853.25,0.0,14853.25,0,
2022-05-11,14853.25,0.0,14853.25,0,
2022-05-12,14853.25,0.0,14853.25,0,
2022-05-13,14853.25,0.0,14853.25,0,
2022-05-15,14853.25,0.0,14853.25,0,
2022-05-16,14853.25,0.0,14853.25,0,
2022-05-17,14853.25,0.0,14853.25,0,
2022-05-18,14853.25,0.0,14853.25,0,
2022-05-19,14853.25,0.0,14853.25,0,
2022-05-20,14853.25,0.0,14853.25,0,
2022-05-22,14853.25,0.0,14853.25,0,
2022-05-23,14853.25,0.0,14853.25,0,
2022-05-24,14853.25,0.0,14853.25,0,
2022-05-25,14853.25,0.0,14853.25,0,
2022-05-26,14853.25,0.0,14853.25,0,
2022-05-27,14853.25,0.0,14853.25,0,
2022-05-29,14853.25,0.0,14853.25,0,
2022-05-30,14853.25,0.0,14853.25,0,
2022-05-31,14853.25,0.0,14853.25,0,
2022-06-01,14853.25,0.0,14853.25,0,
2022-06-02,14853.25,0.0,14853.25,0,
2022-06-03,14853.25,0.0,14853.25,0,
2022-06-05,14853.25,0.0,14853.25,0,
2022-06-06,14853.25,0.0,14853.25,0,
2022-06-07,14853.25,0.0,14853.25,0,
2022-06-08,14853.25,0.0,14853.25,0,
2022-06-09,14853.25,0.0,14853.25,0,
2022-06-10,14853.25,0.0,14853.25,0,
2022-06-12,14853.25,0.0,14853.25,0,
2022-06-13,14853.25,0.0,14853.25,0,
2022-06-14,14853.25,0.0,14853.25,0,
2022-06-15,14853.25,0.0,14853.25,0,
2022-06-16,14853.25,0.0,14853.25,0,
2022-06-17,14853.25,0.0,14853.25,0,
2022-06-19,14853.25,0.0,14853.25,0,
2022-06-20,14853.25,0.0,14853.25,0,
2022-06-21,14853.25,0.0,14853.25,0,
2022-06-22,14853.25,0.0,14853.25,0,
2022-06-23,14853.25,0.0,14853.25,0,
2022-06-24,14853.25,0.0,14853.25,0,
2022-06-26,14853.25,0.0,14853.25,0,
2022-06-27,14853.25,0.0,14853.25,0,
2022-06-28,14853.25,0.0,14853.25,0,
2022-06-29,14853.25,0.0,14853.25,0,
2022-06-30,14853.25,0.0,14853.25,0,
2022-07-01,14853.25,0.0,14853.25,0,
2022-07-03,14853.25,0.0,14853.25,0,
2022-07-04,14853.25,0.0,14853.25,0,
2022-07-05,14853.25,0.0,14853.25,0,
2022-07-06,14853.25,0.0,14853.25,0,
2022-07-07,14853.25,0.0,14853.25,0,
2022-07-08,14853.25,0.0,14853.25,0,
2022-07-10,14853.25,0.0,14853.25,0,
2022-07-11,14853.25,0.0,14853.25,0,
2022-07-12,14853.25,0.0,14853.25,0,
2022-07-13,14853.25,0.0,14853.25,0,
2022-07-14,14853.25,0.0,14853.25,0,
2022-07-15,14853.25,0.0,14853.25,0,
2022-07-17,14853.25,0.0,14853.25,0,
2022-07-18,14853.25,0.0,14853.25,0,
2022-07-19,14853.25,0.0,14853.25,0,
2022-07-20,14853.25,0.0,14853.25,0,
2022-07-21,14853.25,0.0,14853.25,0,
2022-07-22,14853.25,0.0,14853.25,0,
2022-07-24,14853.25,0.0,14853.25,0,
2022-07-25,14853.25,0.0,14853.25,0,
2022-07-26,14853.25,0.0,14853.25,0,
2022-07-27,14853.25,0.0,14853.25,0,
2022-07-28,14853.25,0.0,14853.25,0,
2022-07-29,14853.25,0.0,14853.25,0,
2022-07-31,14853.25,0.0,14853.25,0,
2022-08-01,14853.25,0.0,14853.25,0,
2022-08-02,14853.25,0.0,14853.25,0,
2022-08-03,14853.25,0.0,14853.25,0,
2022-08-04,14853.25,0.0,14853.25,0,
2022-08-05,14853.25,0.0,14853.25,0,
2022-08-07,14853.25,0.0,14853.25,0,
2022-08-08,14853.25,0.0,14853.25,0,
2022-08-09,14853.25,0.0,14853.25,0,
2022-08-10,14853.25,0.0,14853.25,0,
2022-08-11,14853.25,0.0,14853.25,0,
2022-08-12,14853.25,0.0,14853.25,0,
2022-08-14,14853.25,0.0,14853.25,0,
2022-08-15,14853.25,0.0,14853.25,0,
2022-08-16,14853.25,0.0,14853.25,0,
2022-08-17,14853.25,0.0,14853.25,0,
2022-08-18,14853.25,0.0,14853.25,0,
2022-08-19,14853.25,0.0,14853.25,0,
2022-08-21,14853.25,0.0,14853.25,0,
2022-08-22,14853.25,0.0,14853.25,0,
2022-08-23,14853.25,0.0,14853.25,0,
2022-08-24,14853.25,0.0,14853.25,0,
2022-08-25,14853.25,0.0,14853.25,0,
2022-08-26,14853.25,0.0,14853.25,0,
2022-08-28,14853.25,0.0,14853.25,0,
2022-08-29,14853.25,0.0,14853.25,0,
2022-08-30,14853.25,0.0,14853.25,0,
2022-08-31,14853.25,0.0,14853.25,0,
2022-09-01,14853.25,0.0,14853.25,0,
2022-09-02,14853.25,0.0,14853.25,0,
2022-09-04,14853.25,0.0,14853.25,0,
2022-09-05,14853.25,0.0,14853.25,0,
2022-09-06,14853.25,0.0,14853.25,0,
2022-09-07,14853.25,0.0,14853.25,0,
2022-09-08,14853.25,0.0,14853.25,0,
2022-09-09,14853.25,0.0,14853.25,0,
2022-09-11,14853.25,0.0,14853.25,0,
2022-09-12,14853.25,0.0,14853.25,0,
2022-09-13,14853.25,0.0,14853.25,0,
2022-09-14,14853.25,0.0,14853.25,0,
2022-09-15,14853.25,0.0,14853.25,0,
2022-09-16,14853.25,0.0,14853.25,0,
2022-09-18,14853.25,0.0,14853.25,0,
2022-09-19,14853.25,0.0,14853.25,0,
2022-09-20,14853.25,0.0,14853.25,0,
2022-09-21,14853.25,0.0,14853.25,0,
2022-09-22,14853.25,0.0,14853.25,0,
2022-09-23,14853.25,0.0,14853.25,0,
2022-09-25,14853.25,0.0,14853.25,0,
2022-09-26,14853.25,0.0,14853.25,0,
2022-09-27,14853.25,0.0,14853.25,0,
2022-09-28,14853.25,0.0,14853.25,0,
2022-09-29,14853.25,0.0,14853.25,0,
2022-09-30,14853.25,0.0,14853.25,0,
2022-10-02,14853.25,0.0,14853.25,0,
2022-10-03,14853.25,0.0,14853.25,0,
2022-10-04,14853.25,0.0,14853.25,0,
2022-10-05,14853.25,0.0,14853.25,0,
2022-10-06,14853.25,0.0,14853.25,0,
2022-10-07,14853.25,0.0,14853.25,0,
2022-10-09,14853.25,0.0,14853.25,0,
2022-10-10,14853.25,0.0,14853.25,0,
2022-10-11,14853.25,0.0,14853.25,0,
2022-10-12,14853.25,0.0,14853.25,0,
2022-10-13,14853.25,0.0,14853.25,0,
2022-10-14,14853.25,0.0,14853.25,0,
2022-10-16,14853.25,0.0,14853.25,0,
2022-10-17,14853.25,0.0,14853.25,0,
2022-10-18,14853.25,0.0,14853.25,0,
2022-10-19,14853.25,0.0,14853.25,0,
2022-10-20,14853.25,0.0,14853.25,0,
2022-10-21,14853.25,0.0,14853.25,0,
2022-10-23,14853.25,0.0,14853.25,0,
2022-10-24,14853.25,0.0,14853.25,0,
2022-10-25,14853.25,0.0,14853.25,0,
2022-10-26,14853.25,0.0,14853.25,0,
2022-10-27,14853.25,0.0,14853.25,0,
2022-10-28,14853.25,0.0,14853.25,0,
2022-10-30,14853.25,0.0,14853.25,0,
2022-10-31,14853.25,0.0,14853.25,0,
2022-11-01,14853.25,0.0,14853.25,0,
2022-11-02,14853.25,0.0,14853.25,0,
2022-11-03,14853.25,0.0,14853.25,0,
2022-11-04,14853.25,0.0,14853.25,0,
2022-11-06,14853.25,0.0,14853.25,0,
2022-11-07,14853.25,0.0,14853.25,0,
2022-11-08,14853.25,0.0,14853.25,0,
2022-11-09,14853.25,0.0,14853.25,0,
2022-11-10,14853.25,0.0,14853.25,0,
2022-11-11,14853.25,0.0,14853.25,0,
2022-11-13,14853.25,0.0,14853.25,0,
2022-11-14,14853.25,0.0,14853.25,0,
2022-11-15,14853.25,0.0,14853.25,0,
2022-11-16,14853.25,0.0,14853.25,0,
2022-11-17,14853.25,0.0,14853.25,0,
2022-11-18,14853.25,0.0,14853.25,0,
2022-11-20,14853.25,0.0,14853.25,0,
2022-11-21,14853.25,0.0,14853.25,0,
2022-11-22,14853.25,0.0,14853.25,0,
2022-11-23,14853.25,0.0,14853.25,0,
2022-11-24,14853.25,0.0,14853.25,0,
2022-11-25,14853.25,0.0,14853.25,0,
2022-11-27,14853.25,0.0,14853.25,0,
2022-11-28,14853.25,0.0,14853.25,0,
2022-11-29,14853.25,0.0,14853.25,0,
2022-11-30,14853.25,0.0,14853.25,0,
2022-12-01,14853.25,0.0,14853.25,0,
2022-12-02,14853.25,0.0,14853.25,0,
2022-12-04,14853.25,0.0,14853.25,0,
2022-12-05,14853.25,0.0,14853.25,0,
2022-12-06,14853.25,0.0,14853.25,0,
2022-12-07,14853.25,0.0,14853.25,0,
2022-12-08,14853.25,0.0,14853.25,0,
2022-12-09,14853.25,0.0,14853.25,0,
2022-12-11,14853.25,0.0,14853.25,0,
2022-12-12,14853.25,0.0,14853.25,0,
2022-12-13,14853.25,0.0,14853.25,0,
2022-12-14,14853.25,0.0,14853.25,0,
2022-12-15,14853.25,0.0,14853.25,0,
2022-12-16,14853.25,0.0,14853.25,0,
2022-12-18,14853.25,0.0,14853.25,0,
2022-12-19,14853.25,0.0,14853.25,0,
2022-12-20,14853.25,0.0,14853.25,0,
2022-12-21,14853.25,0.0,14853.25,0,
2022-12-22,14853.25,0.0,14853.25,0,
2022-12-23,14853.25,0.0,14853.25,0,
2022-12-26,14853.25,0.0,14853.25,0,
2022-12-27,14853.25,0.0,14853.25,0,
2022-12-28,14853.25,0.0,14853.25,0,
2022-12-29,14853.25,0.0,14853.25,0,
2022-12-30,14853.25,0.0,14853.25,0,
2023-01-02,14853.25,0.0,14853.25,0,
2023-01-03,14853.25,0.0,14853.25,0,
2023-01-04,14853.25,0.0,14853.25,0,
2023-01-05,14853.25,0.0,14853.25,0,
2023-01-06,14853.25,0.0,14853.25,0,
2023-01-08,14853.25,0.0,14853.25,0,
2023-01-09,14853.25,0.0,14853.25,0,
2023-01-10,14853.25,0.0,14853.25,0,
2023-01-11,14853.25,0.0,14853.25,0,
2023-01-12,14853.25,0.0,14853.25,0,
2023-01-13,14853.25,0.0,14853.25,0,
2023-01-15,14853.25,0.0,14853.25,0,
2023-01-16,14853.25,0.0,14853.25,0,
2023-01-17,14853.25,0.0,14853.25,0,
2023-01-18,14853.25,0.0,14853.25,0,
2023-01-19,14853.25,0.0,14853.25,0,
2023-01-20,14853.25,0.0,14853.25,0,
2023-01-22,14853.25,0.0,14853.25,0,
2023-01-23,14853.25,0.0,14853.25,0,
2023-01-24,14853.25,0.0,14853.25,0,
2023-01-25,14853.25,0.0,14853.25,0,
2023-01-26,14853.25,0.0,14853.25,0,
2023-01-27,14853.25,0.0,14853.25,0,
2023-01-29,14853.25,0.0,14853.25,0,
2023-01-30,14853.25,0.0,14853.25,0,
2023-01-31,14853.25,0.0,14853.25,0,
2023-02-01,14853.25,0.0,14853.25,0,
2023-02-02,14853.25,0.0,14853.25,0,
2023-02-03,14853.25,0.0,14853.25,0,
2023-02-05,14853.25,0.0,14853.25,0,
2023-02-06,14853.25,0.0,14853.25,0,
2023-02-07,14853.25,0.0,14853.25,0,
2023-02-08,14853.25,0.0,14853.25,0,
2023-02-09,14853.25,0.0,14853.25,0,
2023-02-10,14853.25,0.0,14853.25,0,
2023-02-12,14853.25,0.0,14853.25,0,
2023-02-13,14853.25,0.0,14853.25,0,
2023-02-14,14853.25,0.0,14853.25,0,
2023-02-15,14853.25,0.0,14853.25,0,
2023-02-16,14853.25,0.0,14853.25,0,
2023-02-17,14853.25,0.0,14853.25,0,
2023-02-19,14853.25,0.0,14853.25,0,
2023-02-20,14853.25,0.0,14853.25,0,
2023-02-21,14853.25,0.0,14853.25,0,
2023-02-22,14853.25,0.0,14853.25,0,
2023-02-23,14853.25,0.0,14853.25,0,
2023-02-24,14853.25,0.0,14853.25,0,
2023-02-26,14853.25,0.0,14853.25,0,
2023-02-27,14853.25,0.0,14853.25,0,
2023-02-28,14853.25,0.0,14853.25,0,
2023-03-01,14853.25,0.0,14853.25,0,
2023-03-02,14853.25,0.0,14853.25,0,
2023-03-03,14853.25,0.0,14853.25,0,
2023-03-05,14853.25,0.0,14853.25,0,
2023-03-06,14853.25,0.0,14853.25,0,
2023-03-07,14853.25,0.0,14853.25,0,
2023-03-08,14853.25,0.0,14853.25,0,
2023-03-09,14853.25,0.0,14853.25,0,
2023-03-10,14853.25,0.0,14853.25,0,
2023-03-12,14853.25,0.0,14853.25,0,
2023-03-13,14853.25,0.0,14853.25,0,
2023-03-14,14853.25,0.0,14853.25,0,
2023-03-15,14853.25,0.0,14853.25,0,
2023-03-16,14853.25,0.0,14853.25,0,
2023-03-17,14853.25,0.0,14853.25,0,
2023-03-19,14853.25,0.0,14853.25,0,
2023-03-20,14853.25,0.0,14853.25,0,
2023-03-21,14853.25,0.0,14853.25,0,
2023-03-22,14853.25,0.0,14853.25,0,
2023-03-23,14853.25,0.0,14853.25,0,
2023-03-24,14853.25,0.0,14853.25,0,
2023-03-26,14853.25,0.0,14853.25,0,
2023-03-27,14853.25,0.0,14853.25,0,
2023-03-28,14853.25,0.0,14853.25,0,
2023-03-29,14853.25,0.0,14853.25,0,
2023-03-30,14853.25,0.0,14853.25,0,
2023-03-31,14853.25,0.0,14853.25,0,
2023-04-02,14853.25,0.0,14853.25,0,
2023-04-03,14853.25,0.0,14853.25,0,
2023-04-04,14853.25,0.0,14853.25,0,
2023-04-05,14853.25,0.0,14853.25,0,
2023-04-06,14853.25,0.0,14853.25,0,
2023-04-07,14853.25,0.0,14853.25,0,
2023-04-09,14853.25,0.0,14853.25,0,
2023-04-10,14853.25,0.0,14853.25,0,
2023-04-11,14853.25,0.0,14853.25,0,
2023-04-12,14853.25,0.0,14853.25,0,
2023-04-13,14853.25,0.0,14853.25,0,
2023-04-14,14853.25,0.0,14853.25,0,
2023-04-16,14853.25,0.0,14853.25,0,
2023-04-17,14853.25,0.0,14853.25,0,
2023-04-18,14853.25,0.0,14853.25,0,
2023-04-19,14853.25,0.0,14853.25,0,
2023-04-20,14853.25,0.0,14853.25,0,
2023-04-21,14853.25,0.0,14853.25,0,
2023-04-23,14853.25,0.0,14853.25,0,
2023-04-24,14853.25,0.0,14853.25,0,
2023-04-25,14853.25,0.0,14853.25,0,
2023-04-26,14853.25,0.0,14853.25,0,
2023-04-27,14853.25,0.0,14853.25,0,
2023-04-28,14853.25,0.0,14853.25,0,
2023-04-30,14853.25,0.0,14853.25,0,
2023-05-01,14853.25,0.0,14853.25,0,
2023-05-02,14853.25,0.0,14853.25,0,
2023-05-03,14853.25,0.0,14853.25,0,
2023-05-04,14853.25,0.0,14853.25,0,
2023-05-05,14853.25,0.0,14853.25,0,
2023-05-07,14853.25,0.0,14853.25,0,
2023-05-08,14853.25,0.0,14853.25,0,
2023-05-09,14853.25,0.0,14853.25,0,
2023-05-10,14853.25,0.0,14853.25,0,
2023-05-11,14853.25,0.0,14853.25,0,
2023-05-12,14853.25,0.0,14853.25,0,
2023-05-14,14853.25,0.0,14853.25,0,
2023-05-15,14853.25,0.0,14853.25,0,
2023-05-16,14853.25,0.0,14853.25,0,
2023-05-17,14853.25,0.0,14853.25,0,
2023-05-18,14853.25,0.0,14853.25,0,
2023-05-19,14853.25,0.0,14853.25,0,
2023-05-21,14853.25,0.0,14853.25,0,
2023-05-22,14853.25,0.0,14853.25,0,
2023-05-23,14853.25,0.0,14853.25,0,
2023-05-24,14853.25,0.0,14853.25,0,
2023-05-25,14853.25,0.0,14853.25,0,
2023-05-26,14853.25,0.0,14853.25,0,
2023-05-28,14853.25,0.0,14853.25,0,
2023-05-29,14853.25,0.0,14853.25,0,
2023-05-30,14853.25,0.0,14853.25,0,
2023-05-31,14853.25,0.0,14853.25,0,
2023-06-01,14853.25,0.0,14853.25,0,
2023-06-02,14853.25,0.0,14853.25,0,
2023-06-04,14853.25,0.0,14853.25,0,
2023-06-05,14853.25,0.0,14853.25,0,
2023-06-06,14853.25,0.0,14853.25,0,
2023-06-07,14853.25,0.0,14853.25,0,
2023-06-08,14853.25,0.0,14853.25,0,
2023-06-09,14853.25,0.0,14853.25,0,
2023-06-11,14853.25,0.0,14853.25,0,
2023-06-12,14853.25,0.0,14853.25,0,
2023-06-13,14853.25,0.0,14853.25,0,
2023-06-14,14853.25,0.0,14853.25,0,
2023-06-15,14853.25,0.0,14853.25,0,
2023-06-16,14853.25,0.0,14853.25,0,
2023-06-18,14853.25,0.0,14853.25,0,
2023-06-19,14853.25,0.0,14853.25,0,
2023-06-20,14853.25,0.0,14853.25,0,
2023-06-21,14853.25,0.0,14853.25,0,
2023-06-22,14853.25,0.0,14853.25,0,
2023-06-23,14853.25,0.0,14853.25,0,
2023-06-25,14853.25,0.0,14853.25,0,
2023-06-26,14853.25,0.0,14853.25,0,
2023-06-27,14853.25,0.0,14853.25,0,
2023-06-28,14853.25,0.0,14853.25,0,
2023-06-29,14853.25,0.0,14853.25,0,
2023-06-30,14853.25,0.0,14853.25,0,
2023-07-02,14853.25,0.0,14853.25,0,
2023-07-03,14853.25,0.0,14853.25,0,
2023-07-04,14853.25,0.0,14853.25,0,
2023-07-05,14853.25,0.0,14853.25,0,
2023-07-06,14853.25,0.0,14853.25,0,
2023-07-07,14853.25,0.0,14853.25,0,
2023-07-09,14853.25,0.0,14853.25,0,
2023-07-10,14853.25,0.0,14853.25,0,
2023-07-11,14853.25,0.0,14853.25,0,
2023-07-12,14853.25,0.0,14853.25,0,
2023-07-13,14853.25,0.0,14853.25,0,
2023-07-14,14853.25,0.0,14853.25,0,
2023-07-16,14853.25,0.0,14853.25,0,
2023-07-17,14853.25,0.0,14853.25,0,
2023-07-18,14853.25,0.0,14853.25,0,
2023-07-19,14853.25,0.0,14853.25,0,
2023-07-20,14853.25,0.0,14853.25,0,
2023-07-21,14853.25,0.0,14853.25,0,
2023-07-23,14853.25,0.0,14853.25,0,
2023-07-24,14853.25,0.0,14853.25,0,
2023-07-25,14853.25,0.0,14853.25,0,
2023-07-26,14853.25,0.0,14853.25,0,
2023-07-27,14853.25,0.0,14853.25,0,
2023-07-28,14853.25,0.0,14853.25,0,
2023-07-30,14853.25,0.0,14853.25,0,
2023-07-31,14853.25,0.0,14853.25,0,
2023-08-01,14853.25,0.0,14853.25,0,
2023-08-02,14853.25,0.0,14853.25,0,
2023-08-03,14853.25,0.0,14853.25,0,
2023-08-04,14853.25,0.0,14853.25,0,
2023-08-06,14853.25,0.0,14853.25,0,
2023-08-07,14853.25,0.0,14853.25,0,
2023-08-08,14853.25,0.0,14853.25,0,
2023-08-09,14853.25,0.0,14853.25,0,
2023-08-10,14853.25,0.0,14853.25,0,
2023-08-11,14853.25,0.0,14853.25,0,
2023-08-13,14853.25,0.0,14853.25,0,
2023-08-14,14853.25,0.0,14853.25,0,
2023-08-15,14853.25,0.0,14853.25,0,
2023-08-16,14853.25,0.0,14853.25,0,
2023-08-17,14853.25,0.0,14853.25,0,
2023-08-18,14853.25,0.0,14853.25,0,
2023-08-20,14853.25,0.0,14853.25,0,
2023-08-21,14853.25,0.0,14853.25,0,
2023-08-22,14853.25,0.0,14853.25,0,
2023-08-23,14853.25,0.0,14853.25,0,
2023-08-24,14853.25,0.0,14853.25,0,
2023-08-25,14853.25,0.0,14853.25,0,
2023-08-27,14853.25,0.0,14853.25,0,
2023-08-28,14853.25,0.0,14853.25,0,
2023-08-29,14853.25,0.0,14853.25,0,
2023-08-30,14853.25,68.25,14921.5,1,Long
2023-08-31,14853.25,101.75,14955.0,1,Long
2023-09-01,14853.25,77.75,14931.0,1,Long
2023-09-03,14853.25,82.0,14935.25,1,Long
2023-09-04,14853.25,91.5,14944.75,1,Long
2023-09-05,14853.25,87.25,14940.5,1,Long
2023-09-06,14853.25,-43.5,14809.75,1,Long
2023-09-07,14809.0,0.0,14809.0,0,
2023-09-08,14809.0,0.0,14809.0,0,
2023-09-10,14809.0,0.0,14809.0,0,
2023-09-11,14809.0,0.0,14809.0,0,
2023-09-12,14809.0,-152.25,14656.75,1,Long
2023-09-13,14809.0,-78.25,14730.75,1,Long
2023-09-14,14809.0,19.25,14828.25,1,Long
2023-09-15,14809.0,-274.75,14534.25,1,Long
2023-09-17,14534.75,0.0,14534.75,0,
2023-09-18,14534.75,0.0,14534.75,0,
2023-09-19,14534.75,0.0,14534.75,0,
2023-09-20,14534.75,0.0,14534.75,0,
2023-09-21,14534.75,0.0,14534.75,0,
2023-09-22,14534.75,0.0,14534.75,0,
2023-09-24,14534.75,0.0,14534.75,0,
2023-09-25,14534.75,0.0,14534.75,0,
2023-09-26,14534.75,0.0,14534.75,0,
2023-09-27,14534.75,0.0,14534.75,0,
2023-09-28,14534.75,0.0,14534.75,0,
2023-09-29,14534.75,0.0,14534.75,0,
2023-10-01,14534.75,0.0,14534.75,0,
2023-10-02,14534.75,0.0,14534.75,0,
2023-10-03,14534.75,0.0,14534.75,0,
2023-10-04,14534.75,0.0,14534.75,0,
2023-10-05,14534.75,0.0,14534.75,0,
2023-10-06,14534.75,0.0,14534.75,0,
2023-10-08,14534.75,0.0,14534.75,0,
2023-10-09,14534.75,0.0,14534.75,0,
2023-10-10,14534.75,0.0,14534.75,0,
2023-10-11,14534.75,0.0,14534.75,0,
2023-10-12,14534.75,-84.75,14450.0,1,Long
2023-10-13,14450.0,0.0,14450.0,0,
2023-10-15,14450.0,0.0,14450.0,0,
2023-10-16,14450.0,0.0,14450.0,0,
2023-10-17,14450.0,0.0,14450.0,0,
2023-10-18,14450.0,0.0,14450.0,0,
2023-10-19,14450.0,0.0,14450.0,0,
2023-10-20,14450.0,0.0,14450.0,0,
2023-10-22,14450.0,0.0,14450.0,0,
2023-10-23,14450.0,0.0,14450.0,0,
2023-10-24,14450.0,0.0,14450.0,0,
2023-10-25,14450.0,0.0,14450.0,0,
2023-10-26,14450.0,0.0,14450.0,0,
2023-10-27,14450.0,0.0,14450.0,0,
2023-10-29,14450.0,0.0,14450.0,0,
2023-10-30,14450.0,0.0,14450.0,0,
2023-10-31,14450.0,0.0,14450.0,0,
2023-11-01,14450.0,0.0,14450.0,0,
2023-11-02,14450.0,0.0,14450.0,0,
2023-11-03,14450.0,0.0,14450.0,0,
2023-11-05,14450.0,-11.25,14438.75,1,Long
2023-11-06,14438.75,0.0,14438.75,0,
2023-11-07,14438.75,159.5,14598.25,1,Long
2023-11-08,14438.75,149.25,14588.0,1,Long
2023-11-09,14438.75,24.0,14462.75,1,Long
2023-11-10,14438.75,372.5,14811.25,1,Long
2023-11-12,14438.75,351.5,14790.25,1,Long
2023-11-13,14438.75,349.75,14788.5,1,Long
2023-11-14,14438.75,696.0,15134.75,1,Long
2023-11-15,14438.75,656.25,15095.0,1,Long
2023-11-16,14438.75,677.0,15115.75,1,Long
2023-11-17,14438.75,666.0,15104.75,2,Long
2023-11-19,14438.75,645.5,15084.25,2,Long
2023-11-20,14438.75,1119.5,15558.25,2,Long
2023-11-21,14438.75,826.5,15265.25,2,Long
2023-11-22,14438.75,1009.5,15448.25,2,Long
2023-11-23,14438.75,1047.0,15485.75,2,Long
2023-11-24,14438.75,939.5,15378.25,2,Long
2023-11-26,14438.75,890.5,15329.25,2,Long
2023-11-27,14438.75,937.5,15376.25,2,Long
2023-11-28,14438.75,1024.5,15463.25,2,Long
2023-11-29,14438.75,1012.0,15450.75,2,Long
2023-11-30,14438.75,847.0,15285.75,2,Long
2023-12-01,14438.75,1005.5,15444.25,4,Long
2023-12-03,14438.75,849.5,15288.25,4,Long
2023-12-04,14438.75,279.5,14718.25,4,Long
2023-12-05,14438.75,593.5,15032.25,4,Long
2023-12-06,14438.75,147.5,14586.25,4,Long
2023-12-07,14438.75,961.5,15400.25,4,Long
2023-12-08,14438.75,1251.5,15690.25,4,Long
2023-12-10,14438.75,1299.5,15738.25,4,Long
2023-12-11,14438.75,2700.5,17139.25,4,Long
2023-12-12,14438.75,3319.5,17758.25,4,Long
2023-12-13,14438.75,4145.5,18584.25,4,Long
2023-12-14,14438.75,3923.5,18362.25,4,Long
2023-12-15,14438.75,4107.5,18546.25,6,Long
2023-12-17,14438.75,4154.0,18592.75,6,Long
2023-12-18,14438.75,4757.0,19195.75,6,Long
2023-12-19,14438.75,5378.0,19816.75,6,Long
2023-12-20,14438.75,4082.0,18520.75,6,Long
2023-12-21,14438.75,4863.5,19302.25,6,Long
2023-12-22,14438.75,4986.5,19425.25,6,Long
2023-12-25,14438.75,5235.5,19674.25,6,Long
2023-12-26,14438.75,5748.5,20187.25,6,Long
2023-12-27,14438.75,5942.0,20380.75,6,Long
2023-12-28,14438.75,5816.0,20254.75,6,Long
2023-12-29,14438.75,5208.5,19647.25,8,Long
2024-01-01,14438.75,5414.5,19853.25,8,Long
2024-01-02,14438.75,2972.5,17411.25,8,Long
2024-01-03,17413.25,0.0,17413.25,0,
2024-01-04,17413.25,0.0,17413.25,0,
2024-01-05,17413.25,0.0,17413.25,0,
2024-01-07,17413.25,0.0,17413.25,0,
2024-01-08,17413.25,0.0,17413.25,0,
2024-01-09,17413.25,0.0,17413.25,0,
2024-01-10,17413.25,0.0,17413.25,0,
2024-01-11,17413.25,0.0,17413.25,0,
2024-01-12,17413.25,0.0,17413.25,0,
2024-01-14,17413.25,0.0,17413.25,0,
2024-01-15,17413.25,0.0,17413.25,0,
2024-01-16,17413.25,0.0,17413.25,0,
2024-01-17,17413.25,0.0,17413.25,0,
2024-01-18,17413.25,0.0,17413.25,0,
2024-01-19,17413.25,0.0,17413.25,0,
2024-01-21,17413.25,0.0,17413.25,0,
2024-01-22,17413.25,0.0,17413.25,0,
2024-01-23,17413.25,0.0,17413.25,0,
2024-01-24,17413.25,0.0,17413.25,0,
2024-01-25,17413.25,0.0,17413.25,0,
2024-01-26,17413.25,0.0,17413.25,0,
2024-01-28,17413.25,0.0,17413.25,0,
2024-01-29,17413.25,0.0,17413.25,0,
2024-01-30,17413.25,0.0,17413.25,0,
2024-01-31,17413.25,0.0,17413.25,0,
2024-02-01,17413.25,0.0,17413.25,0,
2024-02-02,17413.25,0.0,17413.25,0,
2024-02-04,17413.25,0.0,17413.25,0,
2024-02-05,17413.25,0.0,17413.25,0,
2024-02-06,17413.25,0.0,17413.25,0,
2024-02-07,17413.25,0.0,17413.25,0,
2024-02-08,17413.25,0.0,17413.25,0,
2024-02-09,17413.25,0.0,17413.25,0,
2024-02-11,17413.25,0.0,17413.25,0,
2024-02-12,17413.25,0.0,17413.25,0,
2024-02-13,17413.25,0.0,17413.25,0,
2024-02-14,17413.25,0.0,17413.25,0,
2024-02-15,17413.25,0.0,17413.25,0,
2024-02-16,17413.25,0.0,17413.25,0,
2024-02-18,17413.25,0.0,17413.25,0,
2024-02-19,17413.25,0.0,17413.25,0,
2024-02-20,17413.25,0.0,17413.25,0,
2024-02-21,17413.25,0.0,17413.25,0,
2024-02-22,17413.25,0.0,17413.25,0,
2024-02-23,17413.25,0.0,17413.25,0,
2024-02-25,17413.25,0.0,17413.25,0,
2024-02-26,17413.25,0.0,17413.25,0,
2024-02-27,17413.25,0.0,17413.25,0,
2024-02-28,17413.25,0.0,17413.25,0,
2024-02-29,17413.25,0.0,17413.25,0,
2024-03-01,17413.25,0.0,17413.25,0,
2024-03-03,17413.25,0.0,17413.25,0,
2024-03-04,17413.25,0.0,17413.25,0,
2024-03-05,17413.25,0.0,17413.25,0,
2024-03-06,17413.25,0.0,17413.25,0,
2024-03-07,17413.25,0.0,17413.25,0,
2024-03-08,17413.25,0.0,17413.25,0,
2024-03-10,17413.25,0.0,17413.25,0,
2024-03-11,17413.25,0.0,17413.25,0,
2024-03-12,17413.25,0.0,17413.25,0,
2024-03-13,17413.25,0.0,17413.25,0,
2024-03-14,17413.25,0.0,17413.25,0,
2024-03-15,17413.25,0.0,17413.25,0,
2024-03-17,17413.25,0.0,17413.25,0,
2024-03-18,17413.25,0.0,17413.25,0,
2024-03-19,17413.25,0.0,17413.25,0,
2024-03-20,17413.25,0.0,17413.25,0,
2024-03-21,17413.25,0.0,17413.25,0,
2024-03-22,17413.25,0.0,17413.25,0,
2024-03-24,17413.25,0.0,17413.25,0,
2024-03-25,17413.25,0.0,17413.25,0,
2024-03-26,17413.25,0.0,17413.25,0,
2024-03-27,17413.25,0.0,17413.25,0,
2024-03-28,17413.25,0.0,17413.25,0,
2024-03-31,17413.25,0.0,17413.25,0,
2024-04-01,17413.25,0.0,17413.25,0,
2024-04-02,17413.25,0.0,17413.25,0,
2024-04-03,17413.25,0.0,17413.25,0,
2024-04-04,17413.25,0.0,17413.25,0,
2024-04-05,17413.25,0.0,17413.25,0,
2024-04-07,17413.25,0.0,17413.25,0,
2024-04-08,17413.25,0.0,17413.25,0,
2024-04-09,17413.25,0.0,17413.25,0,
2024-04-10,17413.25,0.0,17413.25,0,
2024-04-11,17413.25,0.0,17413.25,0,
2024-04-12,17413.25,0.0,17413.25,0,
2024-04-14,17413.25,0.0,17413.25,0,
2024-04-15,17413.25,0.0,17413.25,0,
2024-04-16,17413.25,0.0,17413.25,0,
2024-04-17,17413.25,0.0,17413.25,0,
2024-04-18,17413.25,0.0,17413.25,0,
2024-04-19,17413.25,0.0,17413.25,0,
2024-04-21,17413.25,0.0,17413.25,0,
2024-04-22,17413.25,0.0,17413.25,0,
2024-04-23,17413.25,0.0,17413.25,0,
2024-04-24,17413.25,0.0,17413.25,0,
2024-04-25,17413.25,0.0,17413.25,0,
2024-04-26,17413.25,0.0,17413.25,0,
2024-04-28,17413.25,0.0,17413.25,0,
2024-04-29,17413.25,0.0,17413.25,0,
2024-04-30,17413.25,0.0,17413.25,0,
2024-05-01,17413.25,0.0,17413.25,0,
2024-05-02,17413.25,0.0,17413.25,0,
2024-05-03,17413.25,0.0,17413.25,0,
2024-05-05,17413.25,0.0,17413.25,0,
2024-05-06,17413.25,0.0,17413.25,0,
2024-05-07,17413.25,0.0,17413.25,0,
2024-05-08,17413.25,0.0,17413.25,0,
2024-05-09,17413.25,0.0,17413.25,0,
2024-05-10,17413.25,0.0,17413.25,0,
2024-05-12,17413.25,0.0,17413.25,0,
2024-05-13,17413.25,0.0,17413.25,0,
2024-05-14,17413.25,0.0,17413.25,0,
2024-05-15,17413.25,0.0,17413.25,0,
2024-05-16,17413.25,0.0,17413.25,0,
2024-05-17,17413.25,0.0,17413.25,0,
2024-05-19,17413.25,0.0,17413.25,0,
2024-05-20,17413.25,0.0,17413.25,0,
2024-05-21,17413.25,0.0,17413.25,0,
2024-05-22,17413.25,0.0,17413.25,0,
2024-05-23,17413.25,0.0,17413.25,0,
2024-05-24,17413.25,0.0,17413.25,0,
2024-05-26,17413.25,0.0,17413.25,0,
2024-05-27,17413.25,0.0,17413.25,0,
2024-05-28,17413.25,0.0,17413.25,0,
2024-05-29,17413.25,0.0,17413.25,0,
2024-05-30,17413.25,0.0,17413.25,0,
2024-05-31,17413.25,0.0,17413.25,0,
2024-06-02,17413.25,0.0,17413.25,0,
2024-06-03,17413.25,0.0,17413.25,0,
2024-06-04,17413.25,0.0,17413.25,0,
2024-06-05,17413.25,0.0,17413.25,0,
2024-06-06,17413.25,0.0,17413.25,0,
2024-06-07,17413.25,0.0,17413.25,0,
2024-06-09,17413.25,0.0,17413.25,0,
2024-06-10,17413.25,0.0,17413.25,0,
2024-06-11,17413.25,0.0,17413.25,0,
2024-06-12,17413.25,0.0,17413.25,0,
2024-06-13,17413.25,0.0,17413.25,0,
2024-06-14,17413.25,0.0,17413.25,0,
2024-06-16,17413.25,0.0,17413.25,0,
2024-06-17,17413.25,0.0,17413.25,0,
2024-06-18,17413.25,0.0,17413.25,0,
2024-06-19,17413.25,0.0,17413.25,0,
2024-06-20,17413.25,0.0,17413.25,0,
2024-06-21,17413.25,0.0,17413.25,0,
2024-06-23,17413.25,0.0,17413.25,0,
2024-06-24,17413.25,0.0,17413.25,0,
2024-06-25,17413.25,0.0,17413.25,0,
2024-06-26,17413.25,0.0,17413.25,0,
2024-06-27,17413.25,0.0,17413.25,0,
2024-06-28,17413.25,0.0,17413.25,0,
2024-06-30,17413.25,0.0,17413.25,0,
2024-07-01,17413.25,0.0,17413.25,0,
2024-07-02,17413.25,0.0,17413.25,0,
2024-07-03,17413.25,0.0,17413.25,0,
2024-07-04,17413.25,0.0,17413.25,0,
2024-07-05,17413.25,0.0,17413.25,0,
2024-07-07,17413.25,0.0,17413.25,0,
2024-07-08,17413.25,0.0,17413.25,0,
2024-07-09,17413.25,0.0,17413.25,0,
2024-07-10,17413.25,0.0,17413.25,0,
2024-07-11,17413.25,0.0,17413.25,0,
2024-07-12,17413.25,0.0,17413.25,0,
2024-07-14,17413.25,0.0,17413.25,0,
2024-07-15,17413.25,0.0,17413.25,0,
2024-07-16,17413.25,0.0,17413.25,0,
2024-07-17,17413.25,0.0,17413.25,0,
2024-07-18,17413.25,0.0,17413.25,0,
2024-07-19,17413.25,0.0,17413.25,0,
2024-07-21,17413.25,0.0,17413.25,0,
2024-07-22,17413.25,0.0,17413.25,0,
2024-07-23,17413.25,0.0,17413.25,0,
2024-07-24,17413.25,0.0,17413.25,0,
2024-07-25,17413.25,0.0,17413.25,0,
2024-07-26,17413.25,0.0,17413.25,0,
2024-07-28,17413.25,0.0,17413.25,0,
2024-07-29,17413.25,0.0,17413.25,0,
2024-07-30,17413.25,0.0,17413.25,0,
2024-07-31,17413.25,0.0,17413.25,0,
2024-08-01,17413.25,0.0,17413.25,0,
2024-08-02,17413.25,0.0,17413.25,0,
2024-08-04,17413.25,0.0,17413.25,0,
2024-08-05,17413.25,0.0,17413.25,0,
2024-08-06,17413.25,0.0,17413.25,0,
2024-08-07,17413.25,0.0,17413.25,0,
2024-08-08,17413.25,0.0,17413.25,0,
2024-08-09,17413.25,0.0,17413.25,0,
2024-08-11,17413.25,0.0,17413.25,0,
2024-08-12,17413.25,0.0,17413.25,0,
2024-08-13,17413.25,0.0,17413.25,0,
2024-08-14,17413.25,-10.0,17403.25,1,Long
2024-08-15,17403.0,0.0,17403.0,0,
2024-08-16,17403.0,-9.5,17393.5,1,Long
2024-08-18,17403.0,34.5,17437.5,1,Long
2024-08-19,17403.0,247.0,17650.0,1,Long
2024-08-20,17403.0,176.0,17579.0,1,Long
2024-08-21,17403.0,322.5,17725.5,1,Long
2024-08-22,17403.0,24.75,17427.75,1,Long
2024-08-23,17403.0,163.75,17566.75,1,Long
2024-08-25,17403.0,149.0,17552.0,1,Long
2024-08-26,17403.0,-42.75,17360.25,1,Long
2024-08-27,17403.0,-27.0,17376.0,1,Long
2024-08-28,17403.0,-421.25,16981.75,1,Long
2024-08-29,17403.0,-184.0,17219.0,1,Long
2024-08-30,17403.0,37.0,17440.0,2,Long
2024-09-01,17403.0,21.0,17424.0,2,Long
2024-09-02,17403.0,10.0,17413.0,2,Long
2024-09-03,17403.0,-1236.0,16167.0,2,Long
2024-09-04,16168.0,0.0,16168.0,0,
2024-09-05,16168.0,0.0,16168.0,0,
2024-09-06,16168.0,0.0,16168.0,0,
2024-09-08,16168.0,0.0,16168.0,0,
2024-09-09,16168.0,0.0,16168.0,0,
2024-09-10,16168.0,0.0,16168.0,0,
2024-09-11,16168.0,0.0,16168.0,0,
2024-09-12,16168.0,0.0,16168.0,0,
2024-09-13,16168.0,0.0,16168.0,0,
2024-09-15,16168.0,40.25,16208.25,1,Long
2024-09-16,16168.0,174.75,16342.75,1,Long
2024-09-17,16168.0,207.25,16375.25,1,Long
2024-09-18,16168.0,265.25,16433.25,1,Long
2024-09-19,16168.0,551.0,16719.0,1,Long
2024-09-20,16168.0,516.25,16684.25,1,Long
2024-09-22,16168.0,564.0,16732.0,1,Long
2024-09-23,16168.0,570.25,16738.25,1,Long
2024-09-24,16168.0,681.5,16849.5,1,Long
2024-09-25,16168.0,779.5,16947.5,1,Long
2024-09-26,16168.0,845.75,17013.75,1,Long
2024-09-27,16168.0,674.5,16842.5,2,Long
2024-09-29,16168.0,832.5,17000.5,2,Long
2024-09-30,16168.0,782.5,16950.5,2,Long
2024-10-01,16168.0,152.5,16320.5,2,Long
2024-10-02,16168.0,397.0,16565.0,2,Long
2024-10-03,16168.0,253.5,16421.5,2,Long
2024-10-04,16168.0,694.0,16862.0,2,Long
2024-10-06,16168.0,748.5,16916.5,2,Long
2024-10-07,16168.0,253.5,16421.5,2,Long
2024-10-08,16168.0,833.5,17001.5,2,Long
2024-10-09,16168.0,1188.0,17356.0,2,Long
2024-10-10,16168.0,1190.5,17358.5,2,Long
2024-10-11,16168.0,992.0,17160.0,4,Long
2024-10-13,16168.0,1051.0,17219.0,4,Long
2024-10-14,16168.0,1870.0,18038.0,4,Long
2024-10-15,16168.0,750.0,16918.0,4,Long
2024-10-16,16168.0,598.0,16766.0,4,Long
2024-10-17,16168.0,963.0,17131.0,4,Long
2024-10-18,16168.0,1280.0,17448.0,4,Long
2024-10-20,16168.0,1397.0,17565.0,4,Long
2024-10-21,16168.0,1406.0,17574.0,4,Long
2024-10-22,16168.0,1461.0,17629.0,4,Long
2024-10-23,16168.0,503.0,16671.0,4,Long
2024-10-24,16168.0,867.0,17035.0,4,Long
2024-10-25,16168.0,1167.0,17335.0,6,Long
2024-10-27,16168.0,1894.5,18062.5,6,Long
2024-10-28,16168.0,1351.5,17519.5,6,Long
2024-10-29,16168.0,2791.5,18959.5,6,Long
2024-10-30,16168.0,862.5,17030.5,6,Long
2024-10-31,16168.0,-1252.5,14915.5,6,Long
2024-11-01,16168.0,-679.5,15488.5,6,Long
2024-11-03,16168.0,-886.5,15281.5,6,Long
2024-11-04,16168.0,-1167.0,15001.0,6,Long
2024-11-05,16168.0,367.5,16535.5,6,Long
2024-11-06,16168.0,3649.5,19817.5,6,Long
2024-11-07,16168.0,5664.0,21832.0,6,Long
2024-11-08,16168.0,5682.0,21850.0,8,Long
2024-11-10,16168.0,6298.0,22466.0,8,Long
2024-11-11,16168.0,5594.0,21762.0,8,Long
2024-11-12,16168.0,5146.0,21314.0,8,Long
2024-11-13,16168.0,5194.0,21362.0,8,Long
2024-11-14,16168.0,3462.0,19630.0,8,Long
2024-11-15,16168.0,-106.0,16062.0,8,Long
2024-11-17,16168.0,412.0,16580.0,8,Long
2024-11-18,16168.0,844.0,17012.0,8,Long
2024-11-19,16168.0,2130.0,18298.0,8,Long
2024-11-20,16168.0,1886.0,18054.0,8,Long
2024-11-21,16168.0,2054.0,18222.0,8,Long
2024-11-22,16168.0,2935.75,19103.75,9,Long
2024-11-24,16168.0,3451.0,19619.0,9,Long
2024-11-25,16168.0,2537.5,18705.5,9,Long
2024-11-26,16168.0,3901.0,20069.0,9,Long
2024-11-27,16168.0,2438.5,18606.5,9,Long
2024-11-28,16168.0,3019.0,19187.0,9,Long
2024-11-29,16168.0,3952.75,20120.75,9,Long
2024-12-01,16168.0,3709.75,19877.75,9,Long
2024-12-02,16168.0,5953.0,22121.0,9,Long
2024-12-03,16168.0,7024.0,23192.0,9,Long
2024-12-04,16168.0,8621.5,24789.5,9,Long
2024-12-05,16168.0,8131.0,24299.0,9,Long
2024-12-06,16168.0,9726.25,25894.25,10,Long
2024-12-08,16168.0,9963.75,26131.75,10,Long
2024-12-09,16168.0,8041.25,24209.25,10,Long
2024-12-10,16168.0,7671.25,23839.25,10,Long
2024-12-11,16168.0,10968.75,27136.75,10,Long
2024-12-12,16168.0,10831.25,26999.25,10,Long
2024-12-13,16168.0,10991.25,27159.25,10,Long
2024-12-15,16168.0,11278.75,27446.75,10,Long
2024-12-16,16168.0,14376.25,30544.25,10,Long
2024-12-17,16168.0,16128.75,32296.75,10,Long
2024-12-18,32296.75,0.0,32296.75,0,
2024-12-19,32296.75,0.0,32296.75,0,
2024-12-20,32296.75,0.0,32296.75,0,
2024-12-22,32296.75,0.0,32296.75,0,
2024-12-23,32296.75,0.0,32296.75,0,
2024-12-24,32296.75,0.0,32296.75,0,
2024-12-25,32296.75,0.0,32296.75,0,
2024-12-26,32296.75,0.0,32296.75,0,
2024-12-27,32296.75,0.0,32296.75,0,
2024-12-29,32296.75,0.0,32296.75,0,
2024-12-30,32296.75,0.0,32296.75,0,
2024-12-31,32296.75,0.0,32296.75,0,
2025-01-01,32296.75,0.0,32296.75,0,
2025-01-02,32296.75,0.0,32296.75,0,
2025-01-03,32296.75,0.0,32296.75,0,
2025-01-05,32296.75,0.0,32296.75,0,
2025-01-06,32296.75,0.0,32296.75,0,
2025-01-07,32296.75,0.0,32296.75,0,
2025-01-08,32296.75,0.0,32296.75,0,
2025-01-09,32296.75,0.0,32296.75,0,
2025-01-10,32296.75,0.0,32296.75,0,
2025-01-12,32296.75,0.0,32296.75,0,
2025-01-13,32296.75,0.0,32296.75,0,
2025-01-14,32296.75,0.0,32296.75,0,
2025-01-15,32296.75,0.0,32296.75,0,
2025-01-16,32296.75,0.0,32296.75,0,
2025-01-17,32296.75,0.0,32296.75,0,
2025-01-19,32296.75,0.0,32296.75,0,
2025-01-20,32296.75,0.0,32296.75,0,
2025-01-21,32296.75,0.0,32296.75,0,
2025-01-22,32296.75,0.0,32296.75,0,
2025-01-23,32296.75,0.0,32296.75,0,
2025-01-24,32296.75,0.0,32296.75,0,
2025-01-26,32296.75,0.0,32296.75,0,
2025-01-27,32296.75,0.0,32296.75,0,
2025-01-28,32296.75,0.0,32296.75,0,
2025-01-29,32296.75,0.0,32296.75,0,
2025-01-30,32296.75,0.0,32296.75,0,
2025-01-31,32296.75,0.0,32296.75,0,
2025-02-02,32296.75,0.0,32296.75,0,
2025-02-03,32296.75,0.0,32296.75,0,
2025-02-04,32296.75,0.0,32296.75,0,
2025-02-05,32296.75,0.0,32296.75,0,
2025-02-06,32296.75,0.0,32296.75,0,
2025-02-07,32296.75,0.0,32296.75,0,
2025-02-09,32296.75,0.0,32296.75,0,
2025-02-10,32296.75,0.0,32296.75,0,
2025-02-11,32296.75,0.0,32296.75,0,
2025-02-12,32296.75,0.0,32296.75,0,
2025-02-13,32296.75,0.0,32296.75,0,
2025-02-14,32296.75,0.0,32296.75,0,
2025-02-16,32296.75,0.0,32296.75,0,
2025-02-17,32296.75,0.0,32296.75,0,
2025-02-18,32296.75,0.0,32296.75,0,
2025-02-19,32296.75,0.0,32296.75,0,
2025-02-20,32296.75,0.0,32296.75,0,
2025-02-21,32296.75,0.0,32296.75,0,
2025-02-23,32296.75,0.0,32296.75,0,
2025-02-24,32296.75,0.0,32296.75,0,
2025-02-25,32296.75,0.0,32296.75,0,
2025-02-26,32296.75,0.0,32296.75,0,
2025-02-27,32296.75,0.0,32296.75,0,
2025-02-28,32296.75,0.0,32296.75,0,
2025-03-02,32296.75,0.0,32296.75,0,
2025-03-03,32296.75,0.0,32296.75,0,
2025-03-04,32296.75,0.0,32296.75,0,
2025-03-05,32296.75,0.0,32296.75,0,
2025-03-06,32296.75,0.0,32296.75,0,
2025-03-07,32296.75,0.0,32296.75,0,
2025-03-09,32296.75,0.0,32296.75,0,
2025-03-10,32296.75,0.0,32296.75,0,
2025-03-11,32296.75,0.0,32296.75,0,
2025-03-12,32296.75,0.0,32296.75,0,
2025-03-13,32296.75,0.0,32296.75,0,
2025-03-14,32296.75,0.0,32296.75,0,
2025-03-16,32296.75,0.0,32296.75,0,
2025-03-17,32296.75,0.0,32296.75,0,
2025-03-18,32296.75,0.0,32296.75,0,
2025-03-19,32296.75,0.0,32296.75,0,
2025-03-20,32296.75,0.0,32296.75,0,
2025-03-21,32296.75,0.0,32296.75,0,
2025-03-23,32296.75,0.0,32296.75,0,
2025-03-24,32296.75,0.0,32296.75,0,
2025-03-25,32296.75,0.0,32296.75,0,
2025-03-26,32296.75,0.0,32296.75,0,
2025-03-27,32296.75,0.0,32296.75,0,
2025-03-28,32296.75,0.0,32296.75,0,
2025-03-30,32296.75,0.0,32296.75,0,
2025-03-31,32296.75,0.0,32296.75,0,
2025-04-01,32296.75,0.0,32296.75,0,
2025-04-02,32296.75,0.0,32296.75,0,
2025-04-03,32296.75,0.0,32296.75,0,
2025-04-04,32296.75,0.0,32296.75,0,
2025-04-06,32296.75,0.0,32296.75,0,
2025-04-07,32296.75,0.0,32296.75,0,
2025-04-08,32296.75,0.0,32296.75,0,
2025-04-09,32296.75,0.0,32296.75,0,
2025-04-10,32296.75,0.0,32296.75,0,
2025-04-11,32296.75,0.0,32296.75,0,
2025-04-13,32296.75,0.0,32296.75,0,
2025-04-14,32296.75,0.0,32296.75,0,
2025-04-15,32296.75,0.0,32296.75,0,
2025-04-16,32296.75,0.0,32296.75,0,
2025-04-17,32296.75,0.0,32296.75,0,
2025-04-20,32296.75,0.0,32296.75,0,
2025-04-21,32296.75,0.0,32296.75,0,
2025-04-22,32296.75,0.0,32296.75,0,
2025-04-23,32296.75,0.0,32296.75,0,
2025-04-24,32296.75,0.0,32296.75,0,
2025-04-25,32296.75,0.0,32296.75,0,
2025-04-27,32296.75,0.0,32296.75,0,
2025-04-28,32296.75,0.0,32296.75,0,
2025-04-29,32296.75,0.0,32296.75,0,
2025-04-30,32296.75,0.0,32296.75,0,
2025-05-01,32296.75,0.0,32296.75,0,
2025-05-02,32296.75,0.0,32296.75,0,
2025-05-04,32296.75,0.0,32296.75,0,
2025-05-05,32296.75,0.0,32296.75,0,
2025-05-06,32296.75,0.0,32296.75,0,
2025-05-07,32296.75,0.0,32296.75,0,
2025-05-08,32296.75,0.0,32296.75,0,
2025-05-09,32296.75,0.0,32296.75,0,
2025-05-11,32296.75,0.0,32296.75,0,
2025-05-12,32296.75,0.0,32296.75,0,
2025-05-13,32296.75,0.0,32296.75,0,
2025-05-14,32296.75,0.0,32296.75,0,
2025-05-15,32296.75,0.0,32296.75,0,
2025-05-16,32296.75,0.0,32296.75,0,
2025-05-18,32296.75,0.0,32296.75,0,
2025-05-19,32296.75,0.0,32296.75,0,
2025-05-20,32296.75,0.0,32296.75,0,
2025-05-21,32296.75,0.0,32296.75,0,
2025-05-22,32296.75,0.0,32296.75,0,
2025-05-23,32296.75,0.0,32296.75,0,
2025-05-25,32296.75,0.0,32296.75,0,
2025-05-26,32296.75,0.0,32296.75,0,
2025-05-27,32296.75,0.0,32296.75,0,
2025-05-28,32296.75,0.0,32296.75,0,
2025-05-29,32296.75,0.0,32296.75,0,
2025-05-30,32296.75,0.0,32296.75,0,
2025-06-01,32296.75,0.0,32296.75,0,
2025-06-02,32296.75,0.0,32296.75,0,
2025-06-03,32296.75,0.0,32296.75,0,
2025-06-04,32296.75,0.0,32296.75,0,
2025-06-05,32296.75,0.0,32296.75,0,
2025-06-06,32296.75,0.0,32296.75,0,
2025-06-08,32296.75,0.0,32296.75,0,
2025-06-09,32296.75,0.0,32296.75,0,
2025-06-10,32296.75,0.0,32296.75,0,
2025-06-11,32296.75,0.0,32296.75,0,
2025-06-12,32296.75,0.0,32296.75,0,
2025-06-13,32296.75,0.0,32296.75,0,
2025-06-15,32296.75,0.0,32296.75,0,
2025-06-16,32296.75,0.0,32296.75,0,
2025-06-17,32296.75,0.0,32296.75,0,
2025-06-18,32296.75,0.0,32296.75,0,
2025-06-19,32296.75,0.0,32296.75,0,
2025-06-20,32296.75,0.0,32296.75,0,
2025-06-22,32296.75,0.0,32296.75,0,
2025-06-23,32296.75,0.0,32296.75,0,
2025-06-24,32296.75,0.0,32296.75,0,
2025-06-25,32296.75,0.0,32296.75,0,
2025-06-26,32296.75,0.0,32296.75,0,
2025-06-27,32296.75,0.0,32296.75,0,
2025-06-29,32296.75,0.0,32296.75,0,
2025-06-30,32296.75,0.0,32296.75,0,
2025-07-01,32296.75,0.0,32296.75,0,
2025-07-02,32296.75,0.0,32296.75,0,
2025-07-03,32296.75,0.0,32296.75,0,
2025-07-04,32296.75,0.0,32296.75,0,
2025-07-06,32296.75,0.0,32296.75,0,
2025-07-07,32296.75,0.0,32296.75,0,
2025-07-08,32296.75,0.0,32296.75,0,
2025-07-09,32296.75,0.0,32296.75,0,
2025-07-10,32296.75,0.0,32296.75,0,
2025-07-11,32296.75,0.0,32296.75,0,
2025-07-13,32296.75,0.0,32296.75,0,
2025-07-14,32296.75,0.0,32296.75,0,
2025-07-15,32296.75,0.0,32296.75,0,
2025-07-16,32296.75,0.0,32296.75,0,
2025-07-17,32296.75,0.0,32296.75,0,
2025-07-18,32296.75,0.0,32296.75,0,
2025-07-20,32296.75,0.0,32296.75,0,
2025-07-21,32296.75,0.0,32296.75,0,
2025-07-22,32296.75,0.0,32296.75,0,
2025-07-23,32296.75,0.0,32296.75,0,
2025-07-24,32296.75,0.0,32296.75,0,
2025-07-25,32296.75,0.0,32296.75,0,
2025-07-27,32296.75,0.0,32296.75,0,
2025-07-28,32296.75,0.0,32296.75,0,
2025-07-29,32296.75,0.0,32296.75,0,
2025-07-30,32296.75,0.0,32296.75,0,
2025-07-31,32296.75,0.0,32296.75,0,
2025-08-01,32296.75,0.0,32296.75,0,
2025-08-03,32296.75,0.0,32296.75,0,
2025-08-04,32296.75,0.0,32296.75,0,
2025-08-05,32296.75,0.0,32296.75,0,
2025-08-06,32296.75,0.0,32296.75,0,
2025-08-07,32296.75,0.0,32296.75,0,
2025-08-08,32296.75,0.0,32296.75,0,
2025-08-10,32296.75,-59.5,32237.25,1,Long
2025-08-11,32236.5,0.0,32236.5,0,
2025-08-12,32236.5,0.0,32236.5,0,
2025-08-13,32236.5,-10.5,32226.0,1,Long
2025-08-14,32236.5,-71.0,32165.5,1,Long
2025-08-15,32236.5,-163.25,32073.25,1,Long
2025-08-17,32236.5,-108.75,32127.75,1,Long
2025-08-18,32236.5,-155.0,32081.5,1,Long
2025-08-19,32236.5,-537.75,31698.75,1,Long
2025-08-20,31699.5,0.0,31699.5,0,
2025-08-21,31699.5,0.0,31699.5,0,
2025-08-22,31699.5,0.0,31699.5,0,
2025-08-24,31699.5,0.0,31699.5,0,
2025-08-25,31699.5,0.0,31699.5,0,
2025-08-26,31699.5,0.0,31699.5,0,
2025-08-27,31699.5,0.0,31699.5,0,
2025-08-28,31699.5,0.0,31699.5,0,
2025-08-29,31699.5,0.0,31699.5,0,
2025-08-31,31699.5,0.0,31699.5,0,
2025-09-01,31699.5,0.0,31699.5,0,
2025-09-02,31699.5,0.0,31699.5,0,
2025-09-03,31699.5,0.0,31699.5,0,
2025-09-04,31699.5,0.0,31699.5,0,
2025-09-05,31699.5,0.0,31699.5,0,
2025-09-07,31699.5,0.0,31699.5,0,
2025-09-08,31699.5,29.25,31728.75,1,Long
2025-09-09,31699.5,107.75,31807.25,1,Long
2025-09-10,31699.5,122.75,31822.25,1,Long
2025-09-11,31699.5,241.25,31940.75,1,Long
2025-09-12,31699.5,336.5,32036.0,1,Long
2025-09-14,31699.5,333.0,32032.5,1,Long
2025-09-15,31699.5,527.0,32226.5,1,Long
2025-09-16,31699.5,765.0,32464.5,1,Long
2025-09-17,31699.5,806.0,32505.5,1,Long
2025-09-18,31699.5,962.0,32661.5,1,Long
2025-09-19,31699.5,1100.5,32800.0,2,Long
2025-09-21,31699.5,1080.5,32780.0,2,Long
2025-09-22,31699.5,1373.0,33072.5,2,Long
2025-09-23,31699.5,1059.5,32759.0,2,Long
2025-09-24,31699.5,889.5,32589.0,2,Long
2025-09-25,31699.5,611.5,32311.0,2,Long
2025-09-26,31699.5,833.0,32532.5,2,Long
2025-09-28,31699.5,922.5,32622.0,2,Long
2025-09-29,31699.5,1026.0,32725.5,2,Long
2025-09-30,31699.5,1038.5,32738.0,2,Long
2025-10-01,31699.5,1423.0,33122.5,2,Long
2025-10-02,31699.5,1626.5,33326.0,2,Long
2025-10-03,31699.5,1266.5,32966.0,4,Long
2025-10-05,31699.5,1607.5,33307.0,4,Long
2025-10-06,31699.5,1908.5,33608.0,4,Long
2025-10-07,31699.5,1474.5,33174.0,4,Long
2025-10-08,31699.5,2856.5,34556.0,4,Long
2025-10-09,31699.5,2680.5,34380.0,4,Long
2025-10-10,34382.0,0.0,34382.0,0,
2025-10-12,34382.0,0.0,34382.0,0,
2025-10-13,34382.0,0.0,34382.0,0,
2025-10-14,34382.0,0.0,34382.0,0,
2025-10-15,34382.0,0.0,34382.0,0,
2025-10-16,34382.0,0.0,34382.0,0,
2025-10-17,34382.0,0.0,34382.0,0,
2025-10-19,34382.0,0.0,34382.0,0,
2025-10-20,34382.0,0.0,34382.0,0,
2025-10-21,34382.0,0.0,34382.0,0,
2025-10-22,34382.0,0.0,34382.0,0,
2025-10-23,34382.0,0.0,34382.0,0,
2025-10-24,34382.0,0.0,34382.0,0,
2025-10-26,34382.0,0.0,34382.0,0,
2025-10-27,34382.0,277.75,34659.75,1,Long
2025-10-28,34382.0,467.0,34849.0,1,Long
2025-10-29,34382.0,518.75,34900.75,1,Long
2025-10-30,34382.0,453.5,34835.5,1,Long
2025-10-31,34382.0,266.75,34648.75,1,Long
2025-11-02,34382.0,363.75,34745.75,1,Long
2025-11-03,34382.0,352.0,34734.0,1,Long
2025-11-04,34382.0,-213.25,34168.75,1,Long
2025-11-05,34169.25,0.0,34169.25,0,
2025-11-06,34169.25,-456.0,33713.25,1,Long
2025-11-07,33713.25,0.0,33713.25,0,
2025-11-09,33713.25,0.0,33713.25,0,
2025-11-10,33713.25,0.0,33713.25,0,
2025-11-11,33713.25,-91.75,33621.5,1,Long
2025-11-12,33621.75,0.0,33621.75,0,
2025-11-13,33621.75,0.0,33621.75,0,
2025-11-14,33621.75,0.0,33621.75,0,
2025-11-16,33621.75,0.0,33621.75,0,
2025-11-17,33621.75,0.0,33621.75,0,
2025-11-18,33621.75,0.0,33621.75,0,
2025-11-19,33621.75,0.0,33621.75,0,
2025-11-20,33621.75,0.0,33621.75,0,
2025-11-21,33621.75,0.0,33621.75,0,
2025-11-23,33621.75,0.0,33621.75,0,
2025-11-24,33621.75,0.0,33621.75,0,
2025-11-25,33621.75,0.0,33621.75,0,
2025-11-26,33621.75,0.0,33621.75,0,
2025-11-27,33621.75,0.0,33621.75,0,
2025-11-28,33621.75,0.0,33621.75,0,
2025-11-30,33621.75,0.0,33621.75,0,
2025-12-01,33621.75,0.0,33621.75,0,
2025-12-02,33621.75,0.0,33621.75,0,
2025-12-03,33621.75,0.0,33621.75,0,
2025-12-04,33621.75,0.0,33621.75,0,
2025-12-05,33621.75,0.0,33621.75,0,
2025-12-07,33621.75,0.0,33621.75,0,
2025-12-08,33621.75,0.0,33621.75,0,
2025-12-09,33621.75,0.0,33621.75,0,
2025-12-10,33621.75,0.0,33621.75,0,
2025-12-11,33621.75,0.0,33621.75,0,
2025-12-12,33621.75,0.0,33621.75,0,
2025-12-14,33621.75,0.0,33621.75,0,
2025-12-15,33621.75,0.0,33621.75,0,
2025-12-16,33621.75,0.0,33621.75,0,
2025-12-17,33621.75,0.0,33621.75,0,
2025-12-18,33621.75,0.0,33621.75,0,
2025-12-19,33621.75,0.0,33621.75,0,
2025-12-21,33621.75,0.0,33621.75,0,
2025-12-22,33621.75,0.0,33621.75,0,
2025-12-23,33621.75,0.0,33621.75,0,
2025-12-24,33621.75,0.0,33621.75,0,
2025-12-25,33621.75,17.25,33639.0,1,Long
2025-12-26,33621.75,-13.0,33608.75,1,Long
2025-12-28,33620.75,0.0,33620.75,0,
2025-12-29,33620.75,0.0,33620.75,0,
2025-12-30,33620.75,0.0,33620.75,0,
2025-12-31,33620.75,0.0,33620.75,0,
2026-01-01,33620.75,0.0,33620.75,0,
2026-01-02,33620.75,0.0,33620.75,0,
2026-01-04,33620.75,0.0,33620.75,0,
2026-01-05,33620.75,0.0,33620.75,0,
2026-01-06,33620.75,0.0,33620.75,0,
2026-01-07,33620.75,0.0,33620.75,0,
2026-01-08,33620.75,0.0,33620.75,0,
2026-01-09,33620.75,0.0,33620.75,0,
2026-01-11,33620.75,0.0,33620.75,0,
2026-01-12,33620.75,0.0,33620.75,0,
2026-01-13,33620.75,0.0,33620.75,0,
2026-01-14,33620.75,0.0,33620.75,0,
2026-01-15,33620.75,0.0,33620.75,0,
2026-01-16,33620.75,0.0,33620.75,0,
2026-01-18,33620.75,0.0,33620.75,0,
2026-01-19,33620.75,0.0,33620.75,0,
2026-01-20,33620.75,0.0,33620.75,0,
2026-01-21,33620.75,0.0,33620.75,0,
2026-01-22,33620.75,0.0,33620.75,0,
2026-01-23,33620.75,0.0,33620.75,0,
2026-01-25,33620.75,0.0,33620.75,0,
2026-01-26,33620.75,0.0,33620.75,0,
2026-01-27,33620.75,0.0,33620.75,0,
2026-01-28,33620.75,0.0,33620.75,0,
2026-01-29,33620.75,0.0,33620.75,0,
2026-01-30,33620.75,0.0,33620.75,0,
2026-02-01,33620.75,0.0,33620.75,0,
2026-02-02,33620.75,0.0,33620.75,0,
2026-02-03,33620.75,0.0,33620.75,0,
2026-02-04,33620.75,0.0,33620.75,0,
2026-02-05,33620.75,0.0,33620.75,0,
2026-02-06,33620.75,0.0,33620.75,0,
2026-02-08,33620.75,0.0,33620.75,0,
2026-02-09,33620.75,0.0,33620.75,0,
2026-02-10,33620.75,0.0,33620.75,0,
2026-02-11,33620.75,0.0,33620.75,0,
2026-02-12,33620.75,0.0,33620.75,0,
2026-02-13,33620.75,0.0,33620.75,0,
2026-02-15,33620.75,0.0,33620.75,0,
2026-02-16,33620.75,0.0,33620.75,0,
2026-02-17,33620.75,0.0,33620.75,0,
2026-02-18,33620.75,0.0,33620.75,0,
2026-02-19,33620.75,0.0,33620.75,0,
2026-02-20,33620.75,0.0,33620.75,0,
2026-02-22,33620.75,0.0,33620.75,0,
2026-02-23,33620.75,0.0,33620.75,0,
2026-02-24,33620.75,0.0,33620.75,0,
2026-02-25,33620.75,0.0,33620.75,0,
2026-02-26,33620.75,0.0,33620.75,0,
2026-02-27,33620.75,0.0,33620.75,0,
2026-03-01,33620.75,0.0,33620.75,0,
2026-03-02,33620.75,0.0,33620.75,0,
2026-03-03,33620.75,0.0,33620.75,0,
2026-03-04,33620.75,0.0,33620.75,0,
2026-03-05,33620.75,0.0,33620.75,0,
2026-03-06,33620.75,0.0,33620.75,0,
2026-03-08,33620.75,0.0,33620.75,0,
