date,mnq_pnl,mym_pnl,combined_pnl,combined_equity,combined_drawdown
2019-05-05,0.0,0.0,0.0,74485.5,0.0
2019-05-06,0.0,0.0,0.0,74485.5,0.0
2019-05-07,0.0,0.0,0.0,74485.5,0.0
2019-05-08,0.0,0.0,0.0,74485.5,0.0
2019-05-09,0.0,0.0,0.0,74485.5,0.0
2019-05-10,0.0,0.0,0.0,74485.5,0.0
2019-05-12,0.0,0.0,0.0,74485.5,0.0
2019-05-13,0.0,0.0,0.0,74485.5,0.0
2019-05-14,0.0,0.0,0.0,74485.5,0.0
2019-05-15,0.0,0.0,0.0,74485.5,0.0
2019-05-16,0.0,0.0,0.0,74485.5,0.0
2019-05-17,0.0,0.0,0.0,74485.5,0.0
2019-05-19,0.0,0.0,0.0,74485.5,0.0
2019-05-20,0.0,0.0,0.0,74485.5,0.0
2019-05-21,0.0,0.0,0.0,74485.5,0.0
2019-05-22,0.0,0.0,0.0,74485.5,0.0
2019-05-23,0.0,0.0,0.0,74485.5,0.0
2019-05-24,0.0,0.0,0.0,74485.5,0.0
2019-05-26,0.0,0.0,0.0,74485.5,0.0
2019-05-27,0.0,0.0,0.0,74485.5,0.0
2019-05-28,0.0,0.0,0.0,74485.5,0.0
2019-05-29,0.0,0.0,0.0,74485.5,0.0
2019-05-30,0.0,0.0,0.0,74485.5,0.0
2019-05-31,0.0,0.0,0.0,74485.5,0.0
2019-06-02,0.0,0.0,0.0,74485.5,0.0
2019-06-03,0.0,0.0,0.0,74485.5,0.0
2019-06-04,0.0,0.0,0.0,74485.5,0.0
2019-06-05,0.0,0.0,0.0,74485.5,0.0
2019-06-06,0.0,319.5,319.5,74805.0,0.0
2019-06-07,0.0,382.5,382.5,75187.5,0.0
2019-06-09,-31.5,55.5,24.0,75211.5,0.0
2019-06-10,0.0,91.5,91.5,75303.0,0.0
2019-06-11,37.5,-118.5,-81.0,75222.0,-81.0
2019-06-12,-145.5,-123.0,-268.5,74953.5,-349.5
2019-06-13,34.5,276.0,310.5,75264.0,-39.0
2019-06-14,-69.0,-34.0,-103.0,75161.0,-142.0
2019-06-16,252.0,126.0,378.0,75539.0,0.0
2019-06-17,220.5,-126.0,94.5,75633.5,0.0
2019-06-18,733.5,772.0,1505.5,77139.0,0.0
2019-06-19,253.5,196.0,449.5,77588.5,0.0
2019-06-20,219.0,196.0,415.0,78003.5,0.0
2019-06-21,-149.5,-72.0,-221.5,77782.0,-221.5
2019-06-23,190.0,180.0,370.0,78152.0,0.0
2019-06-24,-90.0,-122.0,-212.0,77940.0,-212.0
2019-06-25,-1062.0,-292.0,-1354.0,76586.0,-1566.0
2019-06-26,220.0,94.0,314.0,76900.0,-1252.0
2019-06-27,336.0,-54.0,282.0,77182.0,-970.0
2019-06-28,226.0,184.5,410.5,77592.5,-559.5
2019-06-30,628.0,387.5,1015.5,78608.0,0.0
2019-07-01,-200.0,-200.0,-400.0,78208.0,-400.0
2019-07-02,464.0,95.0,559.0,78767.0,0.0
2019-07-03,436.0,477.5,913.5,79680.5,0.0
2019-07-04,114.0,87.5,201.5,79882.0,0.0
2019-07-05,-417.0,-222.5,-639.5,79242.5,-639.5
2019-07-07,-120.0,-180.0,-300.0,78942.5,-939.5
2019-07-08,-487.5,-350.0,-837.5,78105.0,-1777.0
2019-07-09,530.0,205.0,735.0,78840.0,-1042.0
2019-07-10,802.5,362.5,1165.0,80005.0,0.0
2019-07-11,-55.0,615.0,560.0,80565.0,0.0
2019-07-12,362.5,381.0,743.5,81308.5,0.0
2019-07-14,-60.0,75.0,15.0,81323.5,0.0
2019-07-15,425.0,51.0,476.0,81799.5,0.0
2019-07-16,-530.0,-54.0,-584.0,81215.5,-584.0
2019-07-17,-685.0,-555.0,-1240.0,79975.5,-1824.0
2019-07-18,727.5,474.0,1201.5,81177.0,-622.5
2019-07-19,-1351.5,-693.0,-2044.5,79132.5,-2667.0
2019-07-21,384.0,165.0,549.0,79681.5,-2118.0
2019-07-22,933.0,228.0,1161.0,80842.5,-957.0
2019-07-23,297.0,381.0,678.0,81520.5,-279.0
2019-07-24,759.0,-168.0,591.0,82111.5,0.0
2019-07-25,-288.0,-402.0,-690.0,81421.5,-690.0
2019-07-26,267.0,-32.5,234.5,81656.0,-455.5
2019-07-28,36.0,-63.0,-27.0,81629.0,-482.5
2019-07-29,-96.0,374.5,278.5,81907.5,-204.0
2019-07-30,-246.0,24.5,-221.5,81686.0,-425.5
2019-07-31,-1824.0,-1253.0,-3077.0,78609.0,-3502.5
2019-08-01,-621.0,-7.0,-628.0,77981.0,-4130.5
2019-08-02,12.0,0.0,12.0,77993.0,-4118.5
2019-08-04,0.0,0.0,0.0,77993.0,-4118.5
2019-08-05,0.0,0.0,0.0,77993.0,-4118.5
2019-08-06,0.0,0.0,0.0,77993.0,-4118.5
2019-08-07,0.0,0.0,0.0,77993.0,-4118.5
2019-08-08,0.0,0.0,0.0,77993.0,-4118.5
2019-08-09,0.0,0.0,0.0,77993.0,-4118.5
2019-08-11,0.0,0.0,0.0,77993.0,-4118.5
2019-08-12,0.0,0.0,0.0,77993.0,-4118.5
2019-08-13,0.0,0.0,0.0,77993.0,-4118.5
2019-08-14,0.0,0.0,0.0,77993.0,-4118.5
2019-08-15,0.0,0.0,0.0,77993.0,-4118.5
2019-08-16,0.0,0.0,0.0,77993.0,-4118.5
2019-08-18,0.0,0.0,0.0,77993.0,-4118.5
2019-08-19,0.0,0.0,0.0,77993.0,-4118.5
2019-08-20,0.0,0.0,0.0,77993.0,-4118.5
2019-08-21,0.0,0.0,0.0,77993.0,-4118.5
2019-08-22,0.0,0.0,0.0,77993.0,-4118.5
2019-08-23,0.0,0.0,0.0,77993.0,-4118.5
2019-08-25,0.0,0.0,0.0,77993.0,-4118.5
2019-08-26,0.0,0.0,0.0,77993.0,-4118.5
2019-08-27,0.0,0.0,0.0,77993.0,-4118.5
2019-08-28,0.0,0.0,0.0,77993.0,-4118.5
2019-08-29,0.0,0.0,0.0,77993.0,-4118.5
2019-08-30,0.0,0.0,0.0,77993.0,-4118.5
2019-09-01,0.0,0.0,0.0,77993.0,-4118.5
2019-09-02,0.0,0.0,0.0,77993.0,-4118.5
2019-09-03,0.0,0.0,0.0,77993.0,-4118.5
2019-09-04,0.0,0.0,0.0,77993.0,-4118.5
2019-09-05,0.0,195.0,195.0,78188.0,-3923.5
2019-09-06,-48.0,102.0,54.0,78242.0,-3869.5
2019-09-08,-45.0,13.5,-31.5,78210.5,-3901.0
2019-09-09,0.0,-33.0,-33.0,78177.5,-3934.0
2019-09-10,0.0,111.0,111.0,78288.5,-3823.0
2019-09-11,0.0,574.5,574.5,78863.0,-3248.5
2019-09-12,-112.5,-78.0,-190.5,78672.5,-3439.0
2019-09-13,-132.0,-21.0,-153.0,78519.5,-3592.0
2019-09-15,-432.0,-270.0,-702.0,77817.5,-4294.0
2019-09-16,0.0,-48.0,-48.0,77769.5,-4342.0
2019-09-17,156.0,18.0,174.0,77943.5,-4168.0
2019-09-18,-31.5,-6.0,-37.5,77906.0,-4205.5
2019-09-19,126.0,54.0,180.0,78086.0,-4025.5
2019-09-20,-571.5,-416.0,-987.5,77098.5,-5013.0
2019-09-22,12.0,202.0,214.0,77312.5,-4799.0
2019-09-23,54.0,76.0,130.0,77442.5,-4669.0
2019-09-24,-795.0,-300.0,-1095.0,76347.5,-5764.0
2019-09-25,0.0,118.0,118.0,76465.5,-5646.0
2019-09-26,0.0,-184.0,-184.0,76281.5,-5830.0
2019-09-27,0.0,22.0,22.0,76303.5,-5808.0
2019-09-29,0.0,155.0,155.0,76458.5,-5653.0
2019-09-30,0.0,232.5,232.5,76691.0,-5420.5
2019-10-01,0.0,-1027.5,-1027.5,75663.5,-6448.0
2019-10-02,0.0,0.0,0.0,75663.5,-6448.0
2019-10-03,0.0,0.0,0.0,75663.5,-6448.0
2019-10-04,0.0,0.0,0.0,75663.5,-6448.0
2019-10-06,0.0,0.0,0.0,75663.5,-6448.0
2019-10-07,0.0,0.0,0.0,75663.5,-6448.0
2019-10-08,0.0,0.0,0.0,75663.5,-6448.0
2019-10-09,0.0,0.0,0.0,75663.5,-6448.0
2019-10-10,0.0,0.0,0.0,75663.5,-6448.0
2019-10-11,0.0,0.0,0.0,75663.5,-6448.0
2019-10-13,0.0,0.0,0.0,75663.5,-6448.0
2019-10-14,0.0,0.0,0.0,75663.5,-6448.0
2019-10-15,0.0,0.0,0.0,75663.5,-6448.0
2019-10-16,0.0,-4.5,-4.5,75659.0,-6452.5
2019-10-17,0.0,-4.5,-4.5,75654.5,-6457.0
2019-10-18,0.0,-300.0,-300.0,75354.5,-6757.0
2019-10-20,0.0,-55.5,-55.5,75299.0,-6812.5
2019-10-21,0.0,0.0,0.0,75299.0,-6812.5
2019-10-22,0.0,0.0,0.0,75299.0,-6812.5
2019-10-23,0.0,0.0,0.0,75299.0,-6812.5
2019-10-24,0.0,0.0,0.0,75299.0,-6812.5
2019-10-25,0.0,0.0,0.0,75299.0,-6812.5
2019-10-27,54.0,0.0,54.0,75353.0,-6758.5
2019-10-28,334.5,141.0,475.5,75828.5,-6283.0
2019-10-29,-322.5,-42.0,-364.5,75464.0,-6647.5
2019-10-30,385.5,201.0,586.5,76050.5,-6061.0
2019-10-31,-202.5,-175.5,-378.0,75672.5,-6439.0
2019-11-01,441.0,343.5,784.5,76457.0,-5654.5
2019-11-03,82.5,84.0,166.5,76623.5,-5488.0
2019-11-04,378.0,168.0,546.0,77169.5,-4942.0
2019-11-05,-159.0,-36.0,-195.0,76974.5,-5137.0
2019-11-06,-60.0,3.0,-57.0,76917.5,-5194.0
2019-11-07,204.0,304.5,508.5,77426.0,-4685.5
2019-11-08,160.5,58.5,219.0,77645.0,-4466.5
2019-11-10,-62.0,-182.0,-244.0,77401.0,-4710.5
2019-11-11,-66.0,164.0,98.0,77499.0,-4612.5
2019-11-12,164.0,-96.0,68.0,77567.0,-4544.5
2019-11-13,-2.0,308.0,306.0,77873.0,-4238.5
2019-11-14,58.0,198.0,256.0,78129.0,-3982.5
2019-11-15,418.0,240.0,658.0,78787.0,-3324.5
2019-11-17,-108.0,-26.0,-134.0,78653.0,-3458.5
2019-11-18,140.0,170.0,310.0,78963.0,-3148.5
2019-11-19,-80.0,-350.0,-430.0,78533.0,-3578.5
2019-11-20,-380.0,-248.0,-628.0,77905.0,-4206.5
2019-11-21,-2.0,100.0,98.0,78003.0,-4108.5
2019-11-22,127.5,172.0,299.5,78302.5,-3809.0
2019-11-24,247.5,172.5,420.0,78722.5,-3389.0
2019-11-25,687.5,332.5,1020.0,79742.5,-2369.0
2019-11-26,260.0,177.5,437.5,80180.0,-1931.5
2019-11-27,240.0,-157.5,82.5,80262.5,-1849.0
2019-11-28,237.5,-12.5,225.0,80487.5,-1624.0
2019-11-29,-280.0,5.0,-275.0,80212.5,-1899.0
2019-12-01,97.5,225.0,322.5,80535.0,-1576.5
2019-12-02,-1267.5,-812.5,-2080.0,78455.0,-3656.5
2019-12-03,-425.0,-2.5,-427.5,78027.5,-4084.0
2019-12-04,290.0,0.0,290.0,78317.5,-3794.0
2019-12-05,240.0,0.0,240.0,78557.5,-3554.0
2019-12-06,886.5,0.0,886.5,79444.0,-2667.5
2019-12-08,15.0,0.0,15.0,79459.0,-2652.5
2019-12-09,-555.0,0.0,-555.0,78904.0,-3207.5
2019-12-10,33.0,0.0,33.0,78937.0,-3174.5
2019-12-11,645.0,0.0,645.0,79582.0,-2529.5
2019-12-12,1047.0,0.0,1047.0,80629.0,-1482.5
2019-12-13,243.0,-112.5,130.5,80759.5,-1352.0
2019-12-15,159.0,12.0,171.0,80930.5,-1181.0
2019-12-16,759.0,0.0,759.0,81689.5,-422.0
2019-12-17,54.0,42.0,96.0,81785.5,-326.0
2019-12-18,225.0,-28.5,196.5,81982.0,-129.5
2019-12-19,696.0,204.0,900.0,82882.0,0.0
2019-12-20,386.5,108.0,494.5,83376.5,0.0
2019-12-22,168.0,37.5,205.5,83582.0,0.0
2019-12-23,98.0,96.0,194.0,83776.0,0.0
2019-12-24,10.5,-78.0,-67.5,83708.5,-67.5
2019-12-25,3.5,49.5,53.0,83761.5,-14.5
2019-12-26,1088.5,196.5,1285.0,85046.5,0.0
2019-12-27,-409.5,-109.0,-518.5,84528.0,-518.5
2019-12-29,266.0,100.0,366.0,84894.0,-152.5
2019-12-30,-878.5,-362.0,-1240.5,83653.5,-1393.0
2019-12-31,511.0,162.0,673.0,84326.5,-720.0
2020-01-01,63.0,86.0,149.0,84475.5,-571.0
2020-01-02,1718.5,142.0,1860.5,86336.0,0.0
2020-01-03,-1260.0,-118.0,-1378.0,84958.0,-1378.0
2020-01-05,-516.0,-158.0,-674.0,84284.0,-2052.0
2020-01-06,1136.0,378.0,1514.0,85798.0,-538.0
2020-01-07,-1552.0,-732.0,-2284.0,83514.0,-2822.0
2020-01-08,3200.0,896.0,4096.0,87610.0,0.0
2020-01-09,1016.0,406.0,1422.0,89032.0,0.0
2020-01-10,-596.0,-456.0,-1052.0,87980.0,-1052.0
2020-01-12,148.0,202.5,350.5,88330.5,-701.5
2020-01-13,1880.0,55.0,1935.0,90265.5,0.0
2020-01-14,-1184.0,-30.0,-1214.0,89051.5,-1214.0
2020-01-15,692.0,510.0,1202.0,90253.5,-12.0
2020-01-16,1144.0,525.0,1669.0,91922.5,0.0
2020-01-17,409.0,-7.5,401.5,92324.0,0.0
2020-01-19,243.0,67.5,310.5,92634.5,0.0
2020-01-20,-265.5,-297.5,-563.0,92071.5,-563.0
2020-01-21,148.5,255.0,403.5,92475.0,-159.5
2020-01-22,76.5,-462.5,-386.0,92089.0,-545.5
2020-01-23,1575.0,175.0,1750.0,93839.0,0.0
2020-01-24,-2389.5,-658.0,-3047.5,90791.5,-3047.5
2020-01-26,-2209.5,-696.0,-2905.5,87886.0,-5953.0
2020-01-27,-643.5,9.0,-634.5,87251.5,-6587.5
2020-01-28,2182.5,0.0,2182.5,89434.0,-4405.0
2020-01-29,391.5,0.0,391.5,89825.5,-4013.5
2020-01-30,1732.5,0.0,1732.5,91558.0,-2281.0
2020-01-31,-3652.5,0.0,-3652.5,87905.5,-5933.5
2020-02-02,155.0,0.0,155.0,88060.5,-5778.5
2020-02-03,1390.0,0.0,1390.0,89450.5,-4388.5
2020-02-04,4965.0,0.0,4965.0,94415.5,0.0
2020-02-05,860.0,0.0,860.0,95275.5,0.0
2020-02-06,1715.0,-232.5,1482.5,96758.0,0.0
2020-02-07,-1335.0,0.0,-1335.0,95423.0,-1335.0
2020-02-09,-875.0,0.0,-875.0,94548.0,-2210.0
2020-02-10,3380.0,0.0,3380.0,97928.0,0.0
2020-02-11,320.0,0.0,320.0,98248.0,0.0
2020-02-12,705.0,0.0,705.0,98953.0,0.0
2020-02-13,665.0,0.0,665.0,99618.0,0.0
2020-02-14,420.0,-133.5,286.5,99904.5,0.0
2020-02-16,665.0,-13.5,651.5,100556.0,0.0
2020-02-17,-1225.0,0.0,-1225.0,99331.0,-1225.0
2020-02-18,1230.0,0.0,1230.0,100561.0,0.0
2020-02-19,1615.0,0.0,1615.0,102176.0,0.0
2020-02-20,-3445.0,0.0,-3445.0,98731.0,-3445.0
2020-02-21,-2330.0,0.0,-2330.0,96401.0,-5775.0
2020-02-23,-1810.0,0.0,-1810.0,94591.0,-7585.0
2020-02-24,0.0,0.0,0.0,94591.0,-7585.0
2020-02-25,0.0,0.0,0.0,94591.0,-7585.0
2020-02-26,0.0,0.0,0.0,94591.0,-7585.0
2020-02-27,0.0,0.0,0.0,94591.0,-7585.0
2020-02-28,0.0,0.0,0.0,94591.0,-7585.0
2020-03-01,0.0,0.0,0.0,94591.0,-7585.0
2020-03-02,0.0,0.0,0.0,94591.0,-7585.0
2020-03-03,0.0,0.0,0.0,94591.0,-7585.0
2020-03-04,0.0,0.0,0.0,94591.0,-7585.0
2020-03-05,0.0,0.0,0.0,94591.0,-7585.0
2020-03-06,0.0,0.0,0.0,94591.0,-7585.0
2020-03-08,0.0,0.0,0.0,94591.0,-7585.0
2020-03-09,0.0,0.0,0.0,94591.0,-7585.0
2020-03-10,0.0,0.0,0.0,94591.0,-7585.0
2020-03-11,0.0,0.0,0.0,94591.0,-7585.0
2020-03-12,0.0,0.0,0.0,94591.0,-7585.0
2020-03-13,0.0,0.0,0.0,94591.0,-7585.0
2020-03-15,0.0,0.0,0.0,94591.0,-7585.0
2020-03-16,0.0,0.0,0.0,94591.0,-7585.0
2020-03-17,0.0,0.0,0.0,94591.0,-7585.0
2020-03-18,0.0,0.0,0.0,94591.0,-7585.0
2020-03-19,0.0,0.0,0.0,94591.0,-7585.0
2020-03-20,0.0,0.0,0.0,94591.0,-7585.0
2020-03-22,0.0,0.0,0.0,94591.0,-7585.0
2020-03-23,0.0,0.0,0.0,94591.0,-7585.0
2020-03-24,0.0,0.0,0.0,94591.0,-7585.0
2020-03-25,0.0,0.0,0.0,94591.0,-7585.0
2020-03-26,0.0,0.0,0.0,94591.0,-7585.0
2020-03-27,0.0,0.0,0.0,94591.0,-7585.0
2020-03-29,0.0,0.0,0.0,94591.0,-7585.0
2020-03-30,0.0,0.0,0.0,94591.0,-7585.0
2020-03-31,0.0,0.0,0.0,94591.0,-7585.0
2020-04-01,0.0,0.0,0.0,94591.0,-7585.0
2020-04-02,0.0,0.0,0.0,94591.0,-7585.0
2020-04-03,0.0,0.0,0.0,94591.0,-7585.0
2020-04-05,0.0,0.0,0.0,94591.0,-7585.0
2020-04-06,0.0,0.0,0.0,94591.0,-7585.0
2020-04-07,0.0,241.5,241.5,94832.5,-7343.5
2020-04-08,0.0,1152.0,1152.0,95984.5,-6191.5
2020-04-09,79.5,615.0,694.5,96679.0,-5497.0
2020-04-12,-729.0,-579.0,-1308.0,95371.0,-6805.0
2020-04-13,0.0,489.0,489.0,95860.0,-6316.0
2020-04-14,1843.5,204.0,2047.5,97907.5,-4268.5
2020-04-15,-844.5,-736.5,-1581.0,96326.5,-5849.5
2020-04-16,2403.0,1461.0,3864.0,100190.5,-1985.5
2020-04-17,-751.5,-138.0,-889.5,99301.0,-2875.0
2020-04-19,-366.0,-4.5,-370.5,98930.5,-3245.5
2020-04-20,-100.5,-1308.0,-1408.5,97522.0,-4654.0
2020-04-21,-1633.5,-462.0,-2095.5,95426.5,-6749.5
2020-04-22,951.0,444.0,1395.0,96821.5,-5354.5
2020-04-23,-385.5,-21.0,-406.5,96415.0,-5761.0
2020-04-24,1278.0,569.5,1847.5,98262.5,-3913.5
2020-04-26,-110.0,302.0,192.0,98454.5,-3721.5
2020-04-27,560.0,266.0,826.0,99280.5,-2895.5
2020-04-28,-446.0,658.0,212.0,99492.5,-2683.5
2020-04-29,2586.0,904.0,3490.0,102982.5,0.0
2020-04-30,-2022.0,-1554.0,-3576.0,99406.5,-3576.0
2020-05-01,-1090.0,-678.0,-1768.0,97638.5,-5344.0
2020-05-03,-952.0,-218.0,-1170.0,96468.5,-6514.0
2020-05-04,1926.0,526.0,2452.0,98920.5,-4062.0
2020-05-05,1060.0,66.0,1126.0,100046.5,-2936.0
2020-05-06,68.0,-280.0,-212.0,99834.5,-3148.0
2020-05-07,1412.0,986.0,2398.0,102232.5,-750.0
2020-05-08,671.5,370.5,1042.0,103274.5,0.0
2020-05-10,322.5,355.0,677.5,103952.0,0.0
2020-05-11,237.5,-1220.0,-982.5,102969.5,-982.5
2020-05-12,-2630.0,-852.5,-3482.5,99487.0,-4465.0
2020-05-13,-27.5,-1092.5,-1120.0,98367.0,-5585.0
2020-05-14,962.5,915.0,1877.5,100244.5,-3707.5
2020-05-15,120.0,82.5,202.5,100447.0,-3505.0
2020-05-17,450.0,540.0,990.0,101437.0,-2515.0
2020-05-18,1795.0,1665.0,3460.0,104897.0,0.0
2020-05-19,-260.0,-360.0,-620.0,104277.0,-620.0
2020-05-20,1675.0,155.0,1830.0,106107.0,0.0
2020-05-21,-830.0,-375.0,-1205.0,104902.0,-1205.0
2020-05-22,242.0,619.5,861.5,105763.5,-343.5
2020-05-24,399.0,141.0,540.0,106303.5,0.0
2020-05-25,651.0,999.0,1650.0,107953.5,0.0
2020-05-26,-1389.0,987.0,-402.0,107551.5,-402.0
2020-05-27,573.0,1341.0,1914.0,109465.5,0.0
2020-05-28,-288.0,-843.0,-1131.0,108334.5,-1131.0
2020-05-29,2049.0,474.0,2523.0,110857.5,0.0
2020-05-31,-981.0,-432.0,-1413.0,109444.5,-1413.0
2020-06-01,702.0,9.0,711.0,110155.5,-702.0
2020-06-02,1311.0,1338.0,2649.0,112804.5,0.0
2020-06-03,261.0,1191.0,1452.0,114256.5,0.0
2020-06-04,-936.0,606.0,-330.0,113926.5,-330.0
2020-06-05,2270.5,1980.5,4251.0,118177.5,0.0
2020-06-07,885.5,266.0,1151.5,119329.0,0.0
2020-06-08,129.5,1354.5,1484.0,120813.0,0.0
2020-06-09,1529.5,-339.5,1190.0,122003.0,0.0
2020-06-10,759.5,-2772.0,-2012.5,119990.5,-2012.5
2020-06-11,-5106.5,-3.5,-5110.0,114880.5,-7122.5
2020-06-12,-511.0,0.0,-511.0,114369.5,-7633.5
2020-06-14,-1456.0,0.0,-1456.0,112913.5,-9089.5
2020-06-15,4578.0,0.0,4578.0,117491.5,-4511.5
2020-06-16,1662.5,0.0,1662.5,119154.0,-2849.0
2020-06-17,-483.0,0.0,-483.0,118671.0,-3332.0
2020-06-18,997.5,0.0,997.5,119668.5,-2334.5
2020-06-19,-1471.0,0.0,-1471.0,118197.5,-3805.5
2020-06-21,-312.0,0.0,-312.0,117885.5,-4117.5
2020-06-22,3916.0,0.0,3916.0,121801.5,-201.5
2020-06-23,496.0,0.0,496.0,122297.5,0.0
2020-06-24,-3316.0,0.0,-3316.0,118981.5,-3316.0
2020-06-25,2124.0,0.0,2124.0,121105.5,-1192.0
2020-06-26,-4196.0,0.0,-4196.0,116909.5,-5388.0
2020-06-28,-272.0,0.0,-272.0,116637.5,-5660.0
2020-06-29,2652.0,0.0,2652.0,119289.5,-3008.0
2020-06-30,672.0,0.0,672.0,119961.5,-2336.0
2020-07-01,3756.0,0.0,3756.0,123717.5,0.0
2020-07-02,1288.0,0.0,1288.0,125005.5,0.0
2020-07-03,-396.0,0.0,-396.0,124609.5,-396.0
2020-07-05,1219.5,0.0,1219.5,125829.0,0.0
2020-07-06,4446.0,0.0,4446.0,130275.0,0.0
2020-07-07,-1615.5,0.0,-1615.5,128659.5,-1615.5
2020-07-08,2380.5,0.0,2380.5,131040.0,0.0
2020-07-09,1291.5,0.0,1291.5,132331.5,0.0
2020-07-10,1593.0,0.0,1593.0,133924.5,0.0
2020-07-12,612.0,0.0,612.0,134536.5,0.0
2020-07-13,-4162.5,0.0,-4162.5,130374.0,-4162.5
2020-07-14,1296.0,0.0,1296.0,131670.0,-2866.5
2020-07-15,-1264.5,0.0,-1264.5,130405.5,-4131.0
2020-07-16,-1449.0,0.0,-1449.0,128956.5,-5580.0
2020-07-17,984.0,0.0,984.0,129940.5,-4596.0
2020-07-19,480.0,0.0,480.0,130420.5,-4116.0
2020-07-20,6045.0,0.0,6045.0,136465.5,0.0
2020-07-21,-1530.0,0.0,-1530.0,134935.5,-1530.0
2020-07-22,-1005.0,0.0,-1005.0,133930.5,-2535.0
2020-07-23,-4805.0,0.0,-4805.0,129125.5,-7340.0
2020-07-24,-2395.0,0.0,-2395.0,126730.5,-9735.0
2020-07-26,-480.0,0.0,-480.0,126250.5,-10215.0
2020-07-27,5190.0,0.0,5190.0,131440.5,-5025.0
2020-07-28,-2690.0,0.0,-2690.0,128750.5,-7715.0
2020-07-29,2310.0,0.0,2310.0,131060.5,-5405.0
2020-07-30,4520.0,0.0,4520.0,135580.5,-885.0
2020-07-31,200.0,0.0,200.0,135780.5,-685.0
2020-08-02,-75.0,0.0,-75.0,135705.5,-760.0
2020-08-03,2495.0,0.0,2495.0,138200.5,0.0
2020-08-04,745.0,0.0,745.0,138945.5,0.0
2020-08-05,310.0,0.0,310.0,139255.5,0.0
2020-08-06,3265.0,93.0,3358.0,142613.5,0.0
2020-08-07,-2430.0,307.5,-2122.5,140491.0,-2122.5
2020-08-09,-475.0,78.0,-397.0,140094.0,-2519.5
2020-08-10,-665.0,558.0,-107.0,139987.0,-2626.5
2020-08-11,-3025.0,-165.0,-3190.0,136797.0,-5816.5
2020-08-12,4180.0,300.0,4480.0,141277.0,-1336.5
2020-08-13,1470.0,-25.5,1444.5,142721.5,0.0
2020-08-14,-1190.0,-53.0,-1243.0,141478.5,-1243.0
2020-08-16,315.0,202.0,517.0,141995.5,-726.0
2020-08-17,2870.0,-276.0,2594.0,144589.5,0.0
2020-08-18,2230.0,-22.0,2208.0,146797.5,0.0
2020-08-19,-2520.0,-548.0,-3068.0,143729.5,-3068.0
2020-08-20,4180.0,522.0,4702.0,148431.5,0.0
2020-08-21,1270.0,238.0,1508.0,149939.5,0.0
2020-08-23,410.0,138.0,548.0,150487.5,0.0
2020-08-24,1265.0,932.0,2197.0,152684.5,0.0
2020-08-25,2000.0,-470.0,1530.0,154214.5,0.0
2020-08-26,4420.0,202.0,4622.0,158836.5,0.0
2020-08-27,30.0,844.0,874.0,159710.5,0.0
2020-08-28,690.0,-149.0,541.0,160251.5,0.0
2020-08-30,880.0,362.5,1242.5,161494.0,0.0
2020-08-31,1550.0,-830.0,720.0,162214.0,0.0
2020-09-01,4705.0,640.0,5345.0,167559.0,0.0
2020-09-02,1225.0,995.0,2220.0,169779.0,0.0
2020-09-03,-5.0,-2077.5,-2082.5,167696.5,-2082.5
2020-09-04,0.0,-495.0,-495.0,167201.5,-2577.5
2020-09-06,0.0,177.5,177.5,167379.0,-2400.0
2020-09-07,0.0,347.5,347.5,167726.5,-2052.5
2020-09-08,0.0,2.5,2.5,167729.0,-2050.0
2020-09-09,0.0,0.0,0.0,167729.0,-2050.0
2020-09-10,0.0,0.0,0.0,167729.0,-2050.0
2020-09-11,0.0,0.0,0.0,167729.0,-2050.0
2020-09-13,0.0,0.0,0.0,167729.0,-2050.0
2020-09-14,0.0,0.0,0.0,167729.0,-2050.0
2020-09-15,0.0,0.0,0.0,167729.0,-2050.0
2020-09-16,0.0,0.0,0.0,167729.0,-2050.0
2020-09-17,0.0,0.0,0.0,167729.0,-2050.0
2020-09-18,0.0,0.0,0.0,167729.0,-2050.0
2020-09-20,0.0,0.0,0.0,167729.0,-2050.0
2020-09-21,0.0,0.0,0.0,167729.0,-2050.0
2020-09-22,0.0,0.0,0.0,167729.0,-2050.0
2020-09-23,0.0,0.0,0.0,167729.0,-2050.0
2020-09-24,0.0,0.0,0.0,167729.0,-2050.0
2020-09-25,0.0,0.0,0.0,167729.0,-2050.0
2020-09-27,0.0,0.0,0.0,167729.0,-2050.0
2020-09-28,0.0,0.0,0.0,167729.0,-2050.0
2020-09-29,0.0,0.0,0.0,167729.0,-2050.0
2020-09-30,0.0,0.0,0.0,167729.0,-2050.0
2020-10-01,0.0,0.0,0.0,167729.0,-2050.0
2020-10-02,0.0,0.0,0.0,167729.0,-2050.0
2020-10-04,0.0,0.0,0.0,167729.0,-2050.0
2020-10-05,0.0,0.0,0.0,167729.0,-2050.0
2020-10-06,0.0,0.0,0.0,167729.0,-2050.0
2020-10-07,0.0,0.0,0.0,167729.0,-2050.0
2020-10-08,0.0,0.0,0.0,167729.0,-2050.0
2020-10-09,0.0,157.5,157.5,167886.5,-1892.5
2020-10-11,0.0,-55.5,-55.5,167831.0,-1948.0
2020-10-12,2194.5,270.0,2464.5,170295.5,0.0
2020-10-13,33.0,-58.5,-25.5,170270.0,-25.5
2020-10-14,-922.5,-529.5,-1452.0,168818.0,-1477.5
2020-10-15,-273.0,-1.5,-274.5,168543.5,-1752.0
2020-10-16,-733.5,0.0,-733.5,167810.0,-2485.5
2020-10-18,478.5,0.0,478.5,168288.5,-2007.0
2020-10-19,-948.0,-558.0,-1506.0,166782.5,-3513.0
2020-10-20,1.5,0.0,1.5,166784.0,-3511.5
2020-10-21,0.0,0.0,0.0,166784.0,-3511.5
2020-10-22,0.0,0.0,0.0,166784.0,-3511.5
2020-10-23,0.0,0.0,0.0,166784.0,-3511.5
2020-10-25,0.0,0.0,0.0,166784.0,-3511.5
2020-10-26,0.0,0.0,0.0,166784.0,-3511.5
2020-10-27,0.0,0.0,0.0,166784.0,-3511.5
2020-10-28,0.0,0.0,0.0,166784.0,-3511.5
2020-10-29,0.0,0.0,0.0,166784.0,-3511.5
2020-10-30,0.0,0.0,0.0,166784.0,-3511.5
2020-11-01,0.0,0.0,0.0,166784.0,-3511.5
2020-11-02,0.0,0.0,0.0,166784.0,-3511.5
2020-11-03,0.0,0.0,0.0,166784.0,-3511.5
2020-11-04,0.0,0.0,0.0,166784.0,-3511.5
2020-11-05,1633.5,300.0,1933.5,168717.5,-1578.0
2020-11-06,168.0,222.0,390.0,169107.5,-1188.0
2020-11-08,826.5,462.0,1288.5,170396.0,0.0
2020-11-09,-2269.5,354.0,-1915.5,168480.5,-1915.5
2020-11-10,-1540.5,846.0,-694.5,167786.0,-2610.0
2020-11-11,-3.0,-477.0,-480.0,167306.0,-3090.0
2020-11-12,-265.5,-144.0,-409.5,166896.5,-3499.5
2020-11-13,568.5,646.0,1214.5,168111.0,-2285.0
2020-11-15,595.5,472.0,1067.5,169178.5,-1217.5
2020-11-16,19.5,266.0,285.5,169464.0,-932.0
2020-11-17,-417.0,-226.0,-643.0,168821.0,-1575.0
2020-11-18,-592.5,-604.0,-1196.5,167624.5,-2771.5
2020-11-19,342.0,-216.0,126.0,167750.5,-2645.5
2020-11-20,-230.5,-170.0,-400.5,167350.0,-3046.0
2020-11-22,162.0,246.0,408.0,167758.0,-2638.0
2020-11-23,164.0,1048.0,1212.0,168970.0,-1426.0
2020-11-24,1394.0,448.0,1842.0,170812.0,0.0
2020-11-25,428.0,-402.0,26.0,170838.0,0.0
2020-11-26,-200.0,-98.0,-298.0,170540.0,-298.0
2020-11-27,952.0,188.0,1140.0,171680.0,0.0
2020-11-29,346.0,-522.5,-176.5,171503.5,-176.5
2020-11-30,256.0,457.5,713.5,172217.0,0.0
2020-12-01,816.0,-432.5,383.5,172600.5,0.0
2020-12-02,122.0,345.0,467.0,173067.5,0.0
2020-12-03,152.0,397.5,549.5,173617.0,0.0
2020-12-04,202.0,400.0,602.0,174219.0,0.0
2020-12-06,345.0,-22.5,322.5,174541.5,0.0
2020-12-07,305.0,-370.0,-65.0,174476.5,-65.0
2020-12-08,720.0,695.0,1415.0,175891.5,0.0
2020-12-09,-2840.0,-447.5,-3287.5,172604.0,-3287.5
2020-12-10,400.0,-210.0,190.0,172794.0,-3097.5
2020-12-11,-367.5,-121.0,-488.5,172305.5,-3586.0
2020-12-13,500.0,507.0,1007.0,173312.5,-2579.0
2020-12-14,630.0,-1005.0,-375.0,172937.5,-2954.0
2020-12-15,1155.0,906.0,2061.0,174998.5,-893.0
2020-12-16,877.5,177.0,1054.5,176053.0,0.0
2020-12-17,672.5,-105.0,567.5,176620.5,0.0
2020-12-18,202.5,495.0,697.5,177318.0,0.0
2020-12-20,9.0,-456.0,-447.0,176871.0,-447.0
2020-12-21,-573.0,-399.0,-972.0,175899.0,-1419.0
2020-12-22,228.0,-342.0,-114.0,175785.0,-1533.0
2020-12-23,-786.0,648.0,-138.0,175647.0,-1671.0
2020-12-24,591.0,6.0,597.0,176244.0,-1074.0
2020-12-27,363.0,423.0,786.0,177030.0,-288.0
2020-12-28,1410.0,645.0,2055.0,179085.0,0.0
2020-12-29,-87.0,-426.0,-513.0,178572.0,-513.0
2020-12-30,48.0,-6.0,42.0,178614.0,-471.0
2020-12-31,429.0,543.0,972.0,179586.0,0.0
2021-01-03,-574.0,39.0,-535.0,179051.0,-535.0
2021-01-04,-5292.0,-2762.5,-8054.5,170996.5,-8589.5
2021-01-05,3360.0,981.5,4341.5,175338.0,-4248.0
2021-01-06,-3416.0,4023.5,607.5,175945.5,-3640.5
2021-01-07,7434.0,1573.0,9007.0,184952.5,0.0
2021-01-08,5215.0,-403.0,4812.0,189764.5,0.0
2021-01-10,-1176.0,-1449.5,-2625.5,187139.0,-2625.5
2021-01-11,-4494.0,598.0,-3896.0,183243.0,-6521.5
2021-01-12,-707.0,968.5,261.5,183504.5,-6260.0
2021-01-13,2051.0,299.0,2350.0,185854.5,-3910.0
2021-01-14,-1484.0,-1924.0,-3408.0,182446.5,-7318.0
2021-01-15,-4291.0,-1072.5,-5363.5,177083.0,-12681.5
2021-01-17,-497.0,364.0,-133.0,176950.0,-12814.5
2021-01-18,2394.0,1332.5,3726.5,180676.5,-9088.0
2021-01-19,6111.0,-500.5,5610.5,186287.0,-3477.5
2021-01-20,7413.0,2190.5,9603.5,195890.5,0.0
2021-01-21,1939.0,-1020.5,918.5,196809.0,0.0
2021-01-22,-896.0,-565.5,-1461.5,195347.5,-1461.5
2021-01-24,1295.0,578.5,1873.5,197221.0,0.0
2021-01-25,1792.0,-1911.0,-119.0,197102.0,-119.0
2021-01-26,2723.0,429.0,3152.0,200254.0,0.0
2021-01-27,-16275.0,-3978.0,-20253.0,180001.0,-20253.0
2021-01-28,4445.0,507.0,4952.0,184953.0,-15301.0
2021-01-29,7.0,-13.0,-6.0,184947.0,-15307.0
2021-01-31,0.0,0.0,0.0,184947.0,-15307.0
2021-02-01,0.0,0.0,0.0,184947.0,-15307.0
2021-02-02,0.0,0.0,0.0,184947.0,-15307.0
2021-02-03,0.0,0.0,0.0,184947.0,-15307.0
2021-02-04,0.0,0.0,0.0,184947.0,-15307.0
2021-02-05,710.5,0.0,710.5,185657.5,-14596.5
2021-02-07,490.0,183.0,673.0,186330.5,-13923.5
2021-02-08,598.5,216.0,814.5,187145.0,-13109.0
2021-02-09,84.0,312.0,396.0,187541.0,-12713.0
2021-02-10,-472.5,21.0,-451.5,187089.5,-13164.5
2021-02-11,1081.5,-171.0,910.5,188000.0,-12254.0
2021-02-12,1270.5,300.0,1570.5,189570.5,-10683.5
2021-02-14,56.0,372.0,428.0,189998.5,-10255.5
2021-02-15,451.5,336.0,787.5,190786.0,-9468.0
2021-02-16,-1771.0,-588.0,-2359.0,188427.0,-11827.0
2021-02-17,-399.0,219.0,-180.0,188247.0,-12007.0
2021-02-18,-1225.0,-540.0,-1765.0,186482.0,-13772.0
2021-02-19,-784.0,154.0,-630.0,185852.0,-14402.0
2021-02-21,480.0,-105.0,375.0,186227.0,-14027.0
2021-02-22,0.0,940.0,940.0,187167.0,-13087.0
2021-02-23,0.0,-830.0,-830.0,186337.0,-13917.0
2021-02-24,0.0,2910.0,2910.0,189247.0,-11007.0
2021-02-25,0.0,-3780.0,-3780.0,185467.0,-14787.0
2021-02-26,0.0,-1770.0,-1770.0,183697.0,-16557.0
2021-02-28,0.0,370.0,370.0,184067.0,-16187.0
2021-03-01,0.0,0.0,0.0,184067.0,-16187.0
2021-03-02,0.0,156.0,156.0,184223.0,-16031.0
2021-03-03,0.0,-1038.0,-1038.0,183185.0,-17069.0
2021-03-04,0.0,9.0,9.0,183194.0,-17060.0
2021-03-05,0.0,0.0,0.0,183194.0,-17060.0
2021-03-07,0.0,-264.0,-264.0,182930.0,-17324.0
2021-03-08,0.0,1524.0,1524.0,184454.0,-15800.0
2021-03-09,0.0,-543.0,-543.0,183911.0,-16343.0
2021-03-10,0.0,1833.0,1833.0,185744.0,-14510.0
2021-03-11,0.0,528.0,528.0,186272.0,-13982.0
2021-03-12,0.0,303.0,303.0,186575.0,-13679.0
2021-03-14,0.0,153.0,153.0,186728.0,-13526.0
2021-03-15,0.0,219.0,219.0,186947.0,-13307.0
2021-03-16,0.0,-348.0,-348.0,186599.0,-13655.0
2021-03-17,0.0,849.0,849.0,187448.0,-12806.0
2021-03-18,0.0,-513.0,-513.0,186935.0,-13319.0
2021-03-19,0.0,-1102.0,-1102.0,185833.0,-14421.0
2021-03-21,0.0,-415.0,-415.0,185418.0,-14836.0
2021-03-22,0.0,790.0,790.0,186208.0,-14046.0
2021-03-23,0.0,-1395.0,-1395.0,184813.0,-15441.0
2021-03-24,0.0,535.0,535.0,185348.0,-14906.0
2021-03-25,0.0,885.0,885.0,186233.0,-14021.0
2021-03-26,0.0,1850.0,1850.0,188083.0,-12171.0
2021-03-28,0.0,-505.0,-505.0,187578.0,-12676.0
2021-03-29,0.0,1175.0,1175.0,188753.0,-11501.0
2021-03-30,0.0,-725.0,-725.0,188028.0,-12226.0
2021-03-31,0.0,-435.0,-435.0,187593.0,-12661.0
2021-04-01,0.0,855.0,855.0,188448.0,-11806.0
2021-04-02,0.0,940.0,940.0,189388.0,-10866.0
2021-04-04,0.0,260.0,260.0,189648.0,-10606.0
2021-04-05,0.0,474.5,474.5,190122.5,-10131.5
2021-04-06,-301.0,117.0,-184.0,189938.5,-10315.5
2021-04-07,-7.0,221.0,214.0,190152.5,-10101.5
2021-04-08,2289.0,117.0,2406.0,192558.5,-7695.5
2021-04-09,94.5,1553.5,1648.0,194206.5,-6047.5
2021-04-11,-420.0,-338.0,-758.0,193448.5,-6805.5
2021-04-12,539.0,422.5,961.5,194410.0,-5844.0
2021-04-13,2093.0,-780.0,1313.0,195723.0,-4531.0
2021-04-14,-2173.5,981.5,-1192.0,194531.0,-5723.0
2021-04-15,2782.5,1358.5,4141.0,198672.0,-1582.0
2021-04-16,127.0,1046.5,1173.5,199845.5,-408.5
2021-04-18,-750.0,-448.5,-1198.5,198647.0,-1607.0
2021-04-19,-1770.0,390.0,-1380.0,197267.0,-2987.0
2021-04-20,-4110.0,-2444.0,-6554.0,190713.0,-9541.0
2021-04-21,3294.0,2015.0,5309.0,196022.0,-4232.0
2021-04-22,-2970.0,-1482.0,-4452.0,191570.0,-8684.0
2021-04-23,3504.0,1040.0,4544.0,196114.0,-4140.0
2021-04-25,114.0,448.5,562.5,196676.5,-3577.5
2021-04-26,2814.0,-500.5,2313.5,198990.0,-1264.0
2021-04-27,-1548.0,-416.0,-1964.0,197026.0,-3228.0
2021-04-28,216.0,-201.5,14.5,197040.5,-3213.5
2021-04-29,-1350.0,572.0,-778.0,196262.5,-3991.5
2021-04-30,-1166.0,-643.5,-1809.5,194453.0,-5801.0
2021-05-02,399.0,630.5,1029.5,195482.5,-4771.5
2021-05-03,-3101.0,416.0,-2685.0,192797.5,-7456.5
2021-05-04,-6846.0,962.0,-5884.0,186913.5,-13340.5
2021-05-05,0.0,52.0,52.0,186965.5,-13288.5
2021-05-06,0.0,2216.5,2216.5,189182.0,-11072.0
2021-05-07,0.0,1566.5,1566.5,190748.5,-9505.5
2021-05-09,287.0,494.0,781.0,191529.5,-8724.5
2021-05-10,3.5,-1254.5,-1251.0,190278.5,-9975.5
2021-05-11,0.0,-4160.0,-4160.0,186118.5,-14135.5
2021-05-12,0.0,-6.5,-6.5,186112.0,-14142.0
2021-05-13,0.0,0.0,0.0,186112.0,-14142.0
2021-05-14,0.0,0.0,0.0,186112.0,-14142.0
2021-05-16,0.0,0.0,0.0,186112.0,-14142.0
2021-05-17,0.0,0.0,0.0,186112.0,-14142.0
2021-05-18,0.0,0.0,0.0,186112.0,-14142.0
2021-05-19,0.0,0.0,0.0,186112.0,-14142.0
2021-05-20,0.0,0.0,0.0,186112.0,-14142.0
2021-05-21,0.0,0.0,0.0,186112.0,-14142.0
2021-05-23,0.0,0.0,0.0,186112.0,-14142.0
2021-05-24,0.0,0.0,0.0,186112.0,-14142.0
2021-05-25,0.0,0.0,0.0,186112.0,-14142.0
2021-05-26,0.0,0.0,0.0,186112.0,-14142.0
2021-05-27,0.0,0.0,0.0,186112.0,-14142.0
2021-05-28,0.0,0.0,0.0,186112.0,-14142.0
2021-05-30,0.0,0.0,0.0,186112.0,-14142.0
2021-05-31,0.0,0.0,0.0,186112.0,-14142.0
2021-06-01,0.0,0.0,0.0,186112.0,-14142.0
2021-06-02,0.0,0.0,0.0,186112.0,-14142.0
2021-06-03,0.0,0.0,0.0,186112.0,-14142.0
2021-06-04,0.0,0.0,0.0,186112.0,-14142.0
2021-06-06,-63.0,0.0,-63.0,186049.0,-14205.0
2021-06-07,-3.5,0.0,-3.5,186045.5,-14208.5
2021-06-08,-77.0,0.0,-77.0,185968.5,-14285.5
2021-06-09,-28.0,0.0,-28.0,185940.5,-14313.5
2021-06-10,2138.5,0.0,2138.5,188079.0,-12175.0
2021-06-11,238.0,0.0,238.0,188317.0,-11937.0
2021-06-13,346.5,0.0,346.5,188663.5,-11590.5
2021-06-14,1354.5,0.0,1354.5,190018.0,-10236.0
2021-06-15,-1050.0,0.0,-1050.0,188968.0,-11286.0
2021-06-16,-2026.5,0.0,-2026.5,186941.5,-13312.5
2021-06-17,4046.0,0.0,4046.0,190987.5,-9266.5
2021-06-18,-2651.0,0.0,-2651.0,188336.5,-11917.5
2021-06-20,486.0,0.0,486.0,188822.5,-11431.5
2021-06-21,2322.0,0.0,2322.0,191144.5,-9109.5
2021-06-22,3300.0,0.0,3300.0,194444.5,-5809.5
2021-06-23,330.0,0.0,330.0,194774.5,-5479.5
2021-06-24,1446.0,0.0,1446.0,196220.5,-4033.5
2021-06-25,-366.0,432.0,66.0,196286.5,-3967.5
2021-06-27,564.0,-78.0,486.0,196772.5,-3481.5
2021-06-28,3288.0,-660.0,2628.0,199400.5,-853.5
2021-06-29,2304.0,-3.0,2301.0,201701.5,0.0
2021-06-30,-654.0,0.0,-654.0,201047.5,-654.0
2021-07-01,-660.0,267.0,-393.0,200654.5,-1047.0
2021-07-02,3960.0,285.0,4245.0,204899.5,0.0
2021-07-04,392.0,-72.0,320.0,205219.5,0.0
2021-07-05,-7.0,318.0,311.0,205530.5,0.0
2021-07-06,1414.0,-861.0,553.0,206083.5,0.0
2021-07-07,1274.0,123.0,1397.0,207480.5,0.0
2021-07-08,-3311.0,-804.0,-4115.0,203365.5,-4115.0
2021-07-09,3430.0,9.0,3439.0,206804.5,-676.0
2021-07-11,420.0,-195.0,225.0,207029.5,-451.0
2021-07-12,1407.0,534.0,1941.0,208970.5,0.0
2021-07-13,-973.0,-384.0,-1357.0,207613.5,-1357.0
2021-07-14,1659.0,54.0,1713.0,209326.5,0.0
2021-07-15,-4123.0,324.0,-3799.0,205527.5,-3799.0
2021-07-16,-2415.0,-939.0,-3354.0,202173.5,-7153.0
2021-07-18,-770.0,-432.0,-1202.0,200971.5,-8355.0
2021-07-19,-1491.0,-1539.0,-3030.0,197941.5,-11385.0
2021-07-20,4298.0,-12.0,4286.0,202227.5,-7099.0
2021-07-21,2590.0,957.0,3547.0,205774.5,-3552.0
2021-07-22,3787.0,126.0,3913.0,209687.5,0.0
2021-07-23,3409.0,471.0,3880.0,213567.5,0.0
2021-07-25,798.0,-360.0,438.0,214005.5,0.0
2021-07-26,-266.0,549.0,283.0,214288.5,0.0
2021-07-27,-5355.0,-312.0,-5667.0,208621.5,-5667.0
2021-07-28,1904.0,-159.0,1745.0,210366.5,-3922.0
2021-07-29,-3311.0,141.0,-3170.0,207196.5,-7092.0
2021-07-30,2709.0,116.0,2825.0,210021.5,-4267.0
2021-08-01,966.0,560.0,1526.0,211547.5,-2741.0
2021-08-02,-1134.0,-930.0,-2064.0,209483.5,-4805.0
2021-08-03,1953.0,840.0,2793.0,212276.5,-2012.0
2021-08-04,1477.0,-1085.0,392.0,212668.5,-1620.0
2021-08-05,2149.0,835.0,2984.0,215652.5,0.0
2021-08-06,-1897.0,895.0,-1002.0,214650.5,-1002.0
2021-08-08,-1981.0,-235.0,-2216.0,212434.5,-3218.0
2021-08-09,2709.0,-545.0,2164.0,214598.5,-1054.0
2021-08-10,-2331.0,1000.0,-1331.0,213267.5,-2385.0
2021-08-11,-1113.0,1260.0,147.0,213414.5,-2238.0
2021-08-12,2016.0,70.0,2086.0,215500.5,-152.0
2021-08-13,1568.0,0.5,1568.5,217069.0,0.0
2021-08-15,-273.0,-747.5,-1020.5,216048.5,-1020.5
2021-08-16,462.0,949.0,1411.0,217459.5,0.0
2021-08-17,-4858.0,-1111.5,-5969.5,211490.0,-5969.5
2021-08-18,-3122.0,-2541.5,-5663.5,205826.5,-11633.0
2021-08-19,1995.0,-598.0,1397.0,207223.5,-10236.0
2021-08-20,4991.0,1807.0,6798.0,214021.5,-3438.0
2021-08-22,343.0,864.5,1207.5,215229.0,-2230.5
2021-08-23,6223.0,1007.5,7230.5,222459.5,0.0
2021-08-24,791.0,-507.0,284.0,222743.5,0.0
2021-08-25,112.0,364.0,476.0,223219.5,0.0
2021-08-26,-2338.0,-773.5,-3111.5,220108.0,-3111.5
2021-08-27,4193.0,1332.5,5525.5,225633.5,0.0
2021-08-29,686.0,110.5,796.5,226430.0,0.0
2021-08-30,4081.0,-201.5,3879.5,230309.5,0.0
2021-08-31,-35.0,208.0,173.0,230482.5,0.0
2021-09-01,602.0,-1196.0,-594.0,229888.5,-594.0
2021-09-02,-602.0,1514.5,912.5,230801.0,0.0
2021-09-03,1582.0,-903.5,678.5,231479.5,0.0
2021-09-05,-91.0,58.5,-32.5,231447.0,-32.5
2021-09-06,1092.0,344.5,1436.5,232883.5,0.0
2021-09-07,-763.0,-2086.5,-2849.5,230034.0,-2849.5
2021-09-08,-1736.0,-1085.5,-2821.5,227212.5,-5671.0
2021-09-09,-1008.0,286.0,-722.0,226490.5,-6393.0
2021-09-10,-3535.0,-767.0,-4302.0,222188.5,-10695.0
2021-09-12,1309.0,0.0,1309.0,223497.5,-9386.0
2021-09-13,-1099.0,0.0,-1099.0,222398.5,-10485.0
2021-09-14,-1071.0,0.0,-1071.0,221327.5,-11556.0
2021-09-15,2653.0,0.0,2653.0,223980.5,-8903.0
2021-09-16,-567.0,0.0,-567.0,223413.5,-9470.0
2021-09-17,0.0,0.0,0.0,223413.5,-9470.0
2021-09-19,0.0,0.0,0.0,223413.5,-9470.0
2021-09-20,0.0,0.0,0.0,223413.5,-9470.0
2021-09-21,0.0,0.0,0.0,223413.5,-9470.0
2021-09-22,0.0,0.0,0.0,223413.5,-9470.0
2021-09-23,0.0,0.0,0.0,223413.5,-9470.0
2021-09-24,0.0,0.0,0.0,223413.5,-9470.0
2021-09-26,0.0,0.0,0.0,223413.5,-9470.0
2021-09-27,0.0,0.0,0.0,223413.5,-9470.0
2021-09-28,0.0,0.0,0.0,223413.5,-9470.0
2021-09-29,0.0,0.0,0.0,223413.5,-9470.0
2021-09-30,0.0,0.0,0.0,223413.5,-9470.0
2021-10-01,0.0,0.0,0.0,223413.5,-9470.0
2021-10-03,0.0,0.0,0.0,223413.5,-9470.0
2021-10-04,0.0,0.0,0.0,223413.5,-9470.0
2021-10-05,0.0,0.0,0.0,223413.5,-9470.0
2021-10-06,0.0,0.0,0.0,223413.5,-9470.0
2021-10-07,0.0,0.0,0.0,223413.5,-9470.0
2021-10-08,0.0,0.0,0.0,223413.5,-9470.0
2021-10-10,0.0,0.0,0.0,223413.5,-9470.0
2021-10-11,0.0,0.0,0.0,223413.5,-9470.0
2021-10-12,0.0,0.0,0.0,223413.5,-9470.0
2021-10-13,0.0,0.0,0.0,223413.5,-9470.0
2021-10-14,0.0,0.0,0.0,223413.5,-9470.0
2021-10-15,0.0,900.0,900.0,224313.5,-8570.0
2021-10-17,0.0,-12.0,-12.0,224301.5,-8582.0
2021-10-18,0.0,-201.0,-201.0,224100.5,-8783.0
2021-10-19,1638.0,651.0,2289.0,226389.5,-6494.0
2021-10-20,-1036.0,294.0,-742.0,225647.5,-7236.0
2021-10-21,791.0,249.0,1040.0,226687.5,-6196.0
2021-10-22,-948.5,-75.0,-1023.5,225664.0,-7219.5
2021-10-24,-248.5,207.0,-41.5,225622.5,-7261.0
2021-10-25,3258.5,315.0,3573.5,229196.0,-3687.5
2021-10-26,294.0,-84.0,210.0,229406.0,-3477.5
2021-10-27,927.5,-594.0,333.5,229739.5,-3144.0
2021-10-28,644.0,435.0,1079.0,230818.5,-2065.0
2021-10-29,3432.0,574.0,4006.0,234824.5,0.0
2021-10-31,276.0,210.0,486.0,235310.5,0.0
2021-11-01,-102.0,-315.0,-417.0,234893.5,-417.0
2021-11-02,1596.0,865.0,2461.0,237354.5,0.0
2021-11-03,5838.0,580.0,6418.0,243772.5,0.0
2021-11-04,3702.0,-115.0,3587.0,247359.5,0.0
2021-11-05,72.0,910.0,982.0,248341.5,0.0
2021-11-07,-744.0,60.0,-684.0,247657.5,-684.0
2021-11-08,-36.0,190.0,154.0,247811.5,-530.0
2021-11-09,-3000.0,-665.0,-3665.0,244146.5,-4195.0
2021-11-10,-4686.0,-650.0,-5336.0,238810.5,-9531.0
2021-11-11,1776.0,-375.0,1401.0,240211.5,-8130.0
2021-11-12,3376.0,760.5,4136.5,244348.0,-3993.5
2021-11-14,686.0,-117.0,569.0,244917.0,-3424.5
2021-11-15,-1022.0,0.0,-1022.0,243895.0,-4446.5
2021-11-16,3234.0,370.5,3604.5,247499.5,-842.0
2021-11-17,679.0,-1280.5,-601.5,246898.0,-1443.5
2021-11-18,4662.0,403.0,5065.0,251963.0,0.0
2021-11-19,2583.0,-2242.5,340.5,252303.5,0.0
2021-11-21,14.0,487.5,501.5,252805.0,0.0
2021-11-22,-5376.0,-357.5,-5733.5,247071.5,-5733.5
2021-11-23,-3087.0,539.5,-2547.5,244524.0,-8281.0
2021-11-24,1995.0,1170.0,3165.0,247689.0,-5116.0
2021-11-25,371.0,6.5,377.5,248066.5,-4738.5
2021-11-26,-21.0,0.0,-21.0,248045.5,-4759.5
2021-11-28,0.0,0.0,0.0,248045.5,-4759.5
2021-11-29,0.0,0.0,0.0,248045.5,-4759.5
2021-11-30,0.0,0.0,0.0,248045.5,-4759.5
2021-12-01,0.0,0.0,0.0,248045.5,-4759.5
2021-12-02,0.0,0.0,0.0,248045.5,-4759.5
2021-12-03,0.0,0.0,0.0,248045.5,-4759.5
2021-12-05,0.0,0.0,0.0,248045.5,-4759.5
2021-12-06,0.0,0.0,0.0,248045.5,-4759.5
2021-12-07,0.0,0.0,0.0,248045.5,-4759.5
2021-12-08,0.0,-369.0,-369.0,247676.5,-5128.5
2021-12-09,0.0,-3.0,-3.0,247673.5,-5131.5
2021-12-10,0.0,0.0,0.0,247673.5,-5131.5
2021-12-12,0.0,357.0,357.0,248030.5,-4774.5
2021-12-13,0.0,-1248.0,-1248.0,246782.5,-6022.5
2021-12-14,0.0,-6.0,-6.0,246776.5,-6028.5
2021-12-15,0.0,0.0,0.0,246776.5,-6028.5
2021-12-16,0.0,-303.0,-303.0,246473.5,-6331.5
2021-12-17,0.0,3.0,3.0,246476.5,-6328.5
2021-12-19,0.0,0.0,0.0,246476.5,-6328.5
2021-12-20,0.0,0.0,0.0,246476.5,-6328.5
2021-12-21,0.0,0.0,0.0,246476.5,-6328.5
2021-12-22,0.0,0.0,0.0,246476.5,-6328.5
2021-12-23,0.0,0.0,0.0,246476.5,-6328.5
2021-12-26,0.0,-36.0,-36.0,246440.5,-6364.5
2021-12-27,0.0,939.0,939.0,247379.5,-5425.5
2021-12-28,-220.5,453.0,232.5,247612.0,-5193.0
2021-12-29,-7.0,210.0,203.0,247815.0,-4990.0
2021-12-30,0.0,-432.0,-432.0,247383.0,-5422.0
2021-12-31,0.0,102.0,102.0,247485.0,-5320.0
2022-01-02,0.0,360.0,360.0,247845.0,-4960.0
2022-01-03,0.0,632.0,632.0,248477.0,-4328.0
2022-01-04,0.0,384.0,384.0,248861.0,-3944.0
2022-01-05,0.0,-1692.0,-1692.0,247169.0,-5636.0
2022-01-06,0.0,84.0,84.0,247253.0,-5552.0
2022-01-07,0.0,-420.0,-420.0,246833.0,-5972.0
2022-01-09,0.0,-91.0,-91.0,246742.0,-6063.0
2022-01-10,0.0,-1106.0,-1106.0,245636.0,-7169.0
2022-01-11,0.0,1519.0,1519.0,247155.0,-5650.0
2022-01-12,0.0,-308.0,-308.0,246847.0,-5958.0
2022-01-13,0.0,-756.0,-756.0,246091.0,-6714.0
2022-01-14,0.0,-1281.0,-1281.0,244810.0,-7995.0
2022-01-16,0.0,-651.0,-651.0,244159.0,-8646.0
2022-01-17,0.0,-7.0,-7.0,244152.0,-8653.0
2022-01-18,0.0,0.0,0.0,244152.0,-8653.0
2022-01-19,0.0,0.0,0.0,244152.0,-8653.0
2022-01-20,0.0,0.0,0.0,244152.0,-8653.0
2022-01-21,0.0,0.0,0.0,244152.0,-8653.0
2022-01-23,0.0,0.0,0.0,244152.0,-8653.0
2022-01-24,0.0,0.0,0.0,244152.0,-8653.0
2022-01-25,0.0,0.0,0.0,244152.0,-8653.0
2022-01-26,0.0,0.0,0.0,244152.0,-8653.0
2022-01-27,0.0,0.0,0.0,244152.0,-8653.0
2022-01-28,0.0,0.0,0.0,244152.0,-8653.0
2022-01-30,0.0,0.0,0.0,244152.0,-8653.0
2022-01-31,0.0,0.0,0.0,244152.0,-8653.0
2022-02-01,0.0,0.0,0.0,244152.0,-8653.0
2022-02-02,0.0,0.0,0.0,244152.0,-8653.0
2022-02-03,0.0,-1244.0,-1244.0,242908.0,-9897.0
2022-02-04,0.0,-4.0,-4.0,242904.0,-9901.0
2022-02-06,0.0,0.0,0.0,242904.0,-9901.0
2022-02-07,0.0,0.0,0.0,242904.0,-9901.0
2022-02-08,0.0,0.0,0.0,242904.0,-9901.0
2022-02-09,0.0,652.0,652.0,243556.0,-9249.0
2022-02-10,0.0,-2892.0,-2892.0,240664.0,-12141.0
2022-02-11,0.0,4.0,4.0,240668.0,-12137.0
2022-02-13,0.0,0.0,0.0,240668.0,-12137.0
2022-02-14,0.0,0.0,0.0,240668.0,-12137.0
2022-02-15,0.0,0.0,0.0,240668.0,-12137.0
2022-02-16,0.0,0.0,0.0,240668.0,-12137.0
2022-02-17,0.0,0.0,0.0,240668.0,-12137.0
2022-02-18,0.0,0.0,0.0,240668.0,-12137.0
2022-02-20,0.0,0.0,0.0,240668.0,-12137.0
2022-02-21,0.0,0.0,0.0,240668.0,-12137.0
2022-02-22,0.0,0.0,0.0,240668.0,-12137.0
2022-02-23,0.0,0.0,0.0,240668.0,-12137.0
2022-02-24,0.0,0.0,0.0,240668.0,-12137.0
2022-02-25,0.0,0.0,0.0,240668.0,-12137.0
2022-02-27,0.0,0.0,0.0,240668.0,-12137.0
2022-02-28,0.0,0.0,0.0,240668.0,-12137.0
2022-03-01,0.0,0.0,0.0,240668.0,-12137.0
2022-03-02,0.0,0.0,0.0,240668.0,-12137.0
2022-03-03,0.0,0.0,0.0,240668.0,-12137.0
2022-03-04,0.0,0.0,0.0,240668.0,-12137.0
2022-03-06,0.0,0.0,0.0,240668.0,-12137.0
2022-03-07,0.0,0.0,0.0,240668.0,-12137.0
2022-03-08,0.0,0.0,0.0,240668.0,-12137.0
2022-03-09,0.0,0.0,0.0,240668.0,-12137.0
2022-03-10,0.0,0.0,0.0,240668.0,-12137.0
2022-03-11,0.0,0.0,0.0,240668.0,-12137.0
2022-03-13,0.0,0.0,0.0,240668.0,-12137.0
2022-03-14,0.0,0.0,0.0,240668.0,-12137.0
2022-03-15,0.0,0.0,0.0,240668.0,-12137.0
2022-03-16,0.0,0.0,0.0,240668.0,-12137.0
2022-03-17,0.0,0.0,0.0,240668.0,-12137.0
2022-03-18,0.0,0.0,0.0,240668.0,-12137.0
2022-03-20,0.0,0.0,0.0,240668.0,-12137.0
2022-03-21,0.0,0.0,0.0,240668.0,-12137.0
2022-03-22,0.0,0.0,0.0,240668.0,-12137.0
2022-03-23,-4608.0,0.0,-4608.0,236060.0,-16745.0
2022-03-24,12.0,0.0,12.0,236072.0,-16733.0
2022-03-25,54.0,0.0,54.0,236126.0,-16679.0
2022-03-27,-756.0,0.0,-756.0,235370.0,-17435.0
2022-03-28,6048.0,0.0,6048.0,241418.0,-11387.0
2022-03-29,5964.0,1052.0,7016.0,248434.0,-4371.0
2022-03-30,-2826.0,36.0,-2790.0,245644.0,-7161.0
2022-03-31,-4590.0,-1664.0,-6254.0,239390.0,-13415.0
2022-04-01,-1422.0,-8.0,-1430.0,237960.0,-14845.0
2022-04-03,-828.0,0.0,-828.0,237132.0,-15673.0
2022-04-04,7998.0,0.0,7998.0,245130.0,-7675.0
2022-04-05,-7614.0,0.0,-7614.0,237516.0,-15289.0
2022-04-06,-9270.0,0.0,-9270.0,228246.0,-24559.0
2022-04-07,-6.0,0.0,-6.0,228240.0,-24565.0
2022-04-08,0.0,0.0,0.0,228240.0,-24565.0
2022-04-10,0.0,0.0,0.0,228240.0,-24565.0
2022-04-11,0.0,0.0,0.0,228240.0,-24565.0
2022-04-12,0.0,0.0,0.0,228240.0,-24565.0
2022-04-13,0.0,0.0,0.0,228240.0,-24565.0
2022-04-14,0.0,0.0,0.0,228240.0,-24565.0
2022-04-17,0.0,0.0,0.0,228240.0,-24565.0
2022-04-18,0.0,0.0,0.0,228240.0,-24565.0
2022-04-19,0.0,0.0,0.0,228240.0,-24565.0
2022-04-20,0.0,0.0,0.0,228240.0,-24565.0
2022-04-21,0.0,-2312.0,-2312.0,225928.0,-26877.0
2022-04-22,0.0,4.0,4.0,225932.0,-26873.0
2022-04-24,0.0,0.0,0.0,225932.0,-26873.0
2022-04-25,0.0,0.0,0.0,225932.0,-26873.0
2022-04-26,0.0,0.0,0.0,225932.0,-26873.0
2022-04-27,0.0,0.0,0.0,225932.0,-26873.0
2022-04-28,0.0,0.0,0.0,225932.0,-26873.0
2022-04-29,0.0,0.0,0.0,225932.0,-26873.0
2022-05-01,0.0,0.0,0.0,225932.0,-26873.0
2022-05-02,0.0,0.0,0.0,225932.0,-26873.0
2022-05-03,0.0,0.0,0.0,225932.0,-26873.0
2022-05-04,0.0,0.0,0.0,225932.0,-26873.0
2022-05-05,0.0,0.0,0.0,225932.0,-26873.0
2022-05-06,0.0,0.0,0.0,225932.0,-26873.0
2022-05-08,0.0,0.0,0.0,225932.0,-26873.0
2022-05-09,0.0,0.0,0.0,225932.0,-26873.0
2022-05-10,0.0,0.0,0.0,225932.0,-26873.0
2022-05-11,0.0,0.0,0.0,225932.0,-26873.0
2022-05-12,0.0,0.0,0.0,225932.0,-26873.0
2022-05-13,0.0,0.0,0.0,225932.0,-26873.0
2022-05-15,0.0,0.0,0.0,225932.0,-26873.0
2022-05-16,0.0,0.0,0.0,225932.0,-26873.0
2022-05-17,0.0,0.0,0.0,225932.0,-26873.0
2022-05-18,0.0,0.0,0.0,225932.0,-26873.0
2022-05-19,0.0,0.0,0.0,225932.0,-26873.0
2022-05-20,0.0,0.0,0.0,225932.0,-26873.0
2022-05-22,0.0,0.0,0.0,225932.0,-26873.0
2022-05-23,0.0,0.0,0.0,225932.0,-26873.0
2022-05-24,0.0,0.0,0.0,225932.0,-26873.0
2022-05-25,0.0,0.0,0.0,225932.0,-26873.0
2022-05-26,0.0,0.0,0.0,225932.0,-26873.0
2022-05-27,0.0,0.0,0.0,225932.0,-26873.0
2022-05-29,0.0,24.0,24.0,225956.0,-26849.0
2022-05-30,0.0,-144.0,-144.0,225812.0,-26993.0
2022-05-31,0.0,4.0,4.0,225816.0,-26989.0
2022-06-01,0.0,0.0,0.0,225816.0,-26989.0
2022-06-02,0.0,0.0,0.0,225816.0,-26989.0
2022-06-03,-8916.0,-1320.0,-10236.0,215580.0,-37225.0
2022-06-05,-48.0,160.0,112.0,215692.0,-37113.0
2022-06-06,0.0,0.0,0.0,215692.0,-37113.0
2022-06-07,0.0,0.0,0.0,215692.0,-37113.0
2022-06-08,0.0,0.0,0.0,215692.0,-37113.0
2022-06-09,0.0,0.0,0.0,215692.0,-37113.0
2022-06-10,0.0,0.0,0.0,215692.0,-37113.0
2022-06-12,0.0,0.0,0.0,215692.0,-37113.0
2022-06-13,0.0,0.0,0.0,215692.0,-37113.0
2022-06-14,0.0,0.0,0.0,215692.0,-37113.0
2022-06-15,0.0,0.0,0.0,215692.0,-37113.0
2022-06-16,0.0,0.0,0.0,215692.0,-37113.0
2022-06-17,0.0,0.0,0.0,215692.0,-37113.0
2022-06-19,0.0,0.0,0.0,215692.0,-37113.0
2022-06-20,0.0,0.0,0.0,215692.0,-37113.0
2022-06-21,0.0,0.0,0.0,215692.0,-37113.0
2022-06-22,0.0,0.0,0.0,215692.0,-37113.0
2022-06-23,0.0,0.0,0.0,215692.0,-37113.0
2022-06-24,0.0,0.0,0.0,215692.0,-37113.0
2022-06-26,0.0,0.0,0.0,215692.0,-37113.0
2022-06-27,0.0,0.0,0.0,215692.0,-37113.0
2022-06-28,0.0,0.0,0.0,215692.0,-37113.0
2022-06-29,0.0,0.0,0.0,215692.0,-37113.0
2022-06-30,0.0,0.0,0.0,215692.0,-37113.0
2022-07-01,0.0,0.0,0.0,215692.0,-37113.0
2022-07-03,0.0,0.0,0.0,215692.0,-37113.0
2022-07-04,0.0,0.0,0.0,215692.0,-37113.0
2022-07-05,0.0,0.0,0.0,215692.0,-37113.0
2022-07-06,0.0,0.0,0.0,215692.0,-37113.0
2022-07-07,0.0,0.0,0.0,215692.0,-37113.0
2022-07-08,0.0,0.0,0.0,215692.0,-37113.0
2022-07-10,0.0,0.0,0.0,215692.0,-37113.0
2022-07-11,0.0,0.0,0.0,215692.0,-37113.0
2022-07-12,0.0,0.0,0.0,215692.0,-37113.0
2022-07-13,0.0,0.0,0.0,215692.0,-37113.0
2022-07-14,0.0,0.0,0.0,215692.0,-37113.0
2022-07-15,0.0,0.0,0.0,215692.0,-37113.0
2022-07-17,0.0,0.0,0.0,215692.0,-37113.0
2022-07-18,0.0,0.0,0.0,215692.0,-37113.0
2022-07-19,0.0,0.0,0.0,215692.0,-37113.0
2022-07-20,0.0,-552.0,-552.0,215140.0,-37665.0
2022-07-21,2694.0,-8.0,2686.0,217826.0,-34979.0
2022-07-22,-2898.0,-444.0,-3342.0,214484.0,-38321.0
2022-07-24,312.0,64.0,376.0,214860.0,-37945.0
2022-07-25,0.0,0.0,0.0,214860.0,-37945.0
2022-07-26,0.0,0.0,0.0,214860.0,-37945.0
2022-07-27,0.0,0.0,0.0,214860.0,-37945.0
2022-07-28,7584.0,1524.0,9108.0,223968.0,-28837.0
2022-07-29,1962.0,1244.0,3206.0,227174.0,-25631.0
2022-07-31,-1326.0,-548.0,-1874.0,225300.0,-27505.0
2022-08-01,756.0,-20.0,736.0,226036.0,-26769.0
2022-08-02,-1146.0,-924.0,-2070.0,223966.0,-28839.0
2022-08-03,7950.0,1264.0,9214.0,233180.0,-19625.0
2022-08-04,2376.0,64.0,2440.0,235620.0,-17185.0
2022-08-05,-2924.5,-314.0,-3238.5,232381.5,-20423.5
2022-08-07,-1406.0,35.0,-1371.0,231010.5,-21794.5
2022-08-08,1634.0,1078.0,2712.0,233722.5,-19082.5
2022-08-09,-6384.0,-1029.0,-7413.0,226309.5,-26495.5
2022-08-10,13157.5,4431.0,17588.5,243898.0,-8907.0
2022-08-11,-2403.5,-133.0,-2536.5,241361.5,-11443.5
2022-08-12,9300.5,2632.0,11932.5,253294.0,0.0
2022-08-14,-1529.5,-476.0,-2005.5,251288.5,-2005.5
2022-08-15,5358.0,1561.0,6919.0,258207.5,0.0
2022-08-16,-1111.5,1771.0,659.5,258867.0,0.0
2022-08-17,-7467.0,-1281.0,-8748.0,250119.0,-8748.0
2022-08-18,2726.5,-35.0,2691.5,252810.5,-6056.5
2022-08-19,-10545.0,-1673.0,-12218.0,240592.5,-18274.5
2022-08-21,-2365.5,-900.0,-3265.5,237327.0,-21540.0
2022-08-22,-8806.5,-3555.0,-12361.5,224965.5,-33901.5
2022-08-23,-2289.5,7.5,-2282.0,222683.5,-36183.5
2022-08-24,1482.0,0.0,1482.0,224165.5,-34701.5
2022-08-25,7980.0,0.0,7980.0,232145.5,-26721.5
2022-08-26,19.0,0.0,19.0,232164.5,-26702.5
2022-08-28,0.0,0.0,0.0,232164.5,-26702.5
2022-08-29,0.0,0.0,0.0,232164.5,-26702.5
2022-08-30,0.0,0.0,0.0,232164.5,-26702.5
2022-08-31,0.0,0.0,0.0,232164.5,-26702.5
2022-09-01,0.0,0.0,0.0,232164.5,-26702.5
2022-09-02,0.0,0.0,0.0,232164.5,-26702.5
2022-09-04,0.0,0.0,0.0,232164.5,-26702.5
2022-09-05,0.0,0.0,0.0,232164.5,-26702.5
2022-09-06,0.0,0.0,0.0,232164.5,-26702.5
2022-09-07,0.0,0.0,0.0,232164.5,-26702.5
2022-09-08,0.0,0.0,0.0,232164.5,-26702.5
2022-09-09,0.0,0.0,0.0,232164.5,-26702.5
2022-09-11,0.0,0.0,0.0,232164.5,-26702.5
2022-09-12,0.0,0.0,0.0,232164.5,-26702.5
2022-09-13,0.0,0.0,0.0,232164.5,-26702.5
2022-09-14,0.0,0.0,0.0,232164.5,-26702.5
2022-09-15,0.0,0.0,0.0,232164.5,-26702.5
2022-09-16,0.0,0.0,0.0,232164.5,-26702.5
2022-09-18,0.0,0.0,0.0,232164.5,-26702.5
2022-09-19,0.0,0.0,0.0,232164.5,-26702.5
2022-09-20,0.0,0.0,0.0,232164.5,-26702.5
2022-09-21,0.0,0.0,0.0,232164.5,-26702.5
2022-09-22,0.0,0.0,0.0,232164.5,-26702.5
2022-09-23,0.0,0.0,0.0,232164.5,-26702.5
2022-09-25,0.0,0.0,0.0,232164.5,-26702.5
2022-09-26,0.0,0.0,0.0,232164.5,-26702.5
2022-09-27,0.0,0.0,0.0,232164.5,-26702.5
2022-09-28,0.0,0.0,0.0,232164.5,-26702.5
2022-09-29,0.0,0.0,0.0,232164.5,-26702.5
2022-09-30,0.0,0.0,0.0,232164.5,-26702.5
2022-10-02,0.0,0.0,0.0,232164.5,-26702.5
2022-10-03,0.0,0.0,0.0,232164.5,-26702.5
2022-10-04,0.0,0.0,0.0,232164.5,-26702.5
2022-10-05,0.0,0.0,0.0,232164.5,-26702.5
2022-10-06,0.0,0.0,0.0,232164.5,-26702.5
2022-10-07,0.0,0.0,0.0,232164.5,-26702.5
2022-10-09,0.0,0.0,0.0,232164.5,-26702.5
2022-10-10,0.0,0.0,0.0,232164.5,-26702.5
2022-10-11,0.0,0.0,0.0,232164.5,-26702.5
2022-10-12,0.0,0.0,0.0,232164.5,-26702.5
2022-10-13,0.0,0.0,0.0,232164.5,-26702.5
2022-10-14,0.0,0.0,0.0,232164.5,-26702.5
2022-10-16,0.0,0.0,0.0,232164.5,-26702.5
2022-10-17,0.0,0.0,0.0,232164.5,-26702.5
2022-10-18,0.0,564.0,564.0,232728.5,-26138.5
2022-10-19,0.0,-1452.0,-1452.0,231276.5,-27590.5
2022-10-20,0.0,-8.0,-8.0,231268.5,-27598.5
2022-10-21,0.0,0.0,0.0,231268.5,-27598.5
2022-10-23,0.0,-252.0,-252.0,231016.5,-27850.5
2022-10-24,0.0,1672.0,1672.0,232688.5,-26178.5
2022-10-25,0.0,1052.0,1052.0,233740.5,-25126.5
2022-10-26,0.0,992.0,992.0,234732.5,-24134.5
2022-10-27,0.0,200.0,200.0,234932.5,-23934.5
2022-10-28,0.0,3544.0,3544.0,238476.5,-20390.5
2022-10-30,0.0,-432.0,-432.0,238044.5,-20822.5
2022-10-31,0.0,8.0,8.0,238052.5,-20814.5
2022-11-01,0.0,-628.0,-628.0,237424.5,-21442.5
2022-11-02,0.0,-1956.0,-1956.0,235468.5,-23398.5
2022-11-03,0.0,-964.0,-964.0,234504.5,-24362.5
2022-11-04,0.0,1523.0,1523.0,236027.5,-22839.5
2022-11-06,0.0,70.0,70.0,236097.5,-22769.5
2022-11-07,0.0,3213.0,3213.0,239310.5,-19556.5
2022-11-08,0.0,2233.0,2233.0,241543.5,-17323.5
2022-11-09,0.0,-4095.0,-4095.0,237448.5,-21418.5
2022-11-10,0.0,8498.0,8498.0,245946.5,-12920.5
2022-11-11,0.0,-252.0,-252.0,245694.5,-13172.5
2022-11-13,366.0,-490.0,-124.0,245570.5,-13296.5
2022-11-14,-1062.0,-133.0,-1195.0,244375.5,-14491.5
2022-11-15,0.0,-875.0,-875.0,243500.5,-15366.5
2022-11-16,-2844.0,336.0,-2508.0,240992.5,-17874.5
2022-11-17,-6.0,-455.0,-461.0,240531.5,-18335.5
2022-11-18,0.0,1631.5,1631.5,242163.0,-16704.0
2022-11-20,0.0,-487.5,-487.5,241675.5,-17191.5
2022-11-21,0.0,405.0,405.0,242080.5,-16786.5
2022-11-22,0.0,2775.0,2775.0,244855.5,-14011.5
2022-11-23,0.0,1012.5,1012.5,245868.0,-12999.0
2022-11-24,702.0,-97.5,604.5,246472.5,-12394.5
2022-11-25,-3210.0,990.0,-2220.0,244252.5,-14614.5
2022-11-27,-1170.0,-1350.0,-2520.0,241732.5,-17134.5
2022-11-28,0.0,-1957.5,-1957.5,239775.0,-19092.0
2022-11-29,0.0,-307.5,-307.5,239467.5,-19399.5
2022-11-30,0.0,5325.0,5325.0,244792.5,-14074.5
2022-12-01,-792.0,-1680.0,-2472.0,242320.5,-16546.5
2022-12-02,-1446.0,75.0,-1371.0,240949.5,-17917.5
2022-12-04,522.0,315.0,837.0,241786.5,-17080.5
2022-12-05,-4374.0,-3067.5,-7441.5,234345.0,-24522.0
2022-12-06,-5784.0,-2535.0,-8319.0,226026.0,-32841.0
2022-12-07,12.0,-615.0,-603.0,225423.0,-33444.0
2022-12-08,0.0,1837.5,1837.5,227260.5,-31606.5
2022-12-09,0.0,-2737.5,-2737.5,224523.0,-34344.0
2022-12-11,0.0,1845.0,1845.0,226368.0,-32499.0
2022-12-12,0.0,4065.0,4065.0,230433.0,-28434.0
2022-12-13,3168.0,1597.5,4765.5,235198.5,-23668.5
2022-12-14,-1842.0,-1695.0,-3537.0,231661.5,-27205.5
2022-12-15,-10182.0,-6457.5,-16639.5,215022.0,-43845.0
2022-12-16,0.0,15.0,15.0,215037.0,-43830.0
2022-12-18,0.0,0.0,0.0,215037.0,-43830.0
2022-12-19,0.0,0.0,0.0,215037.0,-43830.0
2022-12-20,0.0,0.0,0.0,215037.0,-43830.0
2022-12-21,0.0,0.0,0.0,215037.0,-43830.0
2022-12-22,0.0,0.0,0.0,215037.0,-43830.0
2022-12-23,0.0,0.0,0.0,215037.0,-43830.0
2022-12-26,0.0,0.0,0.0,215037.0,-43830.0
2022-12-27,0.0,0.0,0.0,215037.0,-43830.0
2022-12-28,0.0,0.0,0.0,215037.0,-43830.0
2022-12-29,0.0,0.0,0.0,215037.0,-43830.0
2022-12-30,0.0,0.0,0.0,215037.0,-43830.0
2023-01-02,0.0,0.0,0.0,215037.0,-43830.0
2023-01-03,0.0,0.0,0.0,215037.0,-43830.0
2023-01-04,0.0,0.0,0.0,215037.0,-43830.0
2023-01-05,0.0,0.0,0.0,215037.0,-43830.0
2023-01-06,0.0,0.0,0.0,215037.0,-43830.0
2023-01-08,0.0,0.0,0.0,215037.0,-43830.0
2023-01-09,0.0,0.0,0.0,215037.0,-43830.0
2023-01-10,0.0,0.0,0.0,215037.0,-43830.0
2023-01-11,0.0,0.0,0.0,215037.0,-43830.0
2023-01-12,0.0,0.0,0.0,215037.0,-43830.0
2023-01-13,0.0,0.0,0.0,215037.0,-43830.0
2023-01-15,0.0,0.0,0.0,215037.0,-43830.0
2023-01-16,0.0,0.0,0.0,215037.0,-43830.0
2023-01-17,0.0,0.0,0.0,215037.0,-43830.0
2023-01-18,0.0,0.0,0.0,215037.0,-43830.0
2023-01-19,0.0,0.0,0.0,215037.0,-43830.0
2023-01-20,0.0,0.0,0.0,215037.0,-43830.0
2023-01-22,-351.0,0.0,-351.0,214686.0,-44181.0
2023-01-23,-4.5,0.0,-4.5,214681.5,-44185.5
2023-01-24,-1413.0,0.0,-1413.0,213268.5,-45598.5
2023-01-25,1210.5,0.0,1210.5,214479.0,-44388.0
2023-01-26,2385.0,0.0,2385.0,216864.0,-42003.0
2023-01-27,3240.0,0.0,3240.0,220104.0,-38763.0
2023-01-29,-256.5,0.0,-256.5,219847.5,-39019.5
2023-01-30,-3658.5,0.0,-3658.5,216189.0,-42678.0
2023-01-31,1818.0,0.0,1818.0,218007.0,-40860.0
2023-02-01,7956.0,0.0,7956.0,225963.0,-32904.0
2023-02-02,2128.5,0.0,2128.5,228091.5,-30775.5
2023-02-03,-729.5,0.0,-729.5,227362.0,-31505.0
2023-02-05,-824.0,0.0,-824.0,226538.0,-32329.0
2023-02-06,-1752.0,0.0,-1752.0,224786.0,-34081.0
2023-02-07,6848.0,0.0,6848.0,231634.0,-27233.0
2023-02-08,-6048.0,0.0,-6048.0,225586.0,-33281.0
2023-02-09,-4040.0,0.0,-4040.0,221546.0,-37321.0
2023-02-10,-3144.0,0.0,-3144.0,218402.0,-40465.0
2023-02-12,-952.0,0.0,-952.0,217450.0,-41417.0
2023-02-13,7424.0,0.0,7424.0,224874.0,-33993.0
2023-02-14,2208.0,0.0,2208.0,227082.0,-31785.0
2023-02-15,4440.0,0.0,4440.0,231522.0,-27345.0
2023-02-16,-10208.0,0.0,-10208.0,221314.0,-37553.0
2023-02-17,-1416.0,0.0,-1416.0,219898.0,-38969.0
2023-02-19,-760.0,0.0,-760.0,219138.0,-39729.0
2023-02-20,616.0,0.0,616.0,219754.0,-39113.0
2023-02-21,-8464.0,0.0,-8464.0,211290.0,-47577.0
2023-02-22,1704.0,0.0,1704.0,212994.0,-45873.0
2023-02-23,200.0,0.0,200.0,213194.0,-45673.0
2023-02-24,-5600.0,0.0,-5600.0,207594.0,-51273.0
2023-02-26,592.0,0.0,592.0,208186.0,-50681.0
2023-02-27,2432.0,0.0,2432.0,210618.0,-48249.0
2023-02-28,-2280.0,0.0,-2280.0,208338.0,-50529.0
2023-03-01,-1624.0,0.0,-1624.0,206714.0,-52153.0
2023-03-02,2104.0,0.0,2104.0,208818.0,-50049.0
2023-03-03,9256.0,0.0,9256.0,218074.0,-40793.0
2023-03-05,-1096.0,0.0,-1096.0,216978.0,-41889.0
2023-03-06,1224.0,0.0,1224.0,218202.0,-40665.0
2023-03-07,-4928.0,0.0,-4928.0,213274.0,-45593.0
2023-03-08,1552.0,0.0,1552.0,214826.0,-44041.0
2023-03-09,-7656.0,0.0,-7656.0,207170.0,-51697.0
2023-03-10,0.0,0.0,0.0,207170.0,-51697.0
2023-03-12,0.0,0.0,0.0,207170.0,-51697.0
2023-03-13,0.0,0.0,0.0,207170.0,-51697.0
2023-03-14,0.0,0.0,0.0,207170.0,-51697.0
2023-03-15,0.0,0.0,0.0,207170.0,-51697.0
2023-03-16,0.0,0.0,0.0,207170.0,-51697.0
2023-03-17,-1318.5,0.0,-1318.5,205851.5,-53015.5
2023-03-19,711.0,0.0,711.0,206562.5,-52304.5
2023-03-20,0.0,0.0,0.0,206562.5,-52304.5
2023-03-21,0.0,0.0,0.0,206562.5,-52304.5
2023-03-22,-2691.0,0.0,-2691.0,203871.5,-54995.5
2023-03-23,0.0,0.0,0.0,203871.5,-54995.5
2023-03-24,1048.5,0.0,1048.5,204920.0,-53947.0
2023-03-26,423.0,0.0,423.0,205343.0,-53524.0
2023-03-27,-2254.5,0.0,-2254.5,203088.5,-55778.5
2023-03-28,-1134.0,0.0,-1134.0,201954.5,-56912.5
2023-03-29,3303.0,0.0,3303.0,205257.5,-53609.5
2023-03-30,2754.0,0.0,2754.0,208011.5,-50855.5
2023-03-31,3825.0,0.0,3825.0,211836.5,-47030.5
2023-04-02,-1233.0,48.0,-1185.0,210651.5,-48215.5
2023-04-03,126.0,1316.0,1442.0,212093.5,-46773.5
2023-04-04,-112.5,-736.0,-848.5,211245.0,-47622.0
2023-04-05,-3307.5,0.0,-3307.5,207937.5,-50929.5
2023-04-06,1845.0,68.0,1913.0,209850.5,-49016.5
2023-04-07,382.5,404.0,786.5,210637.0,-48230.0
2023-04-09,-784.0,-160.0,-944.0,209693.0,-49174.0
2023-04-10,512.0,464.0,976.0,210669.0,-48198.0
2023-04-11,-2648.0,304.0,-2344.0,208325.0,-50542.0
2023-04-12,-5056.0,-268.0,-5324.0,203001.0,-55866.0
2023-04-13,8328.0,1360.0,9688.0,212689.0,-46178.0
2023-04-14,240.0,-38.0,202.0,212891.0,-45976.0
2023-04-16,-408.0,14.0,-394.0,212497.0,-46370.0
2023-04-17,-248.0,182.0,-66.0,212431.0,-46436.0
2023-04-18,-120.0,-357.0,-477.0,211954.0,-46913.0
2023-04-19,-1504.0,-357.0,-1861.0,210093.0,-48774.0
2023-04-20,-1464.0,-812.0,-2276.0,207817.0,-51050.0
2023-04-21,-224.0,175.0,-49.0,207768.0,-51099.0
2023-04-23,-224.0,-609.0,-833.0,206935.0,-51932.0
2023-04-24,-600.0,763.0,163.0,207098.0,-51769.0
2023-04-25,-2864.0,-1848.0,-4712.0,202386.0,-56481.0
2023-04-26,-96.0,-1659.0,-1755.0,200631.0,-58236.0
2023-04-27,8104.0,3045.0,11149.0,211780.0,-47087.0
2023-04-28,3736.0,2342.0,6078.0,217858.0,-41009.0
2023-04-30,-632.0,-30.0,-662.0,217196.0,-41671.0
2023-05-01,-688.0,-472.5,-1160.5,216035.5,-42831.5
2023-05-02,-3312.0,-2422.5,-5734.5,210301.0,-48566.0
2023-05-03,-2704.0,-2235.0,-4939.0,205362.0,-53505.0
2023-05-04,-128.0,0.0,-128.0,205234.0,-53633.0
2023-05-05,6936.0,0.0,6936.0,212170.0,-46697.0
2023-05-07,-200.0,0.0,-200.0,211970.0,-46897.0
2023-05-08,1048.0,0.0,1048.0,213018.0,-45849.0
2023-05-09,-1968.0,0.0,-1968.0,211050.0,-47817.0
2023-05-10,4680.0,0.0,4680.0,215730.0,-43137.0
2023-05-11,1056.0,0.0,1056.0,216786.0,-42081.0
2023-05-12,-2728.0,0.0,-2728.0,214058.0,-44809.0
2023-05-14,-104.0,0.0,-104.0,213954.0,-44913.0
2023-05-15,2944.0,0.0,2944.0,216898.0,-41969.0
2023-05-16,1320.0,0.0,1320.0,218218.0,-40649.0
2023-05-17,4600.0,0.0,4600.0,222818.0,-36049.0
2023-05-18,9160.0,0.0,9160.0,231978.0,-26889.0
2023-05-19,-2816.0,0.0,-2816.0,229162.0,-29705.0
2023-05-21,392.0,0.0,392.0,229554.0,-29313.0
2023-05-22,2864.0,0.0,2864.0,232418.0,-26449.0
2023-05-23,-6232.0,0.0,-6232.0,226186.0,-32681.0
2023-05-24,3160.0,0.0,3160.0,229346.0,-29521.0
2023-05-25,3776.0,0.0,3776.0,233122.0,-25745.0
2023-05-26,12992.0,0.0,12992.0,246114.0,-12753.0
2023-05-28,1456.0,0.0,1456.0,247570.0,-11297.0
2023-05-29,-976.0,0.0,-976.0,246594.0,-12273.0
2023-05-30,1144.0,0.0,1144.0,247738.0,-11129.0
2023-05-31,-3576.0,0.0,-3576.0,244162.0,-14705.0
2023-06-01,5544.0,0.0,5544.0,249706.0,-9161.0
2023-06-02,3304.0,0.0,3304.0,253010.0,-5857.0
2023-06-04,-1600.0,60.0,-1540.0,251470.0,-7397.0
2023-06-05,936.0,-868.0,68.0,251538.0,-7329.0
2023-06-06,936.0,0.0,936.0,252474.0,-6393.0
2023-06-07,-8472.0,0.0,-8472.0,244002.0,-14865.0
2023-06-08,5432.0,0.0,5432.0,249434.0,-9433.0
2023-06-09,2016.0,264.0,2280.0,251714.0,-7153.0
2023-06-11,904.0,80.0,984.0,252698.0,-6169.0
2023-06-12,13168.0,2000.0,15168.0,267866.0,0.0
2023-06-13,3280.0,156.0,3436.0,271302.0,0.0
2023-06-14,3488.0,-728.0,2760.0,274062.0,0.0
2023-06-15,4640.0,1724.0,6364.0,280426.0,0.0
2023-06-16,-1856.0,-412.0,-2268.0,278158.0,-2268.0
2023-06-18,56.0,-208.0,-152.0,278006.0,-2420.0
2023-06-19,-1744.0,-260.0,-2004.0,276002.0,-4424.0
2023-06-20,424.0,-516.0,-92.0,275910.0,-4516.0
2023-06-21,-7072.0,-488.0,-7560.0,268350.0,-12076.0
2023-06-22,5784.0,-628.0,5156.0,273506.0,-6920.0
2023-06-23,-5320.0,-560.0,-5880.0,267626.0,-12800.0
2023-06-25,1448.0,574.0,2022.0,269648.0,-10778.0
2023-06-26,-6648.0,-147.0,-6795.0,262853.0,-17573.0
2023-06-27,5320.0,1022.0,6342.0,269195.0,-11231.0
2023-06-28,3616.0,-329.0,3287.0,272482.0,-7944.0
2023-06-29,-1776.0,1477.0,-299.0,272183.0,-8243.0
2023-06-30,6424.0,1904.0,8328.0,280511.0,0.0
2023-07-02,1072.0,203.0,1275.0,281786.0,0.0
2023-07-03,-424.0,14.0,-410.0,281376.0,-410.0
2023-07-04,88.0,-301.0,-213.0,281163.0,-623.0
2023-07-05,560.0,-1386.0,-826.0,280337.0,-1449.0
2023-07-06,-4208.0,-1883.0,-6091.0,274246.0,-7540.0
2023-07-07,-1112.0,-1139.0,-2251.0,271995.0,-9791.0
2023-07-09,-344.0,-592.5,-936.5,271058.5,-10727.5
2023-07-10,368.0,2002.5,2370.5,273429.0,-8357.0
2023-07-11,2312.0,2160.0,4472.0,277901.0,-3885.0
2023-07-12,6632.0,1275.0,7907.0,285808.0,0.0
2023-07-13,7696.0,-577.5,7118.5,292926.5,0.0
2023-07-14,-640.0,900.0,260.0,293186.5,0.0
2023-07-16,-816.0,-22.5,-838.5,292348.0,-838.5
2023-07-17,4840.0,727.5,5567.5,297915.5,0.0
2023-07-18,4576.0,3037.5,7613.5,305529.0,0.0
2023-07-19,-3336.0,712.5,-2623.5,302905.5,-2623.5
2023-07-20,-8864.0,1470.0,-7394.0,295511.5,-10017.5
2023-07-21,-800.0,-495.0,-1295.0,294216.5,-11312.5
2023-07-23,-184.0,-22.5,-206.5,294010.0,-11519.0
2023-07-24,584.0,1410.0,1994.0,296004.0,-9525.0
2023-07-25,2248.0,37.5,2285.5,298289.5,-7239.5
2023-07-26,496.0,907.5,1403.5,299693.0,-5836.0
2023-07-27,-2136.0,-1867.5,-4003.5,295689.5,-9839.5
2023-07-28,8288.0,997.5,9285.5,304975.0,-554.0
2023-07-30,1336.0,-375.0,961.0,305936.0,0.0
2023-07-31,-864.0,1252.5,388.5,306324.5,0.0
2023-08-01,-3432.0,-397.5,-3829.5,302495.0,-3829.5
2023-08-02,-8352.0,-1305.0,-9657.0,292838.0,-13486.5
2023-08-03,-344.0,-720.0,-1064.0,291774.0,-14550.5
2023-08-04,-8.0,-1695.0,-1703.0,290071.0,-16253.5
2023-08-06,0.0,817.5,817.5,290888.5,-15436.0
2023-08-07,0.0,1792.5,1792.5,292681.0,-13643.5
2023-08-08,0.0,-832.5,-832.5,291848.5,-14476.0
2023-08-09,0.0,-337.5,-337.5,291511.0,-14813.5
2023-08-10,0.0,-630.0,-630.0,290881.0,-15443.5
2023-08-11,0.0,862.5,862.5,291743.5,-14581.0
2023-08-13,0.0,-667.5,-667.5,291076.0,-15248.5
2023-08-14,0.0,832.5,832.5,291908.5,-14416.0
2023-08-15,0.0,-2797.5,-2797.5,289111.0,-17213.5
2023-08-16,0.0,7.5,7.5,289118.5,-17206.0
2023-08-17,0.0,0.0,0.0,289118.5,-17206.0
2023-08-18,0.0,0.0,0.0,289118.5,-17206.0
2023-08-20,0.0,0.0,0.0,289118.5,-17206.0
2023-08-21,0.0,0.0,0.0,289118.5,-17206.0
2023-08-22,0.0,0.0,0.0,289118.5,-17206.0
2023-08-23,0.0,0.0,0.0,289118.5,-17206.0
2023-08-24,0.0,0.0,0.0,289118.5,-17206.0
2023-08-25,0.0,0.0,0.0,289118.5,-17206.0
2023-08-27,0.0,0.0,0.0,289118.5,-17206.0
2023-08-28,0.0,0.0,0.0,289118.5,-17206.0
2023-08-29,0.0,0.0,0.0,289118.5,-17206.0
2023-08-30,1228.5,0.0,1228.5,290347.0,-15977.5
2023-08-31,603.0,0.0,603.0,290950.0,-15374.5
2023-09-01,-432.0,0.0,-432.0,290518.0,-15806.5
2023-09-03,76.5,0.0,76.5,290594.5,-15730.0
2023-09-04,171.0,0.0,171.0,290765.5,-15559.0
2023-09-05,-76.5,0.0,-76.5,290689.0,-15635.5
2023-09-06,-2353.5,0.0,-2353.5,288335.5,-17989.0
2023-09-07,-13.5,0.0,-13.5,288322.0,-18002.5
2023-09-08,0.0,0.0,0.0,288322.0,-18002.5
2023-09-10,0.0,0.0,0.0,288322.0,-18002.5
2023-09-11,0.0,0.0,0.0,288322.0,-18002.5
2023-09-12,-2740.5,0.0,-2740.5,285581.5,-20743.0
2023-09-13,1332.0,0.0,1332.0,286913.5,-19411.0
2023-09-14,1755.0,0.0,1755.0,288668.5,-17656.0
2023-09-15,-5292.0,-1568.0,-6860.0,281808.5,-24516.0
2023-09-17,9.0,-8.0,1.0,281809.5,-24515.0
2023-09-18,0.0,0.0,0.0,281809.5,-24515.0
2023-09-19,0.0,0.0,0.0,281809.5,-24515.0
2023-09-20,0.0,0.0,0.0,281809.5,-24515.0
2023-09-21,0.0,0.0,0.0,281809.5,-24515.0
2023-09-22,0.0,0.0,0.0,281809.5,-24515.0
2023-09-24,0.0,0.0,0.0,281809.5,-24515.0
2023-09-25,0.0,0.0,0.0,281809.5,-24515.0
2023-09-26,0.0,0.0,0.0,281809.5,-24515.0
2023-09-27,0.0,0.0,0.0,281809.5,-24515.0
2023-09-28,0.0,0.0,0.0,281809.5,-24515.0
2023-09-29,0.0,0.0,0.0,281809.5,-24515.0
2023-10-01,0.0,0.0,0.0,281809.5,-24515.0
2023-10-02,0.0,0.0,0.0,281809.5,-24515.0
2023-10-03,0.0,0.0,0.0,281809.5,-24515.0
2023-10-04,0.0,0.0,0.0,281809.5,-24515.0
2023-10-05,0.0,0.0,0.0,281809.5,-24515.0
2023-10-06,0.0,0.0,0.0,281809.5,-24515.0
2023-10-08,0.0,0.0,0.0,281809.5,-24515.0
2023-10-09,0.0,0.0,0.0,281809.5,-24515.0
2023-10-10,0.0,0.0,0.0,281809.5,-24515.0
2023-10-11,0.0,0.0,0.0,281809.5,-24515.0
2023-10-12,-1525.5,0.0,-1525.5,280284.0,-26040.5
2023-10-13,0.0,0.0,0.0,280284.0,-26040.5
2023-10-15,0.0,0.0,0.0,280284.0,-26040.5
2023-10-16,0.0,0.0,0.0,280284.0,-26040.5
2023-10-17,0.0,0.0,0.0,280284.0,-26040.5
2023-10-18,0.0,0.0,0.0,280284.0,-26040.5
2023-10-19,0.0,0.0,0.0,280284.0,-26040.5
2023-10-20,0.0,0.0,0.0,280284.0,-26040.5
2023-10-22,0.0,0.0,0.0,280284.0,-26040.5
2023-10-23,0.0,0.0,0.0,280284.0,-26040.5
2023-10-24,0.0,0.0,0.0,280284.0,-26040.5
2023-10-25,0.0,0.0,0.0,280284.0,-26040.5
2023-10-26,0.0,0.0,0.0,280284.0,-26040.5
2023-10-27,0.0,0.0,0.0,280284.0,-26040.5
2023-10-29,0.0,0.0,0.0,280284.0,-26040.5
2023-10-30,0.0,0.0,0.0,280284.0,-26040.5
2023-10-31,0.0,0.0,0.0,280284.0,-26040.5
2023-11-01,0.0,0.0,0.0,280284.0,-26040.5
2023-11-02,0.0,0.0,0.0,280284.0,-26040.5
2023-11-03,0.0,860.0,860.0,281144.0,-25180.5
2023-11-05,-202.5,-20.0,-222.5,280921.5,-25403.0
2023-11-06,0.0,-320.0,-320.0,280601.5,-25723.0
2023-11-07,2871.0,456.0,3327.0,283928.5,-22396.0
2023-11-08,-184.5,-76.0,-260.5,283668.0,-22656.5
2023-11-09,-2254.5,-716.0,-2970.5,280697.5,-25627.0
2023-11-10,6273.0,1216.0,7489.0,288186.5,-18138.0
2023-11-12,-378.0,-344.0,-722.0,287464.5,-18860.0
2023-11-13,-31.5,692.0,660.5,288125.0,-18199.5
2023-11-14,6232.5,2216.0,8448.5,296573.5,-9751.0
2023-11-15,-715.5,296.0,-419.5,296154.0,-10170.5
2023-11-16,373.5,176.0,549.5,296703.5,-9621.0
2023-11-17,-201.0,-261.0,-462.0,296241.5,-10083.0
2023-11-19,-328.0,84.0,-244.0,295997.5,-10327.0
2023-11-20,7584.0,1596.0,9180.0,305177.5,-1147.0
2023-11-21,-4688.0,-357.0,-5045.0,300132.5,-6192.0
2023-11-22,2928.0,854.0,3782.0,303914.5,-2410.0
2023-11-23,600.0,266.0,866.0,304780.5,-1544.0
2023-11-24,-1720.0,686.0,-1034.0,303746.5,-2578.0
2023-11-26,-784.0,-595.0,-1379.0,302367.5,-3957.0
2023-11-27,752.0,217.0,969.0,303336.5,-2988.0
2023-11-28,1392.0,833.0,2225.0,305561.5,-763.0
2023-11-29,-200.0,819.0,619.0,306180.5,-144.0
2023-11-30,-2640.0,2905.0,265.0,306445.5,0.0
2023-12-01,2128.0,2075.0,4203.0,310648.5,0.0
2023-12-03,-1248.0,-157.5,-1405.5,309243.0,-1405.5
2023-12-04,-4560.0,-742.5,-5302.5,303940.5,-6708.0
2023-12-05,2512.0,390.0,2902.0,306842.5,-3806.0
2023-12-06,-3568.0,-1297.5,-4865.5,301977.0,-8671.5
2023-12-07,6512.0,735.0,7247.0,309224.0,-1424.5
2023-12-08,2320.0,765.0,3085.0,312309.0,0.0
2023-12-10,384.0,2655.0,3039.0,315348.0,0.0
2023-12-11,11208.0,1350.0,12558.0,327906.0,0.0
2023-12-12,4952.0,1432.5,6384.5,334290.5,0.0
2023-12-13,6608.0,4365.0,10973.0,345263.5,0.0
2023-12-14,-1776.0,750.0,-1026.0,344237.5,-1026.0
2023-12-15,1776.0,-202.5,1573.5,345811.0,0.0
2023-12-17,248.0,547.5,795.5,346606.5,0.0
2023-12-18,3216.0,-517.5,2698.5,349305.0,0.0
2023-12-19,3312.0,1980.0,5292.0,354597.0,0.0
2023-12-20,-6912.0,-3007.5,-9919.5,344677.5,-9919.5
2023-12-21,4168.0,735.0,4903.0,349580.5,-5016.5
2023-12-22,656.0,540.0,1196.0,350776.5,-3820.5
2023-12-25,1328.0,592.5,1920.5,352697.0,-1900.0
2023-12-26,2736.0,802.5,3538.5,356235.5,0.0
2023-12-27,1032.0,907.5,1939.5,358175.0,0.0
2023-12-28,-672.0,262.5,-409.5,357765.5,-409.5
2023-12-29,-3096.0,-607.5,-3703.5,354062.0,-4113.0
2024-01-01,1287.5,745.5,2033.0,356095.0,-2080.0
2024-01-02,-15262.5,-672.0,-15934.5,340160.5,-18014.5
2024-01-03,12.5,-2593.5,-2581.0,337579.5,-20595.5
2024-01-04,0.0,136.5,136.5,337716.0,-20459.0
2024-01-05,0.0,-294.0,-294.0,337422.0,-20753.0
2024-01-07,0.0,-1270.5,-1270.5,336151.5,-22023.5
2024-01-08,0.0,3076.5,3076.5,339228.0,-18947.0
2024-01-09,0.0,-1743.0,-1743.0,337485.0,-20690.0
2024-01-10,0.0,2887.5,2887.5,340372.5,-17802.5
2024-01-11,0.0,-1050.0,-1050.0,339322.5,-18852.5
2024-01-12,0.0,-1417.5,-1417.5,337905.0,-20270.0
2024-01-14,0.0,672.0,672.0,338577.0,-19598.0
2024-01-15,0.0,-1501.5,-1501.5,337075.5,-21099.5
2024-01-16,0.0,-1911.0,-1911.0,335164.5,-23010.5
2024-01-17,-4518.0,-798.0,-5316.0,329848.5,-28326.5
2024-01-18,0.0,2184.0,2184.0,332032.5,-26142.5
2024-01-19,11340.0,4431.0,15771.0,347803.5,-10371.5
2024-01-21,738.0,577.5,1315.5,349119.0,-9056.0
2024-01-22,-693.0,808.5,115.5,349234.5,-8940.5
2024-01-23,4014.0,-808.5,3205.5,352440.0,-5735.0
2024-01-24,1476.0,-588.0,888.0,353328.0,-4847.0
2024-01-25,-2682.0,262.5,-2419.5,350908.5,-7266.5
2024-01-26,-1359.0,1806.0,447.0,351355.5,-6819.5
2024-01-28,-900.0,-514.5,-1414.5,349941.0,-8234.0
2024-01-29,8721.0,2509.5,11230.5,361171.5,0.0
2024-01-30,-9855.0,2068.5,-7786.5,353385.0,-7786.5
2024-01-31,-5967.0,-3108.0,-9075.0,344310.0,-16861.5
2024-02-01,11196.0,3087.0,14283.0,358593.0,-2578.5
2024-02-02,2416.5,1155.0,3571.5,362164.5,0.0
2024-02-04,1075.0,-651.0,424.0,362588.5,0.0
2024-02-05,-562.5,-2236.5,-2799.0,359789.5,-2799.0
2024-02-06,-2212.5,1669.5,-543.0,359246.5,-3342.0
2024-02-07,9525.0,1648.5,11173.5,370420.0,0.0
2024-02-08,1237.5,84.0,1321.5,371741.5,0.0
2024-02-09,8525.0,-756.0,7769.0,379510.5,0.0
2024-02-11,-137.5,220.5,83.0,379593.5,0.0
2024-02-12,-4887.5,945.0,-3942.5,375651.0,-3942.5
2024-02-13,-12350.0,-5376.0,-17726.0,357925.0,-21668.5
2024-02-14,9425.0,1879.5,11304.5,369229.5,-10364.0
2024-02-15,3687.5,3171.0,6858.5,376088.0,-3505.5
2024-02-16,-11562.5,-1449.0,-13011.5,363076.5,-16517.0
2024-02-18,2812.5,630.0,3442.5,366519.0,-13074.5
2024-02-19,-1462.5,-1407.0,-2869.5,363649.5,-15944.0
2024-02-20,-9000.0,178.5,-8821.5,354828.0,-24765.5
2024-02-21,6787.5,1291.5,8079.0,362907.0,-16686.5
2024-02-22,16875.0,4683.0,21558.0,384465.0,0.0
2024-02-23,-4025.0,-210.0,-4235.0,380230.0,-4235.0
2024-02-25,1075.0,-115.5,959.5,381189.5,-3275.5
2024-02-26,-975.0,-430.5,-1405.5,379784.0,-4681.0
2024-02-27,2100.0,-1176.0,924.0,380708.0,-3757.0
2024-02-28,-6762.5,126.0,-6636.5,374071.5,-10393.5
2024-02-29,9487.5,682.5,10170.0,384241.5,-223.5
2024-03-01,13100.0,168.0,13268.0,397509.5,0.0
2024-03-03,1100.0,42.0,1142.0,398651.5,0.0
2024-03-04,-6012.5,-1270.5,-7283.0,391368.5,-7283.0
2024-03-05,-13037.5,-3759.0,-16796.5,374572.0,-24079.5
2024-03-06,2800.0,577.5,3377.5,377949.5,-20702.0
2024-03-07,12387.5,1564.5,13952.0,391901.5,-6750.0
2024-03-08,-10550.0,-315.0,-10865.0,381036.5,-17615.0
2024-03-10,-625.0,3717.0,3092.0,384128.5,-14523.0
2024-03-11,12562.5,1491.0,14053.5,398182.0,-469.5
2024-03-12,9225.0,1837.5,11062.5,409244.5,0.0
2024-03-13,-5275.0,997.5,-4277.5,404967.0,-4277.5
2024-03-14,-6725.0,-2142.0,-8867.0,396100.0,-13144.5
2024-03-15,-8750.0,-2110.5,-10860.5,385239.5,-24005.0
2024-03-17,775.0,273.0,1048.0,386287.5,-22957.0
2024-03-18,5625.0,399.0,6024.0,392311.5,-16933.0
2024-03-19,3850.0,3360.0,7210.0,399521.5,-9723.0
2024-03-20,15512.5,5565.0,21077.5,420599.0,0.0
2024-03-21,512.5,1753.5,2266.0,422865.0,0.0
2024-03-22,-1250.0,-4158.0,-5408.0,417457.0,-5408.0
2024-03-24,1100.0,-189.0,911.0,418368.0,-4497.0
2024-03-25,-2275.0,-913.5,-3188.5,415179.5,-7685.5
2024-03-26,-2562.5,724.5,-1838.0,413341.5,-9523.5
2024-03-27,-450.0,3381.0,2931.0,416272.5,-6592.5
2024-03-28,-750.0,315.0,-435.0,415837.5,-7027.5
2024-03-31,7162.5,1848.0,9010.5,424848.0,0.0
2024-04-01,-6912.5,-5796.0,-12708.5,412139.5,-12708.5
2024-04-02,-7087.5,-3213.0,-10300.5,401839.0,-23009.0
2024-04-03,5862.5,808.5,6671.0,408510.0,-16338.0
2024-04-04,-17712.5,21.0,-17691.5,390818.5,-34029.5
2024-04-05,10950.0,0.0,10950.0,401768.5,-23079.5
2024-04-07,425.0,0.0,425.0,402193.5,-22654.5
2024-04-08,-862.5,0.0,-862.5,401331.0,-23517.0
2024-04-09,3312.5,0.0,3312.5,404643.5,-20204.5
2024-04-10,-10475.0,0.0,-10475.0,394168.5,-30679.5
2024-04-11,16587.5,0.0,16587.5,410756.0,-14092.0
2024-04-12,-15937.5,0.0,-15937.5,394818.5,-30029.5
2024-04-14,3312.5,0.0,3312.5,398131.0,-26717.0
2024-04-15,12.5,0.0,12.5,398143.5,-26704.5
2024-04-16,0.0,0.0,0.0,398143.5,-26704.5
2024-04-17,0.0,0.0,0.0,398143.5,-26704.5
2024-04-18,0.0,0.0,0.0,398143.5,-26704.5
2024-04-19,0.0,0.0,0.0,398143.5,-26704.5
2024-04-21,0.0,0.0,0.0,398143.5,-26704.5
2024-04-22,0.0,0.0,0.0,398143.5,-26704.5
2024-04-23,0.0,0.0,0.0,398143.5,-26704.5
2024-04-24,0.0,0.0,0.0,398143.5,-26704.5
2024-04-25,0.0,0.0,0.0,398143.5,-26704.5
2024-04-26,0.0,0.0,0.0,398143.5,-26704.5
2024-04-28,0.0,0.0,0.0,398143.5,-26704.5
2024-04-29,0.0,0.0,0.0,398143.5,-26704.5
2024-04-30,0.0,0.0,0.0,398143.5,-26704.5
2024-05-01,0.0,0.0,0.0,398143.5,-26704.5
2024-05-02,0.0,0.0,0.0,398143.5,-26704.5
2024-05-03,0.0,0.0,0.0,398143.5,-26704.5
2024-05-05,0.0,0.0,0.0,398143.5,-26704.5
2024-05-06,0.0,0.0,0.0,398143.5,-26704.5
2024-05-07,738.0,0.0,738.0,398881.5,-25966.5
2024-05-08,-1530.0,0.0,-1530.0,397351.5,-27496.5
2024-05-09,-9.0,0.0,-9.0,397342.5,-27505.5
2024-05-10,279.0,336.0,615.0,397957.5,-26890.5
2024-05-12,216.0,161.0,377.0,398334.5,-26513.5
2024-05-13,1377.0,-623.0,754.0,399088.5,-25759.5
2024-05-14,4797.0,-14.0,4783.0,403871.5,-20976.5
2024-05-15,10944.0,2842.0,13786.0,417657.5,-7190.5
2024-05-16,-2511.0,-952.0,-3463.0,414194.5,-10653.5
2024-05-17,-630.0,1029.0,399.0,414593.5,-10254.5
2024-05-19,1197.0,266.0,1463.0,416056.5,-8791.5
2024-05-20,3051.0,-1582.0,1469.0,417525.5,-7322.5
2024-05-21,2223.0,476.0,2699.0,420224.5,-4623.5
2024-05-22,2205.0,-1134.0,1071.0,421295.5,-3552.5
2024-05-23,-6255.0,0.0,-6255.0,415040.5,-9807.5
2024-05-24,6327.0,0.0,6327.0,421367.5,-3480.5
2024-05-26,-1762.5,0.0,-1762.5,419605.0,-5243.0
2024-05-27,3587.5,0.0,3587.5,423192.5,-1655.5
2024-05-28,1087.5,0.0,1087.5,424280.0,-568.0
2024-05-29,-10325.0,0.0,-10325.0,413955.0,-10893.0
2024-05-30,-8225.0,0.0,-8225.0,405730.0,-19118.0
2024-05-31,637.5,0.0,637.5,406367.5,-18480.5
2024-06-02,1012.5,0.0,1012.5,407380.0,-17468.0
2024-06-03,2925.0,0.0,2925.0,410305.0,-14543.0
2024-06-04,4362.5,0.0,4362.5,414667.5,-10180.5
2024-06-05,17675.0,0.0,17675.0,432342.5,0.0
2024-06-06,-812.5,0.0,-812.5,431530.0,-812.5
2024-06-07,-2200.0,0.0,-2200.0,429330.0,-3012.5
2024-06-09,-200.0,0.0,-200.0,429130.0,-3212.5
2024-06-10,2887.5,0.0,2887.5,432017.5,-325.0
2024-06-11,8600.0,0.0,8600.0,440617.5,0.0
2024-06-12,17175.0,0.0,17175.0,457792.5,0.0
2024-06-13,912.5,0.0,912.5,458705.0,0.0
2024-06-14,3887.5,0.0,3887.5,462592.5,0.0
2024-06-16,762.5,0.0,762.5,463355.0,0.0
2024-06-17,24675.0,0.0,24675.0,488030.0,0.0
2024-06-18,912.5,-63.0,849.5,488879.5,0.0
2024-06-19,637.5,14.0,651.5,489531.0,0.0
2024-06-20,-8325.0,0.0,-8325.0,481206.0,-8325.0
2024-06-21,-3025.0,42.0,-2983.0,478223.0,-11308.0
2024-06-23,-37.5,-574.0,-611.5,477611.5,-11919.5
2024-06-24,-11825.0,2891.0,-8934.0,468677.5,-20853.5
2024-06-25,9700.0,-2807.0,6893.0,475570.5,-13960.5
2024-06-26,-2350.0,-665.0,-3015.0,472555.5,-16975.5
2024-06-27,8837.5,938.0,9775.5,482331.0,-7200.0
2024-06-28,-6425.0,-182.0,-6607.0,475724.0,-13807.0
2024-06-30,-1050.0,-42.0,-1092.0,474632.0,-14899.0
2024-07-01,3650.0,-511.0,3139.0,477771.0,-11760.0
2024-07-02,10937.5,1351.0,12288.5,490059.5,0.0
2024-07-03,8225.0,-63.0,8162.0,498221.5,0.0
2024-07-04,-587.5,336.0,-251.5,497970.0,-251.5
2024-07-05,9987.5,-283.5,9704.0,507674.0,0.0
2024-07-07,12.5,-231.0,-218.5,507455.5,-218.5
2024-07-08,7387.5,955.5,8343.0,515798.5,0.0
2024-07-09,-2037.5,-1522.5,-3560.0,512238.5,-3560.0
2024-07-10,9187.5,4819.5,14007.0,526245.5,0.0
2024-07-11,-23337.5,735.0,-22602.5,503643.0,-22602.5
2024-07-12,6262.5,2278.5,8541.0,512184.0,-14061.5
2024-07-14,1012.5,441.0,1453.5,513637.5,-12608.0
2024-07-15,3587.5,2110.5,5698.0,519335.5,-6910.0
2024-07-16,-3325.0,7549.5,4224.5,523560.0,-2685.5
2024-07-17,0.0,3213.0,3213.0,526773.0,0.0
2024-07-18,0.0,-6447.0,-6447.0,520326.0,-6447.0
2024-07-19,0.0,-4546.5,-4546.5,515779.5,-10993.5
2024-07-21,0.0,336.0,336.0,516115.5,-10657.5
2024-07-22,0.0,735.0,735.0,516850.5,-9922.5
2024-07-23,0.0,-1354.5,-1354.5,515496.0,-11277.0
2024-07-24,0.0,31.5,31.5,515527.5,-11245.5
2024-07-25,0.0,0.0,0.0,515527.5,-11245.5
2024-07-26,0.0,0.0,0.0,515527.5,-11245.5
2024-07-28,0.0,0.0,0.0,515527.5,-11245.5
2024-07-29,0.0,0.0,0.0,515527.5,-11245.5
2024-07-30,0.0,0.0,0.0,515527.5,-11245.5
2024-07-31,0.0,0.0,0.0,515527.5,-11245.5
2024-08-01,0.0,0.0,0.0,515527.5,-11245.5
2024-08-02,0.0,0.0,0.0,515527.5,-11245.5
2024-08-04,0.0,0.0,0.0,515527.5,-11245.5
2024-08-05,0.0,0.0,0.0,515527.5,-11245.5
2024-08-06,0.0,0.0,0.0,515527.5,-11245.5
2024-08-07,0.0,0.0,0.0,515527.5,-11245.5
2024-08-08,0.0,0.0,0.0,515527.5,-11245.5
2024-08-09,0.0,0.0,0.0,515527.5,-11245.5
2024-08-11,0.0,0.0,0.0,515527.5,-11245.5
2024-08-12,0.0,0.0,0.0,515527.5,-11245.5
2024-08-13,0.0,0.0,0.0,515527.5,-11245.5
2024-08-14,-360.0,0.0,-360.0,515167.5,-11605.5
2024-08-15,-9.0,0.0,-9.0,515158.5,-11614.5
2024-08-16,-342.0,406.0,64.0,515222.5,-11550.5
2024-08-18,1584.0,49.0,1633.0,516855.5,-9917.5
2024-08-19,7650.0,1337.0,8987.0,525842.5,-930.5
2024-08-20,-2556.0,14.0,-2542.0,523300.5,-3472.5
2024-08-21,5274.0,-238.0,5036.0,528336.5,0.0
2024-08-22,-10719.0,-497.0,-11216.0,517120.5,-11216.0
2024-08-23,5004.0,2604.0,7608.0,524728.5,-3608.0
2024-08-25,-531.0,-245.0,-776.0,523952.5,-4384.0
2024-08-26,-6903.0,532.0,-6371.0,517581.5,-10755.0
2024-08-27,567.0,301.0,868.0,518449.5,-9887.0
2024-08-28,-14193.0,-581.0,-14774.0,503675.5,-24661.0
2024-08-29,8541.0,1225.0,9766.0,513441.5,-14895.0
2024-08-30,6702.0,1683.5,8385.5,521827.0,-6509.5
2024-09-01,-400.0,-199.5,-599.5,521227.5,-7109.0
2024-09-02,-275.0,-430.5,-705.5,520522.0,-7814.5
2024-09-03,-31150.0,-7245.0,-38395.0,482127.0,-46209.5
2024-09-04,25.0,1333.5,1358.5,483485.5,-44851.0
2024-09-05,0.0,-1722.0,-1722.0,481763.5,-46573.0
2024-09-06,0.0,-31.5,-31.5,481732.0,-46604.5
2024-09-08,0.0,0.0,0.0,481732.0,-46604.5
2024-09-09,0.0,0.0,0.0,481732.0,-46604.5
2024-09-10,0.0,0.0,0.0,481732.0,-46604.5
2024-09-11,0.0,0.0,0.0,481732.0,-46604.5
2024-09-12,0.0,0.0,0.0,481732.0,-46604.5
2024-09-13,0.0,0.0,0.0,481732.0,-46604.5
2024-09-15,1449.0,0.0,1449.0,483181.0,-45155.5
2024-09-16,4842.0,0.0,4842.0,488023.0,-40313.5
2024-09-17,1170.0,350.0,1520.0,489543.0,-38793.5
2024-09-18,2088.0,763.0,2851.0,492394.0,-35942.5
2024-09-19,10287.0,1764.0,12051.0,504445.0,-23891.5
2024-09-20,-1251.0,7.0,-1244.0,503201.0,-25135.5
2024-09-22,1719.0,497.0,2216.0,505417.0,-22919.5
2024-09-23,225.0,-581.0,-356.0,505061.0,-23275.5
2024-09-24,4005.0,588.0,4593.0,509654.0,-18682.5
2024-09-25,3528.0,-938.0,2590.0,512244.0,-16092.5
2024-09-26,2385.0,1134.0,3519.0,515763.0,-12573.5
2024-09-27,-5697.5,399.0,-5298.5,510464.5,-17872.0
2024-09-29,3950.0,556.5,4506.5,514971.0,-13365.5
2024-09-30,-1250.0,-462.0,-1712.0,513259.0,-15077.5
2024-10-01,-15750.0,-2236.5,-17986.5,495272.5,-33064.0
2024-10-02,6112.5,451.5,6564.0,501836.5,-26500.0
2024-10-03,-3587.5,-1575.0,-5162.5,496674.0,-31662.5
2024-10-04,11012.5,3360.0,14372.5,511046.5,-17290.0
2024-10-06,1362.5,42.0,1404.5,512451.0,-15885.5
2024-10-07,-12375.0,-4431.0,-16806.0,495645.0,-32691.5
2024-10-08,14500.0,1260.0,15760.0,511405.0,-16931.5
2024-10-09,8862.5,5250.0,14112.5,525517.5,-2819.0
2024-10-10,62.5,-798.0,-735.5,524782.0,-3554.5
2024-10-11,-1987.5,3633.0,1645.5,526427.5,-1909.0
2024-10-13,737.5,420.0,1157.5,527585.0,-751.5
2024-10-14,10237.5,2898.0,13135.5,540720.5,0.0
2024-10-15,-14000.0,-4252.5,-18252.5,522468.0,-18252.5
2024-10-16,-1900.0,2814.0,914.0,523382.0,-17338.5
2024-10-17,4562.5,2068.5,6631.0,530013.0,-10707.5
2024-10-18,3962.5,567.0,4529.5,534542.5,-6178.0
2024-10-20,1462.5,126.0,1588.5,536131.0,-4589.5
2024-10-21,112.5,-4546.5,-4434.0,531697.0,-9023.5
2024-10-22,687.5,-819.0,-131.5,531565.5,-9155.0
2024-10-23,-11975.0,-3801.0,-15776.0,515789.5,-24931.0
2024-10-24,4550.0,-934.5,3615.5,519405.0,-21315.5
2024-10-25,4812.5,31.5,4844.0,524249.0,-16471.5
2024-10-27,6062.5,0.0,6062.5,530311.5,-10409.0
2024-10-28,-4525.0,0.0,-4525.0,525786.5,-14934.0
2024-10-29,12000.0,0.0,12000.0,537786.5,-2934.0
2024-10-30,-16075.0,0.0,-16075.0,521711.5,-19009.0
2024-10-31,-17625.0,0.0,-17625.0,504086.5,-36634.0
2024-11-01,4775.0,0.0,4775.0,508861.5,-31859.0
2024-11-03,-1725.0,0.0,-1725.0,507136.5,-33584.0
2024-11-04,-2337.5,0.0,-2337.5,504799.0,-35921.5
2024-11-05,12787.5,0.0,12787.5,517586.5,-23134.0
2024-11-06,27350.0,0.0,27350.0,544936.5,0.0
2024-11-07,16787.5,-784.0,16003.5,560940.0,0.0
2024-11-08,25.0,0.0,25.0,560965.0,0.0
2024-11-10,3850.0,154.0,4004.0,564969.0,0.0
2024-11-11,-4400.0,1512.0,-2888.0,562081.0,-2888.0
2024-11-12,-2800.0,-2618.0,-5418.0,556663.0,-8306.0
2024-11-13,300.0,455.0,755.0,557418.0,-7551.0
2024-11-14,-10825.0,-1995.0,-12820.0,544598.0,-20371.0
2024-11-15,-22300.0,7.0,-22293.0,522305.0,-42664.0
2024-11-17,3237.5,0.0,3237.5,525542.5,-39426.5
2024-11-18,2700.0,0.0,2700.0,528242.5,-36726.5
2024-11-19,8037.5,0.0,8037.5,536280.0,-28689.0
2024-11-20,-1525.0,0.0,-1525.0,534755.0,-30214.0
2024-11-21,1050.0,0.0,1050.0,535805.0,-29164.0
2024-11-22,5237.5,0.0,5237.5,541042.5,-23926.5
2024-11-24,2862.5,1050.0,3912.5,544955.0,-20014.0
2024-11-25,-5075.0,1316.0,-3759.0,541196.0,-23773.0
2024-11-26,7575.0,994.0,8569.0,549765.0,-15204.0
2024-11-27,-8125.0,-651.0,-8776.0,540989.0,-23980.0
2024-11-28,3225.0,574.0,3799.0,544788.0,-20181.0
2024-11-29,5187.5,630.0,5817.5,550605.5,-14363.5
2024-12-01,-1350.0,-560.0,-1910.0,548695.5,-16273.5
2024-12-02,12462.5,-546.0,11916.5,560612.0,-4357.0
2024-12-03,5950.0,315.0,6265.0,566877.0,0.0
2024-12-04,8875.0,1015.0,9890.0,576767.0,0.0
2024-12-05,-2725.0,-1834.0,-4559.0,572208.0,-4559.0
2024-12-06,8912.5,-1001.0,7911.5,580119.5,0.0
2024-12-08,1187.5,-220.5,967.0,581086.5,0.0
2024-12-09,-9612.5,-2205.0,-11817.5,569269.0,-11817.5
2024-12-10,-1850.0,-1449.0,-3299.0,565970.0,-15116.5
2024-12-11,16487.5,-1995.0,14492.5,580462.5,-624.0
2024-12-12,-687.5,-1564.5,-2252.0,578210.5,-2876.0
2024-12-13,800.0,10.5,810.5,579021.0,-2065.5
2024-12-15,1437.5,0.0,1437.5,580458.5,-628.0
2024-12-16,15487.5,0.0,15487.5,595946.0,0.0
2024-12-17,8762.5,0.0,8762.5,604708.5,0.0
2024-12-18,0.0,0.0,0.0,604708.5,0.0
2024-12-19,0.0,0.0,0.0,604708.5,0.0
2024-12-20,0.0,0.0,0.0,604708.5,0.0
2024-12-22,0.0,0.0,0.0,604708.5,0.0
2024-12-23,0.0,0.0,0.0,604708.5,0.0
2024-12-24,0.0,0.0,0.0,604708.5,0.0
2024-12-25,0.0,0.0,0.0,604708.5,0.0
2024-12-26,0.0,0.0,0.0,604708.5,0.0
2024-12-27,0.0,0.0,0.0,604708.5,0.0
2024-12-29,0.0,0.0,0.0,604708.5,0.0
2024-12-30,0.0,0.0,0.0,604708.5,0.0
2024-12-31,0.0,0.0,0.0,604708.5,0.0
2025-01-01,0.0,0.0,0.0,604708.5,0.0
2025-01-02,0.0,0.0,0.0,604708.5,0.0
2025-01-03,0.0,0.0,0.0,604708.5,0.0
2025-01-05,0.0,0.0,0.0,604708.5,0.0
2025-01-06,0.0,0.0,0.0,604708.5,0.0
2025-01-07,0.0,0.0,0.0,604708.5,0.0
2025-01-08,0.0,0.0,0.0,604708.5,0.0
2025-01-09,0.0,0.0,0.0,604708.5,0.0
2025-01-10,0.0,0.0,0.0,604708.5,0.0
2025-01-12,0.0,0.0,0.0,604708.5,0.0
2025-01-13,0.0,0.0,0.0,604708.5,0.0
2025-01-14,0.0,0.0,0.0,604708.5,0.0
2025-01-15,0.0,0.0,0.0,604708.5,0.0
2025-01-16,0.0,-639.0,-639.0,604069.5,-639.0
2025-01-17,0.0,45.0,45.0,604114.5,-594.0
2025-01-19,0.0,234.0,234.0,604348.5,-360.0
2025-01-20,0.0,981.0,981.0,605329.5,0.0
2025-01-21,0.0,4023.0,4023.0,609352.5,0.0
2025-01-22,0.0,693.0,693.0,610045.5,0.0
2025-01-23,3439.0,3438.0,6877.0,616922.5,0.0
2025-01-24,-7771.0,-1215.0,-8986.0,607936.5,-8986.0
2025-01-26,-10241.0,-1431.0,-11672.0,596264.5,-20658.0
2025-01-27,0.0,3600.0,3600.0,599864.5,-17058.0
2025-01-28,0.0,1746.0,1746.0,601610.5,-15312.0
2025-01-29,0.0,-387.0,-387.0,601223.5,-15699.0
2025-01-30,0.0,1026.0,1026.0,602249.5,-14673.0
2025-01-31,0.0,-3762.0,-3762.0,598487.5,-18435.0
2025-02-02,0.0,-8500.0,-8500.0,589987.5,-26935.0
2025-02-03,0.0,7150.0,7150.0,597137.5,-19785.0
2025-02-04,0.0,37.5,37.5,597175.0,-19747.5
2025-02-05,0.0,6175.0,6175.0,603350.0,-13572.5
2025-02-06,0.0,-3225.0,-3225.0,600125.0,-16797.5
2025-02-07,0.0,-5150.0,-5150.0,594975.0,-21947.5
2025-02-09,0.0,887.5,887.5,595862.5,-21060.0
2025-02-10,0.0,275.0,275.0,596137.5,-20785.0
2025-02-11,0.0,2150.0,2150.0,598287.5,-18635.0
2025-02-12,0.0,-1750.0,-1750.0,596537.5,-20385.0
2025-02-13,0.0,4012.5,4012.5,600550.0,-16372.5
2025-02-14,8987.0,-2812.5,6174.5,606724.5,-10198.0
2025-02-16,646.0,487.5,1133.5,607858.0,-9064.5
2025-02-17,684.0,62.5,746.5,608604.5,-8318.0
2025-02-18,2280.0,37.5,2317.5,610922.0,-6000.5
2025-02-19,-2508.0,-887.5,-3395.5,607526.5,-9396.0
2025-02-20,-4256.0,-4400.0,-8656.0,598870.5,-18052.0
2025-02-21,-38152.0,25.0,-38127.0,560743.5,-56179.0
2025-02-23,3135.0,0.0,3135.0,563878.5,-53044.0
2025-02-24,0.0,0.0,0.0,563878.5,-53044.0
2025-02-25,0.0,0.0,0.0,563878.5,-53044.0
2025-02-26,0.0,0.0,0.0,563878.5,-53044.0
2025-02-27,0.0,0.0,0.0,563878.5,-53044.0
2025-02-28,0.0,0.0,0.0,563878.5,-53044.0
2025-03-02,0.0,0.0,0.0,563878.5,-53044.0
2025-03-03,0.0,0.0,0.0,563878.5,-53044.0
2025-03-04,0.0,0.0,0.0,563878.5,-53044.0
2025-03-05,0.0,0.0,0.0,563878.5,-53044.0
2025-03-06,0.0,0.0,0.0,563878.5,-53044.0
2025-03-07,0.0,0.0,0.0,563878.5,-53044.0
2025-03-09,0.0,0.0,0.0,563878.5,-53044.0
2025-03-10,0.0,0.0,0.0,563878.5,-53044.0
2025-03-11,0.0,0.0,0.0,563878.5,-53044.0
2025-03-12,0.0,0.0,0.0,563878.5,-53044.0
2025-03-13,0.0,0.0,0.0,563878.5,-53044.0
2025-03-14,0.0,0.0,0.0,563878.5,-53044.0
2025-03-16,0.0,0.0,0.0,563878.5,-53044.0
2025-03-17,0.0,0.0,0.0,563878.5,-53044.0
2025-03-18,0.0,0.0,0.0,563878.5,-53044.0
2025-03-19,0.0,0.0,0.0,563878.5,-53044.0
2025-03-20,0.0,0.0,0.0,563878.5,-53044.0
2025-03-21,0.0,0.0,0.0,563878.5,-53044.0
2025-03-23,0.0,0.0,0.0,563878.5,-53044.0
2025-03-24,0.0,0.0,0.0,563878.5,-53044.0
2025-03-25,0.0,0.0,0.0,563878.5,-53044.0
2025-03-26,0.0,0.0,0.0,563878.5,-53044.0
2025-03-27,0.0,0.0,0.0,563878.5,-53044.0
2025-03-28,0.0,0.0,0.0,563878.5,-53044.0
2025-03-30,0.0,0.0,0.0,563878.5,-53044.0
2025-03-31,0.0,0.0,0.0,563878.5,-53044.0
2025-04-01,0.0,0.0,0.0,563878.5,-53044.0
2025-04-02,0.0,0.0,0.0,563878.5,-53044.0
2025-04-03,0.0,0.0,0.0,563878.5,-53044.0
2025-04-04,0.0,0.0,0.0,563878.5,-53044.0
2025-04-06,0.0,0.0,0.0,563878.5,-53044.0
2025-04-07,0.0,0.0,0.0,563878.5,-53044.0
2025-04-08,0.0,0.0,0.0,563878.5,-53044.0
2025-04-09,0.0,0.0,0.0,563878.5,-53044.0
2025-04-10,-72656.0,-9414.0,-82070.0,481808.5,-135114.0
2025-04-11,-114.0,27.0,-87.0,481721.5,-135201.0
2025-04-13,0.0,0.0,0.0,481721.5,-135201.0
2025-04-14,0.0,0.0,0.0,481721.5,-135201.0
2025-04-15,0.0,0.0,0.0,481721.5,-135201.0
2025-04-16,0.0,0.0,0.0,481721.5,-135201.0
2025-04-17,0.0,0.0,0.0,481721.5,-135201.0
2025-04-20,0.0,0.0,0.0,481721.5,-135201.0
2025-04-21,0.0,0.0,0.0,481721.5,-135201.0
2025-04-22,0.0,0.0,0.0,481721.5,-135201.0
2025-04-23,0.0,0.0,0.0,481721.5,-135201.0
2025-04-24,0.0,0.0,0.0,481721.5,-135201.0
2025-04-25,10792.0,0.0,10792.0,492513.5,-124409.0
2025-04-27,-7638.0,0.0,-7638.0,484875.5,-132047.0
2025-04-28,5643.0,0.0,5643.0,490518.5,-126404.0
2025-04-29,2641.0,0.0,2641.0,493159.5,-123763.0
2025-04-30,26885.0,0.0,26885.0,520044.5,-96878.0
2025-05-01,-9633.0,1764.0,-7869.0,512175.5,-104747.0
2025-05-02,31179.0,2106.0,33285.0,545460.5,-71462.0
2025-05-04,-8759.0,-2529.0,-11288.0,534172.5,-82750.0
2025-05-05,-5833.0,1242.0,-4591.0,529581.5,-87341.0
2025-05-06,4484.0,-1377.0,3107.0,532688.5,-84234.0
2025-05-07,-8759.0,2700.0,-6059.0,526629.5,-90293.0
2025-05-08,14212.0,315.0,14527.0,541156.5,-75766.0
2025-05-09,607.0,-818.0,-211.0,540945.5,-75977.0
2025-05-11,27585.0,5187.5,32772.5,573718.0,-43204.5
2025-05-12,40995.0,7425.0,48420.0,622138.0,0.0
2025-05-13,34537.5,-1800.0,32737.5,654875.5,0.0
2025-05-14,7492.5,-3512.5,3980.0,658855.5,0.0
2025-05-15,3532.5,5462.5,8995.0,667850.5,0.0
2025-05-16,-945.0,1875.0,930.0,668780.5,0.0
2025-05-18,-2047.5,-1712.5,-3760.0,665020.5,-3760.0
2025-05-19,14242.5,5312.5,19555.0,684575.5,0.0
2025-05-20,-9720.0,-2187.5,-11907.5,672668.0,-11907.5
2025-05-21,-25605.0,-8875.0,-34480.0,638188.0,-46387.5
2025-05-22,2835.0,162.5,2997.5,641185.5,-43390.0
2025-05-23,-20295.0,-3612.5,-23907.5,617278.0,-67297.5
2025-05-25,21195.0,4637.5,25832.5,643110.5,-41465.0
2025-05-26,4252.5,-550.0,3702.5,646813.0,-37762.5
2025-05-27,21105.0,4850.0,25955.0,672768.0,-11807.5
2025-05-28,26595.0,3925.0,30520.0,703288.0,0.0
2025-05-29,-40410.0,-6025.0,-46435.0,656853.0,-46435.0
2025-05-30,4680.0,712.5,5392.5,662245.5,-41042.5
2025-06-01,-5895.0,-1700.0,-7595.0,654650.5,-48637.5
2025-06-02,17212.5,1037.5,18250.0,672900.5,-30387.5
2025-06-03,18945.0,4325.0,23270.0,696170.5,-7117.5
2025-06-04,3240.0,-1125.0,2115.0,698285.5,-5002.5
2025-06-05,-17572.5,125.0,-17447.5,680838.0,-22450.0
2025-06-06,23737.5,4275.0,28012.5,708850.5,0.0
2025-06-08,-4320.0,-1100.0,-5420.0,703430.5,-5420.0
2025-06-09,6322.5,2212.5,8535.0,711965.5,0.0
2025-06-10,11047.5,-1337.5,9710.0,721675.5,0.0
2025-06-11,-10462.5,-712.5,-11175.0,710500.5,-11175.0
2025-06-12,-4905.0,-4300.0,-9205.0,701295.5,-20380.0
2025-06-13,-11700.0,-2950.0,-14650.0,686645.5,-35030.0
2025-06-15,2992.5,4625.0,7617.5,694263.0,-27412.5
2025-06-16,29565.0,2275.0,31840.0,726103.0,0.0
2025-06-17,-9922.5,-2137.5,-12060.0,714043.0,-12060.0
2025-06-18,3892.5,-1225.0,2667.5,716710.5,-9392.5
2025-06-19,-5557.5,-787.5,-6345.0,710365.5,-15737.5
2025-06-20,-1170.0,2187.5,1017.5,711383.0,-14720.0
2025-06-22,-10192.5,-2337.5,-12530.0,698853.0,-27250.0
2025-06-23,42795.0,9237.5,52032.5,750885.5,0.0
2025-06-24,16920.0,3712.5,20632.5,771518.0,0.0
2025-06-25,3667.5,-1000.0,2667.5,774185.5,0.0
2025-06-26,19147.5,5700.0,24847.5,799033.0,0.0
2025-06-27,5625.0,5625.0,11250.0,810283.0,0.0
2025-06-29,6930.0,1550.0,8480.0,818763.0,0.0
2025-06-30,5782.5,-225.0,5557.5,824320.5,0.0
2025-07-01,-15592.5,6450.0,-9142.5,815178.0,-9142.5
2025-07-02,12622.5,-812.5,11810.0,826988.0,0.0
2025-07-03,16762.5,2300.0,19062.5,846050.5,0.0
2025-07-04,-11722.5,-1837.5,-13560.0,832490.5,-13560.0
2025-07-06,7132.5,1675.0,8807.5,841298.0,-4752.5
2025-07-07,-9877.5,-4312.5,-14190.0,827108.0,-18942.5
2025-07-08,2452.5,-2062.5,390.0,827498.0,-18552.5
2025-07-09,12037.5,1837.5,13875.0,841373.0,-4677.5
2025-07-10,855.0,1987.5,2842.5,844215.5,-1835.0
2025-07-11,-9652.5,-2650.0,-12302.5,831913.0,-14137.5
2025-07-13,-6367.5,-1925.0,-8292.5,823620.5,-22430.0
2025-07-14,13050.0,3162.5,16212.5,839833.0,-6217.5
2025-07-15,247.5,-6100.0,-5852.5,833980.5,-12070.0
2025-07-16,2362.5,2700.0,5062.5,839043.0,-7007.5
2025-07-17,21577.5,5137.5,26715.0,865758.0,0.0
2025-07-18,-4635.0,-3275.0,-7910.0,857848.0,-7910.0
2025-07-20,2812.5,450.0,3262.5,861110.5,-4647.5
2025-07-21,7785.0,237.5,8022.5,869133.0,0.0
2025-07-22,-7627.5,2900.0,-4727.5,864405.5,-4727.5
2025-07-23,12532.5,3250.0,15782.5,880188.0,0.0
2025-07-24,472.5,-687.5,-215.0,879973.0,-215.0
2025-07-25,3690.0,712.5,4402.5,884375.5,0.0
2025-07-27,7830.0,2162.5,9992.5,894368.0,0.0
2025-07-28,-517.5,-2587.5,-3105.0,891263.0,-3105.0
2025-07-29,-4837.5,-2537.5,-7375.0,883888.0,-10480.0
2025-07-30,22522.5,-1175.0,21347.5,905235.5,0.0
2025-07-31,-38475.0,-6387.5,-44862.5,860373.0,-44862.5
2025-08-01,67.5,-37.5,30.0,860403.0,-44832.5
2025-08-03,0.0,0.0,0.0,860403.0,-44832.5
2025-08-04,0.0,0.0,0.0,860403.0,-44832.5
2025-08-05,0.0,0.0,0.0,860403.0,-44832.5
2025-08-06,0.0,0.0,0.0,860403.0,-44832.5
2025-08-07,0.0,0.0,0.0,860403.0,-44832.5
2025-08-08,0.0,0.0,0.0,860403.0,-44832.5
2025-08-10,-4522.0,0.0,-4522.0,855881.0,-49354.5
2025-08-11,-57.0,0.0,-57.0,855824.0,-49411.5
2025-08-12,0.0,0.0,0.0,855824.0,-49411.5
2025-08-13,-798.0,0.0,-798.0,855026.0,-50209.5
2025-08-14,-4598.0,0.0,-4598.0,850428.0,-54807.5
2025-08-15,-7011.0,-2475.0,-9486.0,840942.0,-64293.5
2025-08-17,4142.0,54.0,4196.0,845138.0,-60097.5
2025-08-18,-3515.0,0.0,-3515.0,841623.0,-63612.5
2025-08-19,-29089.0,0.0,-29089.0,812534.0,-92701.5
2025-08-20,57.0,0.0,57.0,812591.0,-92644.5
2025-08-21,0.0,0.0,0.0,812591.0,-92644.5
2025-08-22,0.0,0.0,0.0,812591.0,-92644.5
2025-08-24,0.0,-549.0,-549.0,812042.0,-93193.5
2025-08-25,0.0,-3339.0,-3339.0,808703.0,-96532.5
2025-08-26,0.0,2142.0,2142.0,810845.0,-94390.5
2025-08-27,0.0,1746.0,1746.0,812591.0,-92644.5
2025-08-28,0.0,-774.0,-774.0,811817.0,-93418.5
2025-08-29,0.0,-72.0,-72.0,811745.0,-93490.5
2025-08-31,0.0,-279.0,-279.0,811466.0,-93769.5
2025-09-01,0.0,-81.0,-81.0,811385.0,-93850.5
2025-09-02,0.0,-3429.0,-3429.0,807956.0,-97279.5
2025-09-03,0.0,-18.0,-18.0,807938.0,-97297.5
2025-09-04,0.0,0.0,0.0,807938.0,-97297.5
2025-09-05,0.0,-2124.0,-2124.0,805814.0,-99421.5
2025-09-07,0.0,369.0,369.0,806183.0,-99052.5
2025-09-08,2223.0,1062.0,3285.0,809468.0,-95767.5
2025-09-09,5966.0,783.0,6749.0,816217.0,-89018.5
2025-09-10,1140.0,-1251.0,-111.0,816106.0,-89129.5
2025-09-11,9006.0,5202.0,14208.0,830314.0,-74921.5
2025-09-12,7239.0,-2646.0,4593.0,834907.0,-70328.5
2025-09-14,-266.0,3231.0,2965.0,837872.0,-67363.5
2025-09-15,14744.0,639.0,15383.0,853255.0,-51980.5
2025-09-16,18088.0,-1773.0,16315.0,869570.0,-35665.5
2025-09-17,3116.0,3717.0,6833.0,876403.0,-28832.5
2025-09-18,11856.0,549.0,12405.0,888808.0,-16427.5
2025-09-19,9456.5,146.5,9603.0,898411.0,-6824.5
2025-09-21,-900.0,-100.0,-1000.0,897411.0,-7824.5
2025-09-22,13162.5,1525.0,14687.5,912098.5,0.0
2025-09-23,-14107.5,-500.0,-14607.5,897491.0,-14607.5
2025-09-24,-7650.0,-1887.5,-9537.5,887953.5,-24145.0
2025-09-25,-12510.0,-3212.5,-15722.5,872231.0,-39867.5
2025-09-26,9967.5,3537.5,13505.0,885736.0,-26362.5
2025-09-28,4027.5,1425.0,5452.5,891188.5,-20910.0
2025-09-29,4657.5,-862.5,3795.0,894983.5,-17115.0
2025-09-30,562.5,-1312.5,-750.0,894233.5,-17865.0
2025-10-01,17302.5,2675.0,19977.5,914211.0,0.0
2025-10-02,9157.5,2175.0,11332.5,925543.5,0.0
2025-10-03,-12847.5,1925.0,-10922.5,914621.0,-10922.5
2025-10-05,7672.5,1100.0,8772.5,923393.5,-2150.0
2025-10-06,6772.5,-3287.5,3485.0,926878.5,0.0
2025-10-07,-9765.0,512.5,-9252.5,917626.0,-9252.5
2025-10-08,31095.0,-1150.0,29945.0,947571.0,0.0
2025-10-09,-3960.0,-2137.5,-6097.5,941473.5,-6097.5
2025-10-10,45.0,12.5,57.5,941531.0,-6040.0
2025-10-12,0.0,0.0,0.0,941531.0,-6040.0
2025-10-13,0.0,0.0,0.0,941531.0,-6040.0
2025-10-14,0.0,0.0,0.0,941531.0,-6040.0
2025-10-15,0.0,0.0,0.0,941531.0,-6040.0
2025-10-16,0.0,0.0,0.0,941531.0,-6040.0
2025-10-17,0.0,0.0,0.0,941531.0,-6040.0
2025-10-19,0.0,0.0,0.0,941531.0,-6040.0
2025-10-20,0.0,0.0,0.0,941531.0,-6040.0
2025-10-21,0.0,0.0,0.0,941531.0,-6040.0
2025-10-22,0.0,0.0,0.0,941531.0,-6040.0
2025-10-23,0.0,0.0,0.0,941531.0,-6040.0
2025-10-24,0.0,0.0,0.0,941531.0,-6040.0
2025-10-26,0.0,-99.0,-99.0,941432.0,-6139.0
2025-10-27,21109.0,9.0,21118.0,962550.0,0.0
2025-10-28,14383.0,1170.0,15553.0,978103.0,0.0
2025-10-29,3933.0,324.0,4257.0,982360.0,0.0
2025-10-30,-4959.0,-1602.0,-6561.0,975799.0,-6561.0
2025-10-31,-14193.0,252.0,-13941.0,961858.0,-20502.0
2025-11-02,7372.0,387.0,7759.0,969617.0,-12743.0
2025-11-03,-893.0,-4212.0,-5105.0,964512.0,-17848.0
2025-11-04,-42959.0,27.0,-42932.0,921580.0,-60780.0
2025-11-05,38.0,0.0,38.0,921618.0,-60742.0
2025-11-06,-34656.0,0.0,-34656.0,886962.0,-95398.0
2025-11-07,0.0,0.0,0.0,886962.0,-95398.0
2025-11-09,0.0,0.0,0.0,886962.0,-95398.0
2025-11-10,0.0,0.0,0.0,886962.0,-95398.0
2025-11-11,-6973.0,0.0,-6973.0,879989.0,-102371.0
2025-11-12,19.0,3681.0,3700.0,883689.0,-98671.0
2025-11-13,0.0,-8343.0,-8343.0,875346.0,-107014.0
2025-11-14,0.0,27.0,27.0,875373.0,-106987.0
2025-11-16,0.0,0.0,0.0,875373.0,-106987.0
2025-11-17,0.0,0.0,0.0,875373.0,-106987.0
2025-11-18,0.0,0.0,0.0,875373.0,-106987.0
2025-11-19,0.0,0.0,0.0,875373.0,-106987.0
2025-11-20,0.0,0.0,0.0,875373.0,-106987.0
2025-11-21,0.0,0.0,0.0,875373.0,-106987.0
2025-11-23,0.0,0.0,0.0,875373.0,-106987.0
2025-11-24,0.0,0.0,0.0,875373.0,-106987.0
2025-11-25,0.0,0.0,0.0,875373.0,-106987.0
2025-11-26,0.0,0.0,0.0,875373.0,-106987.0
2025-11-27,0.0,0.0,0.0,875373.0,-106987.0
2025-11-28,0.0,0.0,0.0,875373.0,-106987.0
2025-11-30,0.0,0.0,0.0,875373.0,-106987.0
2025-12-01,0.0,0.0,0.0,875373.0,-106987.0
2025-12-02,0.0,0.0,0.0,875373.0,-106987.0
2025-12-03,0.0,0.0,0.0,875373.0,-106987.0
2025-12-04,0.0,-711.0,-711.0,874662.0,-107698.0
2025-12-05,0.0,9.0,9.0,874671.0,-107689.0
2025-12-07,0.0,0.0,0.0,874671.0,-107689.0
2025-12-08,0.0,0.0,0.0,874671.0,-107689.0
2025-12-09,0.0,0.0,0.0,874671.0,-107689.0
2025-12-10,0.0,0.0,0.0,874671.0,-107689.0
2025-12-11,0.0,0.0,0.0,874671.0,-107689.0
2025-12-12,0.0,-2952.0,-2952.0,871719.0,-110641.0
2025-12-14,0.0,4554.0,4554.0,876273.0,-106087.0
2025-12-15,0.0,-2691.0,-2691.0,873582.0,-108778.0
2025-12-16,0.0,-2763.0,-2763.0,870819.0,-111541.0
2025-12-17,0.0,-1836.0,-1836.0,868983.0,-113377.0
2025-12-18,0.0,171.0,171.0,869154.0,-113206.0
2025-12-19,0.0,2313.0,2313.0,871467.0,-110893.0
2025-12-21,0.0,90.0,90.0,871557.0,-110803.0
2025-12-22,0.0,1287.0,1287.0,872844.0,-109516.0
2025-12-23,0.0,720.0,720.0,873564.0,-108796.0
2025-12-24,0.0,2673.0,2673.0,876237.0,-106123.0
2025-12-25,1311.0,135.0,1446.0,877683.0,-104677.0
2025-12-26,-2299.0,-193.0,-2492.0,875191.0,-107169.0
2025-12-28,912.0,-125.0,787.0,875978.0,-106382.0
2025-12-29,0.0,-3000.0,-3000.0,872978.0,-109382.0
2025-12-30,0.0,-1587.5,-1587.5,871390.5,-110969.5
2025-12-31,0.0,-3562.5,-3562.5,867828.0,-114532.0
2026-01-01,0.0,1551.5,1551.5,869379.5,-112980.5
2026-01-02,0.0,2146.0,2146.0,871525.5,-110834.5
2026-01-04,0.0,478.5,478.5,872004.0,-110356.0
2026-01-05,0.0,8903.0,8903.0,880907.0,-101453.0
2026-01-06,0.0,7989.5,7989.5,888896.5,-93463.5
2026-01-07,0.0,-9294.5,-9294.5,879602.0,-102758.0
2026-01-08,0.0,4988.0,4988.0,884590.0,-97770.0
2026-01-09,0.0,3378.5,3378.5,887968.5,-94391.5
2026-01-11,-4515.0,-3697.5,-8212.5,879756.0,-102604.0
2026-01-12,150.5,4654.5,4805.0,884561.0,-97799.0
2026-01-13,-408.5,-7583.5,-7992.0,876569.0,-105791.0
2026-01-14,-24553.0,377.0,-24176.0,852393.0,-129967.0
2026-01-15,0.0,6438.0,6438.0,858831.0,-123529.0
2026-01-16,0.0,-2769.5,-2769.5,856061.5,-126298.5
2026-01-18,0.0,-5495.5,-5495.5,850566.0,-131794.0
2026-01-19,0.0,-1392.0,-1392.0,849174.0,-133186.0
2026-01-20,0.0,-4582.0,-4582.0,844592.0,-137768.0
2026-01-21,0.0,8584.0,8584.0,853176.0,-129184.0
2026-01-22,0.0,3480.0,3480.0,856656.0,-125704.0
2026-01-23,0.0,-6046.5,-6046.5,850609.5,-131750.5
2026-01-25,0.0,-638.0,-638.0,849971.5,-132388.5
2026-01-26,0.0,5539.0,5539.0,855510.5,-126849.5
2026-01-27,0.0,-5394.0,-5394.0,850116.5,-132243.5
2026-01-28,2752.0,-304.5,2447.5,852564.0,-129796.0
2026-01-29,-17028.0,-2117.0,-19145.0,833419.0,-148941.0
2026-01-30,-43.0,43.5,0.5,833419.5,-148940.5
2026-02-01,0.0,-4814.0,-4814.0,828605.5,-153754.5
2026-02-02,0.0,13311.0,13311.0,841916.5,-140443.5
2026-02-03,0.0,-2392.5,-2392.5,839524.0,-142836.0
2026-02-04,0.0,1885.0,1885.0,841409.0,-140951.0
2026-02-05,0.0,-9541.0,-9541.0,831868.0,-150492.0
2026-02-06,0.0,19241.5,19241.5,851109.5,-131250.5
2026-02-08,0.0,1160.0,1160.0,852269.5,-130090.5
2026-02-09,0.0,-652.5,-652.5,851617.0,-130743.0
2026-02-10,0.0,2262.0,2262.0,853879.0,-128481.0
2026-02-11,0.0,-609.0,-609.0,853270.0,-129090.0
2026-02-12,0.0,-12368.5,-12368.5,840901.5,-141458.5
2026-02-13,0.0,391.5,391.5,841293.0,-141067.0
2026-02-15,0.0,1682.0,1682.0,842975.0,-139385.0
2026-02-16,0.0,-3103.0,-3103.0,839872.0,-142488.0
2026-02-17,0.0,3219.0,3219.0,843091.0,-139269.0
2026-02-18,0.0,725.0,725.0,843816.0,-138544.0
2026-02-19,0.0,-2610.0,-2610.0,841206.0,-141154.0
2026-02-20,0.0,2334.5,2334.5,843540.5,-138819.5
2026-02-22,0.0,-4683.5,-4683.5,838857.0,-143503.0
2026-02-23,0.0,-6119.0,-6119.0,832738.0,-149622.0
2026-02-24,0.0,4306.5,4306.5,837044.5,-145315.5
2026-02-25,0.0,3088.5,3088.5,840133.0,-142227.0
2026-02-26,0.0,-2204.0,-2204.0,837929.0,-144431.0
2026-02-27,0.0,-5597.0,-5597.0,832332.0,-150028.0
2026-03-01,0.0,-5669.5,-5669.5,826662.5,-155697.5
2026-03-02,0.0,0.0,0.0,826662.5,-155697.5
2026-03-03,0.0,0.0,0.0,826662.5,-155697.5
2026-03-04,0.0,0.0,0.0,826662.5,-155697.5
2026-03-05,0.0,0.0,0.0,826662.5,-155697.5
2026-03-06,0.0,0.0,0.0,826662.5,-155697.5
2026-03-08,0.0,0.0,0.0,826662.5,-155697.5
