date,mnq_pnl,mym_pnl,combined_pnl,combined_equity,combined_drawdown
2019-05-05,0.0,0.0,0.0,70222.5,0.0
2019-05-06,0.0,0.0,0.0,70222.5,0.0
2019-05-07,0.0,0.0,0.0,70222.5,0.0
2019-05-08,0.0,0.0,0.0,70222.5,0.0
2019-05-09,0.0,0.0,0.0,70222.5,0.0
2019-05-10,0.0,0.0,0.0,70222.5,0.0
2019-05-12,0.0,0.0,0.0,70222.5,0.0
2019-05-13,0.0,0.0,0.0,70222.5,0.0
2019-05-14,0.0,0.0,0.0,70222.5,0.0
2019-05-15,0.0,0.0,0.0,70222.5,0.0
2019-05-16,0.0,0.0,0.0,70222.5,0.0
2019-05-17,0.0,0.0,0.0,70222.5,0.0
2019-05-19,0.0,0.0,0.0,70222.5,0.0
2019-05-20,0.0,0.0,0.0,70222.5,0.0
2019-05-21,0.0,0.0,0.0,70222.5,0.0
2019-05-22,0.0,0.0,0.0,70222.5,0.0
2019-05-23,0.0,0.0,0.0,70222.5,0.0
2019-05-24,0.0,0.0,0.0,70222.5,0.0
2019-05-26,0.0,0.0,0.0,70222.5,0.0
2019-05-27,0.0,0.0,0.0,70222.5,0.0
2019-05-28,0.0,0.0,0.0,70222.5,0.0
2019-05-29,0.0,0.0,0.0,70222.5,0.0
2019-05-30,0.0,0.0,0.0,70222.5,0.0
2019-05-31,0.0,0.0,0.0,70222.5,0.0
2019-06-02,0.0,0.0,0.0,70222.5,0.0
2019-06-03,0.0,0.0,0.0,70222.5,0.0
2019-06-04,0.0,0.0,0.0,70222.5,0.0
2019-06-05,0.0,0.0,0.0,70222.5,0.0
2019-06-06,0.0,106.5,106.5,70329.0,0.0
2019-06-07,0.0,127.5,127.5,70456.5,0.0
2019-06-09,-10.5,18.5,8.0,70464.5,0.0
2019-06-10,0.0,30.5,30.5,70495.0,0.0
2019-06-11,12.5,-39.5,-27.0,70468.0,-27.0
2019-06-12,-48.5,-41.0,-89.5,70378.5,-116.5
2019-06-13,11.5,92.0,103.5,70482.0,-13.0
2019-06-14,-23.0,-14.0,-37.0,70445.0,-50.0
2019-06-16,84.0,63.0,147.0,70592.0,0.0
2019-06-17,73.5,-63.0,10.5,70602.5,0.0
2019-06-18,244.5,386.0,630.5,71233.0,0.0
2019-06-19,84.5,98.0,182.5,71415.5,0.0
2019-06-20,73.0,98.0,171.0,71586.5,0.0
2019-06-21,-79.5,-36.0,-115.5,71471.0,-115.5
2019-06-23,95.0,90.0,185.0,71656.0,0.0
2019-06-24,-45.0,-61.0,-106.0,71550.0,-106.0
2019-06-25,-531.0,-146.0,-677.0,70873.0,-783.0
2019-06-26,110.0,47.0,157.0,71030.0,-626.0
2019-06-27,168.0,-27.0,141.0,71171.0,-485.0
2019-06-28,113.0,159.0,272.0,71443.0,-213.0
2019-06-30,314.0,310.0,624.0,72067.0,0.0
2019-07-01,-100.0,-160.0,-260.0,71807.0,-260.0
2019-07-02,232.0,76.0,308.0,72115.0,0.0
2019-07-03,218.0,382.0,600.0,72715.0,0.0
2019-07-04,57.0,70.0,127.0,72842.0,0.0
2019-07-05,-240.0,-178.0,-418.0,72424.0,-418.0
2019-07-07,-96.0,-144.0,-240.0,72184.0,-658.0
2019-07-08,-390.0,-280.0,-670.0,71514.0,-1328.0
2019-07-09,424.0,164.0,588.0,72102.0,-740.0
2019-07-10,642.0,290.0,932.0,73034.0,0.0
2019-07-11,-44.0,492.0,448.0,73482.0,0.0
2019-07-12,290.0,312.0,602.0,74084.0,0.0
2019-07-14,-48.0,75.0,27.0,74111.0,0.0
2019-07-15,340.0,51.0,391.0,74502.0,0.0
2019-07-16,-424.0,-54.0,-478.0,74024.0,-478.0
2019-07-17,-548.0,-555.0,-1103.0,72921.0,-1581.0
2019-07-18,582.0,474.0,1056.0,73977.0,-525.0
2019-07-19,-1182.0,-693.0,-1875.0,72102.0,-2400.0
2019-07-21,384.0,165.0,549.0,72651.0,-1851.0
2019-07-22,933.0,228.0,1161.0,73812.0,-690.0
2019-07-23,297.0,381.0,678.0,74490.0,-12.0
2019-07-24,759.0,-168.0,591.0,75081.0,0.0
2019-07-25,-288.0,-402.0,-690.0,74391.0,-690.0
2019-07-26,267.0,-50.0,217.0,74608.0,-473.0
2019-07-28,36.0,-72.0,-36.0,74572.0,-509.0
2019-07-29,-96.0,428.0,332.0,74904.0,-177.0
2019-07-30,-246.0,28.0,-218.0,74686.0,-395.0
2019-07-31,-1824.0,-1432.0,-3256.0,71430.0,-3651.0
2019-08-01,-621.0,-8.0,-629.0,70801.0,-4280.0
2019-08-02,12.0,0.0,12.0,70813.0,-4268.0
2019-08-04,0.0,0.0,0.0,70813.0,-4268.0
2019-08-05,0.0,0.0,0.0,70813.0,-4268.0
2019-08-06,0.0,0.0,0.0,70813.0,-4268.0
2019-08-07,0.0,0.0,0.0,70813.0,-4268.0
2019-08-08,0.0,0.0,0.0,70813.0,-4268.0
2019-08-09,0.0,0.0,0.0,70813.0,-4268.0
2019-08-11,0.0,0.0,0.0,70813.0,-4268.0
2019-08-12,0.0,0.0,0.0,70813.0,-4268.0
2019-08-13,0.0,0.0,0.0,70813.0,-4268.0
2019-08-14,0.0,0.0,0.0,70813.0,-4268.0
2019-08-15,0.0,0.0,0.0,70813.0,-4268.0
2019-08-16,0.0,0.0,0.0,70813.0,-4268.0
2019-08-18,0.0,0.0,0.0,70813.0,-4268.0
2019-08-19,0.0,0.0,0.0,70813.0,-4268.0
2019-08-20,0.0,0.0,0.0,70813.0,-4268.0
2019-08-21,0.0,0.0,0.0,70813.0,-4268.0
2019-08-22,0.0,0.0,0.0,70813.0,-4268.0
2019-08-23,0.0,0.0,0.0,70813.0,-4268.0
2019-08-25,0.0,0.0,0.0,70813.0,-4268.0
2019-08-26,0.0,0.0,0.0,70813.0,-4268.0
2019-08-27,0.0,0.0,0.0,70813.0,-4268.0
2019-08-28,0.0,0.0,0.0,70813.0,-4268.0
2019-08-29,0.0,0.0,0.0,70813.0,-4268.0
2019-08-30,0.0,0.0,0.0,70813.0,-4268.0
2019-09-01,0.0,0.0,0.0,70813.0,-4268.0
2019-09-02,0.0,0.0,0.0,70813.0,-4268.0
2019-09-03,0.0,0.0,0.0,70813.0,-4268.0
2019-09-04,0.0,0.0,0.0,70813.0,-4268.0
2019-09-05,0.0,65.0,65.0,70878.0,-4203.0
2019-09-06,-16.0,34.0,18.0,70896.0,-4185.0
2019-09-08,-15.0,4.5,-10.5,70885.5,-4195.5
2019-09-09,0.0,-11.0,-11.0,70874.5,-4206.5
2019-09-10,0.0,37.0,37.0,70911.5,-4169.5
2019-09-11,0.0,191.5,191.5,71103.0,-3978.0
2019-09-12,-37.5,-26.0,-63.5,71039.5,-4041.5
2019-09-13,-44.0,-12.0,-56.0,70983.5,-4097.5
2019-09-15,-144.0,-135.0,-279.0,70704.5,-4376.5
2019-09-16,0.0,-24.0,-24.0,70680.5,-4400.5
2019-09-17,52.0,9.0,61.0,70741.5,-4339.5
2019-09-18,-10.5,-3.0,-13.5,70728.0,-4353.0
2019-09-19,42.0,27.0,69.0,70797.0,-4284.0
2019-09-20,-190.5,-208.0,-398.5,70398.5,-4682.5
2019-09-22,4.0,101.0,105.0,70503.5,-4577.5
2019-09-23,18.0,38.0,56.0,70559.5,-4521.5
2019-09-24,-265.0,-150.0,-415.0,70144.5,-4936.5
2019-09-25,0.0,59.0,59.0,70203.5,-4877.5
2019-09-26,0.0,-92.0,-92.0,70111.5,-4969.5
2019-09-27,0.0,65.0,65.0,70176.5,-4904.5
2019-09-29,0.0,124.0,124.0,70300.5,-4780.5
2019-09-30,0.0,186.0,186.0,70486.5,-4594.5
2019-10-01,0.0,-822.0,-822.0,69664.5,-5416.5
2019-10-02,0.0,0.0,0.0,69664.5,-5416.5
2019-10-03,0.0,0.0,0.0,69664.5,-5416.5
2019-10-04,0.0,0.0,0.0,69664.5,-5416.5
2019-10-06,0.0,0.0,0.0,69664.5,-5416.5
2019-10-07,0.0,0.0,0.0,69664.5,-5416.5
2019-10-08,0.0,0.0,0.0,69664.5,-5416.5
2019-10-09,0.0,0.0,0.0,69664.5,-5416.5
2019-10-10,0.0,0.0,0.0,69664.5,-5416.5
2019-10-11,0.0,0.0,0.0,69664.5,-5416.5
2019-10-13,0.0,0.0,0.0,69664.5,-5416.5
2019-10-14,0.0,0.0,0.0,69664.5,-5416.5
2019-10-15,0.0,0.0,0.0,69664.5,-5416.5
2019-10-16,0.0,-1.5,-1.5,69663.0,-5418.0
2019-10-17,0.0,-1.5,-1.5,69661.5,-5419.5
2019-10-18,0.0,-100.0,-100.0,69561.5,-5519.5
2019-10-20,0.0,-18.5,-18.5,69543.0,-5538.0
2019-10-21,0.0,0.0,0.0,69543.0,-5538.0
2019-10-22,0.0,0.0,0.0,69543.0,-5538.0
2019-10-23,0.0,0.0,0.0,69543.0,-5538.0
2019-10-24,0.0,0.0,0.0,69543.0,-5538.0
2019-10-25,0.0,0.0,0.0,69543.0,-5538.0
2019-10-27,18.0,0.0,18.0,69561.0,-5520.0
2019-10-28,111.5,47.0,158.5,69719.5,-5361.5
2019-10-29,-107.5,-14.0,-121.5,69598.0,-5483.0
2019-10-30,128.5,67.0,195.5,69793.5,-5287.5
2019-10-31,-67.5,-58.5,-126.0,69667.5,-5413.5
2019-11-01,147.0,114.5,261.5,69929.0,-5152.0
2019-11-03,27.5,28.0,55.5,69984.5,-5096.5
2019-11-04,126.0,56.0,182.0,70166.5,-4914.5
2019-11-05,-53.0,-12.0,-65.0,70101.5,-4979.5
2019-11-06,-20.0,1.0,-19.0,70082.5,-4998.5
2019-11-07,68.0,101.5,169.5,70252.0,-4829.0
2019-11-08,69.5,27.5,97.0,70349.0,-4732.0
2019-11-10,-31.0,-91.0,-122.0,70227.0,-4854.0
2019-11-11,-33.0,82.0,49.0,70276.0,-4805.0
2019-11-12,82.0,-48.0,34.0,70310.0,-4771.0
2019-11-13,-1.0,154.0,153.0,70463.0,-4618.0
2019-11-14,29.0,99.0,128.0,70591.0,-4490.0
2019-11-15,209.0,120.0,329.0,70920.0,-4161.0
2019-11-17,-54.0,-13.0,-67.0,70853.0,-4228.0
2019-11-18,70.0,85.0,155.0,71008.0,-4073.0
2019-11-19,-40.0,-175.0,-215.0,70793.0,-4288.0
2019-11-20,-190.0,-124.0,-314.0,70479.0,-4602.0
2019-11-21,-1.0,50.0,49.0,70528.0,-4553.0
2019-11-22,111.0,119.0,230.0,70758.0,-4323.0
2019-11-24,198.0,138.0,336.0,71094.0,-3987.0
2019-11-25,550.0,266.0,816.0,71910.0,-3171.0
2019-11-26,208.0,142.0,350.0,72260.0,-2821.0
2019-11-27,192.0,-126.0,66.0,72326.0,-2755.0
2019-11-28,190.0,-10.0,180.0,72506.0,-2575.0
2019-11-29,-224.0,4.0,-220.0,72286.0,-2795.0
2019-12-01,78.0,180.0,258.0,72544.0,-2537.0
2019-12-02,-1014.0,-650.0,-1664.0,70880.0,-4201.0
2019-12-03,-340.0,-2.0,-342.0,70538.0,-4543.0
2019-12-04,232.0,0.0,232.0,70770.0,-4311.0
2019-12-05,192.0,0.0,192.0,70962.0,-4119.0
2019-12-06,711.0,0.0,711.0,71673.0,-3408.0
2019-12-08,15.0,0.0,15.0,71688.0,-3393.0
2019-12-09,-555.0,0.0,-555.0,71133.0,-3948.0
2019-12-10,33.0,0.0,33.0,71166.0,-3915.0
2019-12-11,645.0,0.0,645.0,71811.0,-3270.0
2019-12-12,1047.0,0.0,1047.0,72858.0,-2223.0
2019-12-13,243.0,-37.5,205.5,73063.5,-2017.5
2019-12-15,159.0,4.0,163.0,73226.5,-1854.5
2019-12-16,759.0,0.0,759.0,73985.5,-1095.5
2019-12-17,54.0,14.0,68.0,74053.5,-1027.5
2019-12-18,225.0,-9.5,215.5,74269.0,-812.0
2019-12-19,696.0,68.0,764.0,75033.0,-48.0
2019-12-20,410.0,36.0,446.0,75479.0,0.0
2019-12-22,192.0,12.5,204.5,75683.5,0.0
2019-12-23,112.0,32.0,144.0,75827.5,0.0
2019-12-24,12.0,-26.0,-14.0,75813.5,-14.0
2019-12-25,4.0,16.5,20.5,75834.0,0.0
2019-12-26,1244.0,65.5,1309.5,77143.5,0.0
2019-12-27,-468.0,-40.0,-508.0,76635.5,-508.0
2019-12-29,304.0,50.0,354.0,76989.5,-154.0
2019-12-30,-1004.0,-181.0,-1185.0,75804.5,-1339.0
2019-12-31,584.0,81.0,665.0,76469.5,-674.0
2020-01-01,72.0,43.0,115.0,76584.5,-559.0
2020-01-02,1964.0,71.0,2035.0,78619.5,0.0
2020-01-03,-1437.0,-59.0,-1496.0,77123.5,-1496.0
2020-01-05,-580.5,-79.0,-659.5,76464.0,-2155.5
2020-01-06,1278.0,189.0,1467.0,77931.0,-688.5
2020-01-07,-1746.0,-366.0,-2112.0,75819.0,-2800.5
2020-01-08,3600.0,448.0,4048.0,79867.0,0.0
2020-01-09,1143.0,203.0,1346.0,81213.0,0.0
2020-01-10,-670.5,-219.0,-889.5,80323.5,-889.5
2020-01-12,166.5,162.0,328.5,80652.0,-561.0
2020-01-13,2115.0,44.0,2159.0,82811.0,0.0
2020-01-14,-1332.0,-24.0,-1356.0,81455.0,-1356.0
2020-01-15,778.5,408.0,1186.5,82641.5,-169.5
2020-01-16,1287.0,420.0,1707.0,84348.5,0.0
2020-01-17,460.0,-6.0,454.0,84802.5,0.0
2020-01-19,270.0,54.0,324.0,85126.5,0.0
2020-01-20,-295.0,-238.0,-533.0,84593.5,-533.0
2020-01-21,165.0,204.0,369.0,84962.5,-164.0
2020-01-22,85.0,-370.0,-285.0,84677.5,-449.0
2020-01-23,1750.0,140.0,1890.0,86567.5,0.0
2020-01-24,-2655.0,-533.0,-3188.0,83379.5,-3188.0
2020-01-26,-2455.0,-696.0,-3151.0,80228.5,-6339.0
2020-01-27,-715.0,9.0,-706.0,79522.5,-7045.0
2020-01-28,2425.0,0.0,2425.0,81947.5,-4620.0
2020-01-29,435.0,0.0,435.0,82382.5,-4185.0
2020-01-30,1925.0,0.0,1925.0,84307.5,-2260.0
2020-01-31,-4110.0,0.0,-4110.0,80197.5,-6370.0
2020-02-02,155.0,0.0,155.0,80352.5,-6215.0
2020-02-03,1390.0,0.0,1390.0,81742.5,-4825.0
2020-02-04,4965.0,0.0,4965.0,86707.5,0.0
2020-02-05,860.0,0.0,860.0,87567.5,0.0
2020-02-06,1715.0,-77.5,1637.5,89205.0,0.0
2020-02-07,-1335.0,0.0,-1335.0,87870.0,-1335.0
2020-02-09,-875.0,0.0,-875.0,86995.0,-2210.0
2020-02-10,3380.0,0.0,3380.0,90375.0,0.0
2020-02-11,320.0,0.0,320.0,90695.0,0.0
2020-02-12,705.0,0.0,705.0,91400.0,0.0
2020-02-13,665.0,0.0,665.0,92065.0,0.0
2020-02-14,420.0,-44.5,375.5,92440.5,0.0
2020-02-16,665.0,-4.5,660.5,93101.0,0.0
2020-02-17,-1225.0,0.0,-1225.0,91876.0,-1225.0
2020-02-18,1230.0,0.0,1230.0,93106.0,0.0
2020-02-19,1615.0,0.0,1615.0,94721.0,0.0
2020-02-20,-3445.0,0.0,-3445.0,91276.0,-3445.0
2020-02-21,-2330.0,0.0,-2330.0,88946.0,-5775.0
2020-02-23,-1810.0,0.0,-1810.0,87136.0,-7585.0
2020-02-24,0.0,0.0,0.0,87136.0,-7585.0
2020-02-25,0.0,0.0,0.0,87136.0,-7585.0
2020-02-26,0.0,0.0,0.0,87136.0,-7585.0
2020-02-27,0.0,0.0,0.0,87136.0,-7585.0
2020-02-28,0.0,0.0,0.0,87136.0,-7585.0
2020-03-01,0.0,0.0,0.0,87136.0,-7585.0
2020-03-02,0.0,0.0,0.0,87136.0,-7585.0
2020-03-03,0.0,0.0,0.0,87136.0,-7585.0
2020-03-04,0.0,0.0,0.0,87136.0,-7585.0
2020-03-05,0.0,0.0,0.0,87136.0,-7585.0
2020-03-06,0.0,0.0,0.0,87136.0,-7585.0
2020-03-08,0.0,0.0,0.0,87136.0,-7585.0
2020-03-09,0.0,0.0,0.0,87136.0,-7585.0
2020-03-10,0.0,0.0,0.0,87136.0,-7585.0
2020-03-11,0.0,0.0,0.0,87136.0,-7585.0
2020-03-12,0.0,0.0,0.0,87136.0,-7585.0
2020-03-13,0.0,0.0,0.0,87136.0,-7585.0
2020-03-15,0.0,0.0,0.0,87136.0,-7585.0
2020-03-16,0.0,0.0,0.0,87136.0,-7585.0
2020-03-17,0.0,0.0,0.0,87136.0,-7585.0
2020-03-18,0.0,0.0,0.0,87136.0,-7585.0
2020-03-19,0.0,0.0,0.0,87136.0,-7585.0
2020-03-20,0.0,0.0,0.0,87136.0,-7585.0
2020-03-22,0.0,0.0,0.0,87136.0,-7585.0
2020-03-23,0.0,0.0,0.0,87136.0,-7585.0
2020-03-24,0.0,0.0,0.0,87136.0,-7585.0
2020-03-25,0.0,0.0,0.0,87136.0,-7585.0
2020-03-26,0.0,0.0,0.0,87136.0,-7585.0
2020-03-27,0.0,0.0,0.0,87136.0,-7585.0
2020-03-29,0.0,0.0,0.0,87136.0,-7585.0
2020-03-30,0.0,0.0,0.0,87136.0,-7585.0
2020-03-31,0.0,0.0,0.0,87136.0,-7585.0
2020-04-01,0.0,0.0,0.0,87136.0,-7585.0
2020-04-02,0.0,0.0,0.0,87136.0,-7585.0
2020-04-03,0.0,0.0,0.0,87136.0,-7585.0
2020-04-05,0.0,0.0,0.0,87136.0,-7585.0
2020-04-06,0.0,0.0,0.0,87136.0,-7585.0
2020-04-07,0.0,80.5,80.5,87216.5,-7504.5
2020-04-08,0.0,384.0,384.0,87600.5,-7120.5
2020-04-09,26.5,205.0,231.5,87832.0,-6889.0
2020-04-12,-243.0,-193.0,-436.0,87396.0,-7325.0
2020-04-13,0.0,163.0,163.0,87559.0,-7162.0
2020-04-14,614.5,68.0,682.5,88241.5,-6479.5
2020-04-15,-281.5,-245.5,-527.0,87714.5,-7006.5
2020-04-16,801.0,487.0,1288.0,89002.5,-5718.5
2020-04-17,-250.5,-46.0,-296.5,88706.0,-6015.0
2020-04-19,-122.0,-1.5,-123.5,88582.5,-6138.5
2020-04-20,-33.5,-436.0,-469.5,88113.0,-6608.0
2020-04-21,-544.5,-154.0,-698.5,87414.5,-7306.5
2020-04-22,317.0,148.0,465.0,87879.5,-6841.5
2020-04-23,-128.5,-7.0,-135.5,87744.0,-6977.0
2020-04-24,418.0,171.5,589.5,88333.5,-6387.5
2020-04-26,-55.0,151.0,96.0,88429.5,-6291.5
2020-04-27,280.0,133.0,413.0,88842.5,-5878.5
2020-04-28,-223.0,329.0,106.0,88948.5,-5772.5
2020-04-29,1293.0,452.0,1745.0,90693.5,-4027.5
2020-04-30,-1011.0,-777.0,-1788.0,88905.5,-5815.5
2020-05-01,-545.0,-339.0,-884.0,88021.5,-6699.5
2020-05-03,-476.0,-109.0,-585.0,87436.5,-7284.5
2020-05-04,963.0,263.0,1226.0,88662.5,-6058.5
2020-05-05,530.0,33.0,563.0,89225.5,-5495.5
2020-05-06,34.0,-140.0,-106.0,89119.5,-5601.5
2020-05-07,706.0,493.0,1199.0,90318.5,-4402.5
2020-05-08,383.0,240.0,623.0,90941.5,-3779.5
2020-05-10,258.0,284.0,542.0,91483.5,-3237.5
2020-05-11,190.0,-976.0,-786.0,90697.5,-4023.5
2020-05-12,-2104.0,-682.0,-2786.0,87911.5,-6809.5
2020-05-13,-22.0,-874.0,-896.0,87015.5,-7705.5
2020-05-14,770.0,732.0,1502.0,88517.5,-6203.5
2020-05-15,96.0,66.0,162.0,88679.5,-6041.5
2020-05-17,360.0,432.0,792.0,89471.5,-5249.5
2020-05-18,1436.0,1332.0,2768.0,92239.5,-2481.5
2020-05-19,-208.0,-288.0,-496.0,91743.5,-2977.5
2020-05-20,1340.0,124.0,1464.0,93207.5,-1513.5
2020-05-21,-664.0,-300.0,-964.0,92243.5,-2477.5
2020-05-22,244.0,534.0,778.0,93021.5,-1699.5
2020-05-24,399.0,141.0,540.0,93561.5,-1159.5
2020-05-25,651.0,999.0,1650.0,95211.5,0.0
2020-05-26,-1389.0,987.0,-402.0,94809.5,-402.0
2020-05-27,573.0,1341.0,1914.0,96723.5,0.0
2020-05-28,-288.0,-843.0,-1131.0,95592.5,-1131.0
2020-05-29,2049.0,474.0,2523.0,98115.5,0.0
2020-05-31,-981.0,-432.0,-1413.0,96702.5,-1413.0
2020-06-01,702.0,9.0,711.0,97413.5,-702.0
2020-06-02,1311.0,1338.0,2649.0,100062.5,0.0
2020-06-03,261.0,1191.0,1452.0,101514.5,0.0
2020-06-04,-936.0,606.0,-330.0,101184.5,-330.0
2020-06-05,2276.0,1987.0,4263.0,105447.5,0.0
2020-06-07,1012.0,304.0,1316.0,106763.5,0.0
2020-06-08,148.0,1548.0,1696.0,108459.5,0.0
2020-06-09,1748.0,-388.0,1360.0,109819.5,0.0
2020-06-10,868.0,-3168.0,-2300.0,107519.5,-2300.0
2020-06-11,-5836.0,-4.0,-5840.0,101679.5,-8140.0
2020-06-12,-584.0,0.0,-584.0,101095.5,-8724.0
2020-06-14,-1664.0,0.0,-1664.0,99431.5,-10388.0
2020-06-15,5232.0,0.0,5232.0,104663.5,-5156.0
2020-06-16,1900.0,0.0,1900.0,106563.5,-3256.0
2020-06-17,-552.0,0.0,-552.0,106011.5,-3808.0
2020-06-18,1140.0,0.0,1140.0,107151.5,-2668.0
2020-06-19,-1663.5,0.0,-1663.5,105488.0,-4331.5
2020-06-21,-351.0,0.0,-351.0,105137.0,-4682.5
2020-06-22,4405.5,0.0,4405.5,109542.5,-277.0
2020-06-23,558.0,0.0,558.0,110100.5,0.0
2020-06-24,-3730.5,0.0,-3730.5,106370.0,-3730.5
2020-06-25,2389.5,0.0,2389.5,108759.5,-1341.0
2020-06-26,-4720.5,0.0,-4720.5,104039.0,-6061.5
2020-06-28,-306.0,0.0,-306.0,103733.0,-6367.5
2020-06-29,2983.5,0.0,2983.5,106716.5,-3384.0
2020-06-30,756.0,0.0,756.0,107472.5,-2628.0
2020-07-01,4225.5,0.0,4225.5,111698.0,0.0
2020-07-02,1449.0,0.0,1449.0,113147.0,0.0
2020-07-03,-445.5,0.0,-445.5,112701.5,-445.5
2020-07-05,1355.0,0.0,1355.0,114056.5,0.0
2020-07-06,4940.0,0.0,4940.0,118996.5,0.0
2020-07-07,-1795.0,0.0,-1795.0,117201.5,-1795.0
2020-07-08,2645.0,0.0,2645.0,119846.5,0.0
2020-07-09,1435.0,0.0,1435.0,121281.5,0.0
2020-07-10,1770.0,0.0,1770.0,123051.5,0.0
2020-07-12,680.0,0.0,680.0,123731.5,0.0
2020-07-13,-4625.0,0.0,-4625.0,119106.5,-4625.0
2020-07-14,1440.0,0.0,1440.0,120546.5,-3185.0
2020-07-15,-1405.0,0.0,-1405.0,119141.5,-4590.0
2020-07-16,-1610.0,0.0,-1610.0,117531.5,-6200.0
2020-07-17,1135.0,0.0,1135.0,118666.5,-5065.0
2020-07-19,480.0,0.0,480.0,119146.5,-4585.0
2020-07-20,6045.0,0.0,6045.0,125191.5,0.0
2020-07-21,-1530.0,0.0,-1530.0,123661.5,-1530.0
2020-07-22,-1005.0,0.0,-1005.0,122656.5,-2535.0
2020-07-23,-4805.0,0.0,-4805.0,117851.5,-7340.0
2020-07-24,-2395.0,0.0,-2395.0,115456.5,-9735.0
2020-07-26,-480.0,0.0,-480.0,114976.5,-10215.0
2020-07-27,5190.0,0.0,5190.0,120166.5,-5025.0
2020-07-28,-2690.0,0.0,-2690.0,117476.5,-7715.0
2020-07-29,2310.0,0.0,2310.0,119786.5,-5405.0
2020-07-30,4520.0,0.0,4520.0,124306.5,-885.0
2020-07-31,200.0,0.0,200.0,124506.5,-685.0
2020-08-02,-75.0,0.0,-75.0,124431.5,-760.0
2020-08-03,2495.0,0.0,2495.0,126926.5,0.0
2020-08-04,745.0,0.0,745.0,127671.5,0.0
2020-08-05,310.0,0.0,310.0,127981.5,0.0
2020-08-06,3265.0,31.0,3296.0,131277.5,0.0
2020-08-07,-2430.0,102.5,-2327.5,128950.0,-2327.5
2020-08-09,-475.0,26.0,-449.0,128501.0,-2776.5
2020-08-10,-665.0,186.0,-479.0,128022.0,-3255.5
2020-08-11,-3025.0,-55.0,-3080.0,124942.0,-6335.5
2020-08-12,4180.0,100.0,4280.0,129222.0,-2055.5
2020-08-13,1470.0,-8.5,1461.5,130683.5,-594.0
2020-08-14,-1190.0,-3.0,-1193.0,129490.5,-1787.0
2020-08-16,315.0,101.0,416.0,129906.5,-1371.0
2020-08-17,2870.0,-138.0,2732.0,132638.5,0.0
2020-08-18,2230.0,-11.0,2219.0,134857.5,0.0
2020-08-19,-2520.0,-274.0,-2794.0,132063.5,-2794.0
2020-08-20,4180.0,261.0,4441.0,136504.5,0.0
2020-08-21,1270.0,119.0,1389.0,137893.5,0.0
2020-08-23,410.0,69.0,479.0,138372.5,0.0
2020-08-24,1265.0,466.0,1731.0,140103.5,0.0
2020-08-25,2000.0,-235.0,1765.0,141868.5,0.0
2020-08-26,4420.0,101.0,4521.0,146389.5,0.0
2020-08-27,30.0,422.0,452.0,146841.5,0.0
2020-08-28,690.0,-109.0,581.0,147422.5,0.0
2020-08-30,880.0,290.0,1170.0,148592.5,0.0
2020-08-31,1550.0,-664.0,886.0,149478.5,0.0
2020-09-01,4705.0,512.0,5217.0,154695.5,0.0
2020-09-02,1225.0,796.0,2021.0,156716.5,0.0
2020-09-03,-5.0,-1662.0,-1667.0,155049.5,-1667.0
2020-09-04,0.0,-396.0,-396.0,154653.5,-2063.0
2020-09-06,0.0,142.0,142.0,154795.5,-1921.0
2020-09-07,0.0,278.0,278.0,155073.5,-1643.0
2020-09-08,0.0,2.0,2.0,155075.5,-1641.0
2020-09-09,0.0,0.0,0.0,155075.5,-1641.0
2020-09-10,0.0,0.0,0.0,155075.5,-1641.0
2020-09-11,0.0,0.0,0.0,155075.5,-1641.0
2020-09-13,0.0,0.0,0.0,155075.5,-1641.0
2020-09-14,0.0,0.0,0.0,155075.5,-1641.0
2020-09-15,0.0,0.0,0.0,155075.5,-1641.0
2020-09-16,0.0,0.0,0.0,155075.5,-1641.0
2020-09-17,0.0,0.0,0.0,155075.5,-1641.0
2020-09-18,0.0,0.0,0.0,155075.5,-1641.0
2020-09-20,0.0,0.0,0.0,155075.5,-1641.0
2020-09-21,0.0,0.0,0.0,155075.5,-1641.0
2020-09-22,0.0,0.0,0.0,155075.5,-1641.0
2020-09-23,0.0,0.0,0.0,155075.5,-1641.0
2020-09-24,0.0,0.0,0.0,155075.5,-1641.0
2020-09-25,0.0,0.0,0.0,155075.5,-1641.0
2020-09-27,0.0,0.0,0.0,155075.5,-1641.0
2020-09-28,0.0,0.0,0.0,155075.5,-1641.0
2020-09-29,0.0,0.0,0.0,155075.5,-1641.0
2020-09-30,0.0,0.0,0.0,155075.5,-1641.0
2020-10-01,0.0,0.0,0.0,155075.5,-1641.0
2020-10-02,0.0,0.0,0.0,155075.5,-1641.0
2020-10-04,0.0,0.0,0.0,155075.5,-1641.0
2020-10-05,0.0,0.0,0.0,155075.5,-1641.0
2020-10-06,0.0,0.0,0.0,155075.5,-1641.0
2020-10-07,0.0,0.0,0.0,155075.5,-1641.0
2020-10-08,0.0,0.0,0.0,155075.5,-1641.0
2020-10-09,0.0,52.5,52.5,155128.0,-1588.5
2020-10-11,0.0,-18.5,-18.5,155109.5,-1607.0
2020-10-12,731.5,90.0,821.5,155931.0,-785.5
2020-10-13,11.0,-19.5,-8.5,155922.5,-794.0
2020-10-14,-307.5,-176.5,-484.0,155438.5,-1278.0
2020-10-15,-91.0,-0.5,-91.5,155347.0,-1369.5
2020-10-16,-244.5,0.0,-244.5,155102.5,-1614.0
2020-10-18,159.5,0.0,159.5,155262.0,-1454.5
2020-10-19,-316.0,-186.0,-502.0,154760.0,-1956.5
2020-10-20,0.5,0.0,0.5,154760.5,-1956.0
2020-10-21,0.0,0.0,0.0,154760.5,-1956.0
2020-10-22,0.0,0.0,0.0,154760.5,-1956.0
2020-10-23,0.0,0.0,0.0,154760.5,-1956.0
2020-10-25,0.0,0.0,0.0,154760.5,-1956.0
2020-10-26,0.0,0.0,0.0,154760.5,-1956.0
2020-10-27,0.0,0.0,0.0,154760.5,-1956.0
2020-10-28,0.0,0.0,0.0,154760.5,-1956.0
2020-10-29,0.0,0.0,0.0,154760.5,-1956.0
2020-10-30,0.0,0.0,0.0,154760.5,-1956.0
2020-11-01,0.0,0.0,0.0,154760.5,-1956.0
2020-11-02,0.0,0.0,0.0,154760.5,-1956.0
2020-11-03,0.0,0.0,0.0,154760.5,-1956.0
2020-11-04,0.0,0.0,0.0,154760.5,-1956.0
2020-11-05,544.5,100.0,644.5,155405.0,-1311.5
2020-11-06,56.0,74.0,130.0,155535.0,-1181.5
2020-11-08,275.5,154.0,429.5,155964.5,-752.0
2020-11-09,-756.5,118.0,-638.5,155326.0,-1390.5
2020-11-10,-513.5,282.0,-231.5,155094.5,-1622.0
2020-11-11,-1.0,-159.0,-160.0,154934.5,-1782.0
2020-11-12,-88.5,-48.0,-136.5,154798.0,-1918.5
2020-11-13,189.5,206.0,395.5,155193.5,-1523.0
2020-11-15,198.5,236.0,434.5,155628.0,-1088.5
2020-11-16,6.5,133.0,139.5,155767.5,-949.0
2020-11-17,-139.0,-113.0,-252.0,155515.5,-1201.0
2020-11-18,-197.5,-302.0,-499.5,155016.0,-1700.5
2020-11-19,114.0,-108.0,6.0,155022.0,-1694.5
2020-11-20,-125.5,-85.0,-210.5,154811.5,-1905.0
2020-11-22,81.0,123.0,204.0,155015.5,-1701.0
2020-11-23,82.0,524.0,606.0,155621.5,-1095.0
2020-11-24,697.0,224.0,921.0,156542.5,-174.0
2020-11-25,214.0,-201.0,13.0,156555.5,-161.0
2020-11-26,-100.0,-49.0,-149.0,156406.5,-310.0
2020-11-27,476.0,94.0,570.0,156976.5,0.0
2020-11-29,173.0,-418.0,-245.0,156731.5,-245.0
2020-11-30,128.0,366.0,494.0,157225.5,0.0
2020-12-01,408.0,-346.0,62.0,157287.5,0.0
2020-12-02,61.0,276.0,337.0,157624.5,0.0
2020-12-03,76.0,318.0,394.0,158018.5,0.0
2020-12-04,104.0,320.0,424.0,158442.5,0.0
2020-12-06,276.0,-18.0,258.0,158700.5,0.0
2020-12-07,244.0,-296.0,-52.0,158648.5,-52.0
2020-12-08,576.0,556.0,1132.0,159780.5,0.0
2020-12-09,-2272.0,-358.0,-2630.0,157150.5,-2630.0
2020-12-10,320.0,-168.0,152.0,157302.5,-2478.0
2020-12-11,-294.0,-80.0,-374.0,156928.5,-2852.0
2020-12-13,400.0,507.0,907.0,157835.5,-1945.0
2020-12-14,504.0,-1005.0,-501.0,157334.5,-2446.0
2020-12-15,924.0,906.0,1830.0,159164.5,-616.0
2020-12-16,702.0,177.0,879.0,160043.5,0.0
2020-12-17,538.0,-105.0,433.0,160476.5,0.0
2020-12-18,426.0,495.0,921.0,161397.5,0.0
2020-12-20,9.0,-456.0,-447.0,160950.5,-447.0
2020-12-21,-573.0,-399.0,-972.0,159978.5,-1419.0
2020-12-22,228.0,-342.0,-114.0,159864.5,-1533.0
2020-12-23,-786.0,648.0,-138.0,159726.5,-1671.0
2020-12-24,591.0,6.0,597.0,160323.5,-1074.0
2020-12-27,363.0,423.0,786.0,161109.5,-288.0
2020-12-28,1410.0,645.0,2055.0,163164.5,0.0
2020-12-29,-87.0,-426.0,-513.0,162651.5,-513.0
2020-12-30,48.0,-6.0,42.0,162693.5,-471.0
2020-12-31,429.0,543.0,972.0,163665.5,0.0
2021-01-03,-574.0,39.0,-535.0,163130.5,-535.0
2021-01-04,-5292.0,-2762.5,-8054.5,155076.0,-8589.5
2021-01-05,3360.0,981.5,4341.5,159417.5,-4248.0
2021-01-06,-3416.0,4023.5,607.5,160025.0,-3640.5
2021-01-07,7434.0,1573.0,9007.0,169032.0,0.0
2021-01-08,5215.0,-403.0,4812.0,173844.0,0.0
2021-01-10,-1176.0,-1449.5,-2625.5,171218.5,-2625.5
2021-01-11,-4494.0,598.0,-3896.0,167322.5,-6521.5
2021-01-12,-707.0,968.5,261.5,167584.0,-6260.0
2021-01-13,2051.0,299.0,2350.0,169934.0,-3910.0
2021-01-14,-1484.0,-1924.0,-3408.0,166526.0,-7318.0
2021-01-15,-4291.0,-1072.5,-5363.5,161162.5,-12681.5
2021-01-17,-497.0,364.0,-133.0,161029.5,-12814.5
2021-01-18,2394.0,1332.5,3726.5,164756.0,-9088.0
2021-01-19,6111.0,-500.5,5610.5,170366.5,-3477.5
2021-01-20,7413.0,2190.5,9603.5,179970.0,0.0
2021-01-21,1939.0,-1020.5,918.5,180888.5,0.0
2021-01-22,-896.0,-565.5,-1461.5,179427.0,-1461.5
2021-01-24,1295.0,578.5,1873.5,181300.5,0.0
2021-01-25,1792.0,-1911.0,-119.0,181181.5,-119.0
2021-01-26,2723.0,429.0,3152.0,184333.5,0.0
2021-01-27,-16275.0,-3978.0,-20253.0,164080.5,-20253.0
2021-01-28,4445.0,507.0,4952.0,169032.5,-15301.0
2021-01-29,7.0,-13.0,-6.0,169026.5,-15307.0
2021-01-31,0.0,0.0,0.0,169026.5,-15307.0
2021-02-01,0.0,0.0,0.0,169026.5,-15307.0
2021-02-02,0.0,0.0,0.0,169026.5,-15307.0
2021-02-03,0.0,0.0,0.0,169026.5,-15307.0
2021-02-04,0.0,0.0,0.0,169026.5,-15307.0
2021-02-05,507.5,0.0,507.5,169534.0,-14799.5
2021-02-07,350.0,122.0,472.0,170006.0,-14327.5
2021-02-08,427.5,144.0,571.5,170577.5,-13756.0
2021-02-09,60.0,208.0,268.0,170845.5,-13488.0
2021-02-10,-337.5,14.0,-323.5,170522.0,-13811.5
2021-02-11,772.5,-114.0,658.5,171180.5,-13153.0
2021-02-12,907.5,200.0,1107.5,172288.0,-12045.5
2021-02-14,40.0,248.0,288.0,172576.0,-11757.5
2021-02-15,322.5,224.0,546.5,173122.5,-11211.0
2021-02-16,-1265.0,-392.0,-1657.0,171465.5,-12868.0
2021-02-17,-285.0,146.0,-139.0,171326.5,-13007.0
2021-02-18,-875.0,-360.0,-1235.0,170091.5,-14242.0
2021-02-19,-610.0,70.0,-540.0,169551.5,-14782.0
2021-02-21,400.0,-84.0,316.0,169867.5,-14466.0
2021-02-22,0.0,752.0,752.0,170619.5,-13714.0
2021-02-23,0.0,-664.0,-664.0,169955.5,-14378.0
2021-02-24,0.0,2328.0,2328.0,172283.5,-12050.0
2021-02-25,0.0,-3024.0,-3024.0,169259.5,-15074.0
2021-02-26,0.0,-1416.0,-1416.0,167843.5,-16490.0
2021-02-28,0.0,296.0,296.0,168139.5,-16194.0
2021-03-01,0.0,0.0,0.0,168139.5,-16194.0
2021-03-02,0.0,104.0,104.0,168243.5,-16090.0
2021-03-03,0.0,-692.0,-692.0,167551.5,-16782.0
2021-03-04,0.0,6.0,6.0,167557.5,-16776.0
2021-03-05,0.0,0.0,0.0,167557.5,-16776.0
2021-03-07,0.0,-176.0,-176.0,167381.5,-16952.0
2021-03-08,0.0,1016.0,1016.0,168397.5,-15936.0
2021-03-09,0.0,-362.0,-362.0,168035.5,-16298.0
2021-03-10,0.0,1222.0,1222.0,169257.5,-15076.0
2021-03-11,0.0,352.0,352.0,169609.5,-14724.0
2021-03-12,0.0,202.0,202.0,169811.5,-14522.0
2021-03-14,0.0,102.0,102.0,169913.5,-14420.0
2021-03-15,0.0,146.0,146.0,170059.5,-14274.0
2021-03-16,0.0,-232.0,-232.0,169827.5,-14506.0
2021-03-17,0.0,566.0,566.0,170393.5,-13940.0
2021-03-18,0.0,-342.0,-342.0,170051.5,-14282.0
2021-03-19,0.0,-802.0,-802.0,169249.5,-15084.0
2021-03-21,0.0,-332.0,-332.0,168917.5,-15416.0
2021-03-22,0.0,632.0,632.0,169549.5,-14784.0
2021-03-23,0.0,-1116.0,-1116.0,168433.5,-15900.0
2021-03-24,0.0,428.0,428.0,168861.5,-15472.0
2021-03-25,0.0,708.0,708.0,169569.5,-14764.0
2021-03-26,0.0,1480.0,1480.0,171049.5,-13284.0
2021-03-28,0.0,-404.0,-404.0,170645.5,-13688.0
2021-03-29,0.0,940.0,940.0,171585.5,-12748.0
2021-03-30,0.0,-580.0,-580.0,171005.5,-13328.0
2021-03-31,0.0,-348.0,-348.0,170657.5,-13676.0
2021-04-01,0.0,684.0,684.0,171341.5,-12992.0
2021-04-02,0.0,752.0,752.0,172093.5,-12240.0
2021-04-04,0.0,260.0,260.0,172353.5,-11980.0
2021-04-05,0.0,474.5,474.5,172828.0,-11505.5
2021-04-06,-215.0,117.0,-98.0,172730.0,-11603.5
2021-04-07,-5.0,221.0,216.0,172946.0,-11387.5
2021-04-08,1635.0,117.0,1752.0,174698.0,-9635.5
2021-04-09,67.5,1553.5,1621.0,176319.0,-8014.5
2021-04-11,-300.0,-338.0,-638.0,175681.0,-8652.5
2021-04-12,385.0,422.5,807.5,176488.5,-7845.0
2021-04-13,1495.0,-780.0,715.0,177203.5,-7130.0
2021-04-14,-1552.5,981.5,-571.0,176632.5,-7701.0
2021-04-15,1987.5,1358.5,3346.0,179978.5,-4355.0
2021-04-16,80.0,1046.5,1126.5,181105.0,-3228.5
2021-04-18,-625.0,-448.5,-1073.5,180031.5,-4302.0
2021-04-19,-1475.0,390.0,-1085.0,178946.5,-5387.0
2021-04-20,-3425.0,-2444.0,-5869.0,173077.5,-11256.0
2021-04-21,2745.0,2015.0,4760.0,177837.5,-6496.0
2021-04-22,-2475.0,-1482.0,-3957.0,173880.5,-10453.0
2021-04-23,2920.0,1040.0,3960.0,177840.5,-6493.0
2021-04-25,95.0,448.5,543.5,178384.0,-5949.5
2021-04-26,2345.0,-500.5,1844.5,180228.5,-4105.0
2021-04-27,-1290.0,-416.0,-1706.0,178522.5,-5811.0
2021-04-28,180.0,-201.5,-21.5,178501.0,-5832.5
2021-04-29,-1125.0,572.0,-553.0,177948.0,-6385.5
2021-04-30,-932.0,-643.5,-1575.5,176372.5,-7961.0
2021-05-02,399.0,630.5,1029.5,177402.0,-6931.5
2021-05-03,-3101.0,416.0,-2685.0,174717.0,-9616.5
2021-05-04,-6846.0,962.0,-5884.0,168833.0,-15500.5
2021-05-05,0.0,52.0,52.0,168885.0,-15448.5
2021-05-06,0.0,2216.5,2216.5,171101.5,-13232.0
2021-05-07,0.0,1566.5,1566.5,172668.0,-11665.5
2021-05-09,205.0,494.0,699.0,173367.0,-10966.5
2021-05-10,2.5,-1254.5,-1252.0,172115.0,-12218.5
2021-05-11,0.0,-4160.0,-4160.0,167955.0,-16378.5
2021-05-12,0.0,-6.5,-6.5,167948.5,-16385.0
2021-05-13,0.0,0.0,0.0,167948.5,-16385.0
2021-05-14,0.0,0.0,0.0,167948.5,-16385.0
2021-05-16,0.0,0.0,0.0,167948.5,-16385.0
2021-05-17,0.0,0.0,0.0,167948.5,-16385.0
2021-05-18,0.0,0.0,0.0,167948.5,-16385.0
2021-05-19,0.0,0.0,0.0,167948.5,-16385.0
2021-05-20,0.0,0.0,0.0,167948.5,-16385.0
2021-05-21,0.0,0.0,0.0,167948.5,-16385.0
2021-05-23,0.0,0.0,0.0,167948.5,-16385.0
2021-05-24,0.0,0.0,0.0,167948.5,-16385.0
2021-05-25,0.0,0.0,0.0,167948.5,-16385.0
2021-05-26,0.0,0.0,0.0,167948.5,-16385.0
2021-05-27,0.0,0.0,0.0,167948.5,-16385.0
2021-05-28,0.0,0.0,0.0,167948.5,-16385.0
2021-05-30,0.0,0.0,0.0,167948.5,-16385.0
2021-05-31,0.0,0.0,0.0,167948.5,-16385.0
2021-06-01,0.0,0.0,0.0,167948.5,-16385.0
2021-06-02,0.0,0.0,0.0,167948.5,-16385.0
2021-06-03,0.0,0.0,0.0,167948.5,-16385.0
2021-06-04,0.0,0.0,0.0,167948.5,-16385.0
2021-06-06,-45.0,0.0,-45.0,167903.5,-16430.0
2021-06-07,-2.5,0.0,-2.5,167901.0,-16432.5
2021-06-08,-55.0,0.0,-55.0,167846.0,-16487.5
2021-06-09,-20.0,0.0,-20.0,167826.0,-16507.5
2021-06-10,1527.5,0.0,1527.5,169353.5,-14980.0
2021-06-11,170.0,0.0,170.0,169523.5,-14810.0
2021-06-13,247.5,0.0,247.5,169771.0,-14562.5
2021-06-14,967.5,0.0,967.5,170738.5,-13595.0
2021-06-15,-750.0,0.0,-750.0,169988.5,-14345.0
2021-06-16,-1447.5,0.0,-1447.5,168541.0,-15792.5
2021-06-17,2890.0,0.0,2890.0,171431.0,-12902.5
2021-06-18,-2020.0,0.0,-2020.0,169411.0,-14922.5
2021-06-20,405.0,0.0,405.0,169816.0,-14517.5
2021-06-21,1935.0,0.0,1935.0,171751.0,-12582.5
2021-06-22,2750.0,0.0,2750.0,174501.0,-9832.5
2021-06-23,275.0,0.0,275.0,174776.0,-9557.5
2021-06-24,1205.0,0.0,1205.0,175981.0,-8352.5
2021-06-25,-305.0,288.0,-17.0,175964.0,-8369.5
2021-06-27,470.0,-52.0,418.0,176382.0,-7951.5
2021-06-28,2740.0,-440.0,2300.0,178682.0,-5651.5
2021-06-29,1920.0,-2.0,1918.0,180600.0,-3733.5
2021-06-30,-545.0,0.0,-545.0,180055.0,-4278.5
2021-07-01,-550.0,178.0,-372.0,179683.0,-4650.5
2021-07-02,3230.0,190.0,3420.0,183103.0,-1230.5
2021-07-04,392.0,-48.0,344.0,183447.0,-886.5
2021-07-05,-7.0,212.0,205.0,183652.0,-681.5
2021-07-06,1414.0,-574.0,840.0,184492.0,0.0
2021-07-07,1274.0,82.0,1356.0,185848.0,0.0
2021-07-08,-3311.0,-536.0,-3847.0,182001.0,-3847.0
2021-07-09,3430.0,6.0,3436.0,185437.0,-411.0
2021-07-11,420.0,-130.0,290.0,185727.0,-121.0
2021-07-12,1407.0,356.0,1763.0,187490.0,0.0
2021-07-13,-973.0,-256.0,-1229.0,186261.0,-1229.0
2021-07-14,1659.0,36.0,1695.0,187956.0,0.0
2021-07-15,-4123.0,216.0,-3907.0,184049.0,-3907.0
2021-07-16,-2415.0,-626.0,-3041.0,181008.0,-6948.0
2021-07-18,-770.0,-288.0,-1058.0,179950.0,-8006.0
2021-07-19,-1491.0,-1026.0,-2517.0,177433.0,-10523.0
2021-07-20,4298.0,-8.0,4290.0,181723.0,-6233.0
2021-07-21,2590.0,638.0,3228.0,184951.0,-3005.0
2021-07-22,3787.0,84.0,3871.0,188822.0,0.0
2021-07-23,3409.0,314.0,3723.0,192545.0,0.0
2021-07-25,798.0,-240.0,558.0,193103.0,0.0
2021-07-26,-266.0,366.0,100.0,193203.0,0.0
2021-07-27,-5355.0,-208.0,-5563.0,187640.0,-5563.0
2021-07-28,1904.0,-106.0,1798.0,189438.0,-3765.0
2021-07-29,-3311.0,94.0,-3217.0,186221.0,-6982.0
2021-07-30,2709.0,116.0,2825.0,189046.0,-4157.0
2021-08-01,966.0,448.0,1414.0,190460.0,-2743.0
2021-08-02,-1134.0,-744.0,-1878.0,188582.0,-4621.0
2021-08-03,1953.0,672.0,2625.0,191207.0,-1996.0
2021-08-04,1477.0,-868.0,609.0,191816.0,-1387.0
2021-08-05,2149.0,668.0,2817.0,194633.0,0.0
2021-08-06,-1897.0,716.0,-1181.0,193452.0,-1181.0
2021-08-08,-1981.0,-188.0,-2169.0,191283.0,-3350.0
2021-08-09,2709.0,-436.0,2273.0,193556.0,-1077.0
2021-08-10,-2331.0,800.0,-1531.0,192025.0,-2608.0
2021-08-11,-1113.0,1008.0,-105.0,191920.0,-2713.0
2021-08-12,2016.0,56.0,2072.0,193992.0,-641.0
2021-08-13,1568.0,-3.5,1564.5,195556.5,0.0
2021-08-15,-273.0,-747.5,-1020.5,194536.0,-1020.5
2021-08-16,462.0,949.0,1411.0,195947.0,0.0
2021-08-17,-4858.0,-1111.5,-5969.5,189977.5,-5969.5
2021-08-18,-3122.0,-2541.5,-5663.5,184314.0,-11633.0
2021-08-19,1995.0,-598.0,1397.0,185711.0,-10236.0
2021-08-20,4991.0,1807.0,6798.0,192509.0,-3438.0
2021-08-22,343.0,864.5,1207.5,193716.5,-2230.5
2021-08-23,6223.0,1007.5,7230.5,200947.0,0.0
2021-08-24,791.0,-507.0,284.0,201231.0,0.0
2021-08-25,112.0,364.0,476.0,201707.0,0.0
2021-08-26,-2338.0,-773.5,-3111.5,198595.5,-3111.5
2021-08-27,4193.0,1332.5,5525.5,204121.0,0.0
2021-08-29,686.0,110.5,796.5,204917.5,0.0
2021-08-30,4081.0,-201.5,3879.5,208797.0,0.0
2021-08-31,-35.0,208.0,173.0,208970.0,0.0
2021-09-01,602.0,-1196.0,-594.0,208376.0,-594.0
2021-09-02,-602.0,1514.5,912.5,209288.5,0.0
2021-09-03,1582.0,-903.5,678.5,209967.0,0.0
2021-09-05,-91.0,58.5,-32.5,209934.5,-32.5
2021-09-06,1092.0,344.5,1436.5,211371.0,0.0
2021-09-07,-763.0,-2086.5,-2849.5,208521.5,-2849.5
2021-09-08,-1736.0,-1085.5,-2821.5,205700.0,-5671.0
2021-09-09,-1008.0,286.0,-722.0,204978.0,-6393.0
2021-09-10,-3535.0,-767.0,-4302.0,200676.0,-10695.0
2021-09-12,1309.0,0.0,1309.0,201985.0,-9386.0
2021-09-13,-1099.0,0.0,-1099.0,200886.0,-10485.0
2021-09-14,-1071.0,0.0,-1071.0,199815.0,-11556.0
2021-09-15,2653.0,0.0,2653.0,202468.0,-8903.0
2021-09-16,-567.0,0.0,-567.0,201901.0,-9470.0
2021-09-17,0.0,0.0,0.0,201901.0,-9470.0
2021-09-19,0.0,0.0,0.0,201901.0,-9470.0
2021-09-20,0.0,0.0,0.0,201901.0,-9470.0
2021-09-21,0.0,0.0,0.0,201901.0,-9470.0
2021-09-22,0.0,0.0,0.0,201901.0,-9470.0
2021-09-23,0.0,0.0,0.0,201901.0,-9470.0
2021-09-24,0.0,0.0,0.0,201901.0,-9470.0
2021-09-26,0.0,0.0,0.0,201901.0,-9470.0
2021-09-27,0.0,0.0,0.0,201901.0,-9470.0
2021-09-28,0.0,0.0,0.0,201901.0,-9470.0
2021-09-29,0.0,0.0,0.0,201901.0,-9470.0
2021-09-30,0.0,0.0,0.0,201901.0,-9470.0
2021-10-01,0.0,0.0,0.0,201901.0,-9470.0
2021-10-03,0.0,0.0,0.0,201901.0,-9470.0
2021-10-04,0.0,0.0,0.0,201901.0,-9470.0
2021-10-05,0.0,0.0,0.0,201901.0,-9470.0
2021-10-06,0.0,0.0,0.0,201901.0,-9470.0
2021-10-07,0.0,0.0,0.0,201901.0,-9470.0
2021-10-08,0.0,0.0,0.0,201901.0,-9470.0
2021-10-10,0.0,0.0,0.0,201901.0,-9470.0
2021-10-11,0.0,0.0,0.0,201901.0,-9470.0
2021-10-12,0.0,0.0,0.0,201901.0,-9470.0
2021-10-13,0.0,0.0,0.0,201901.0,-9470.0
2021-10-14,0.0,0.0,0.0,201901.0,-9470.0
2021-10-15,0.0,600.0,600.0,202501.0,-8870.0
2021-10-17,0.0,-8.0,-8.0,202493.0,-8878.0
2021-10-18,0.0,-134.0,-134.0,202359.0,-9012.0
2021-10-19,1170.0,434.0,1604.0,203963.0,-7408.0
2021-10-20,-740.0,196.0,-544.0,203419.0,-7952.0
2021-10-21,565.0,166.0,731.0,204150.0,-7221.0
2021-10-22,-677.5,-50.0,-727.5,203422.5,-7948.5
2021-10-24,-177.5,138.0,-39.5,203383.0,-7988.0
2021-10-25,2327.5,210.0,2537.5,205920.5,-5450.5
2021-10-26,210.0,-56.0,154.0,206074.5,-5296.5
2021-10-27,662.5,-396.0,266.5,206341.0,-5030.0
2021-10-28,460.0,290.0,750.0,207091.0,-4280.0
2021-10-29,2645.0,420.0,3065.0,210156.0,-1215.0
2021-10-31,230.0,168.0,398.0,210554.0,-817.0
2021-11-01,-85.0,-252.0,-337.0,210217.0,-1154.0
2021-11-02,1330.0,692.0,2022.0,212239.0,0.0
2021-11-03,4865.0,464.0,5329.0,217568.0,0.0
2021-11-04,3085.0,-92.0,2993.0,220561.0,0.0
2021-11-05,60.0,728.0,788.0,221349.0,0.0
2021-11-07,-620.0,48.0,-572.0,220777.0,-572.0
2021-11-08,-30.0,152.0,122.0,220899.0,-450.0
2021-11-09,-2500.0,-532.0,-3032.0,217867.0,-3482.0
2021-11-10,-3905.0,-520.0,-4425.0,213442.0,-7907.0
2021-11-11,1480.0,-300.0,1180.0,214622.0,-6727.0
2021-11-12,2909.0,630.5,3539.5,218161.5,-3187.5
2021-11-14,686.0,-117.0,569.0,218730.5,-2618.5
2021-11-15,-1022.0,0.0,-1022.0,217708.5,-3640.5
2021-11-16,3234.0,370.5,3604.5,221313.0,-36.0
2021-11-17,679.0,-1280.5,-601.5,220711.5,-637.5
2021-11-18,4662.0,403.0,5065.0,225776.5,0.0
2021-11-19,2583.0,-2242.5,340.5,226117.0,0.0
2021-11-21,14.0,487.5,501.5,226618.5,0.0
2021-11-22,-5376.0,-357.5,-5733.5,220885.0,-5733.5
2021-11-23,-3087.0,539.5,-2547.5,218337.5,-8281.0
2021-11-24,1995.0,1170.0,3165.0,221502.5,-5116.0
2021-11-25,371.0,6.5,377.5,221880.0,-4738.5
2021-11-26,-21.0,0.0,-21.0,221859.0,-4759.5
2021-11-28,0.0,0.0,0.0,221859.0,-4759.5
2021-11-29,0.0,0.0,0.0,221859.0,-4759.5
2021-11-30,0.0,0.0,0.0,221859.0,-4759.5
2021-12-01,0.0,0.0,0.0,221859.0,-4759.5
2021-12-02,0.0,0.0,0.0,221859.0,-4759.5
2021-12-03,0.0,0.0,0.0,221859.0,-4759.5
2021-12-05,0.0,0.0,0.0,221859.0,-4759.5
2021-12-06,0.0,0.0,0.0,221859.0,-4759.5
2021-12-07,0.0,0.0,0.0,221859.0,-4759.5
2021-12-08,0.0,-246.0,-246.0,221613.0,-5005.5
2021-12-09,0.0,-2.0,-2.0,221611.0,-5007.5
2021-12-10,0.0,0.0,0.0,221611.0,-5007.5
2021-12-12,0.0,238.0,238.0,221849.0,-4769.5
2021-12-13,0.0,-832.0,-832.0,221017.0,-5601.5
2021-12-14,0.0,-4.0,-4.0,221013.0,-5605.5
2021-12-15,0.0,0.0,0.0,221013.0,-5605.5
2021-12-16,0.0,-202.0,-202.0,220811.0,-5807.5
2021-12-17,0.0,2.0,2.0,220813.0,-5805.5
2021-12-19,0.0,0.0,0.0,220813.0,-5805.5
2021-12-20,0.0,0.0,0.0,220813.0,-5805.5
2021-12-21,0.0,0.0,0.0,220813.0,-5805.5
2021-12-22,0.0,0.0,0.0,220813.0,-5805.5
2021-12-23,0.0,0.0,0.0,220813.0,-5805.5
2021-12-26,0.0,-24.0,-24.0,220789.0,-5829.5
2021-12-27,0.0,626.0,626.0,221415.0,-5203.5
2021-12-28,-157.5,302.0,144.5,221559.5,-5059.0
2021-12-29,-5.0,140.0,135.0,221694.5,-4924.0
2021-12-30,0.0,-288.0,-288.0,221406.5,-5212.0
2021-12-31,0.0,68.0,68.0,221474.5,-5144.0
2022-01-02,0.0,225.0,225.0,221699.5,-4919.0
2022-01-03,0.0,395.0,395.0,222094.5,-4524.0
2022-01-04,0.0,240.0,240.0,222334.5,-4284.0
2022-01-05,0.0,-1057.5,-1057.5,221277.0,-5341.5
2022-01-06,0.0,52.5,52.5,221329.5,-5289.0
2022-01-07,0.0,-287.5,-287.5,221042.0,-5576.5
2022-01-09,0.0,-65.0,-65.0,220977.0,-5641.5
2022-01-10,0.0,-790.0,-790.0,220187.0,-6431.5
2022-01-11,0.0,1085.0,1085.0,221272.0,-5346.5
2022-01-12,0.0,-220.0,-220.0,221052.0,-5566.5
2022-01-13,0.0,-540.0,-540.0,220512.0,-6106.5
2022-01-14,0.0,-915.0,-915.0,219597.0,-7021.5
2022-01-16,0.0,-465.0,-465.0,219132.0,-7486.5
2022-01-17,0.0,-5.0,-5.0,219127.0,-7491.5
2022-01-18,0.0,0.0,0.0,219127.0,-7491.5
2022-01-19,0.0,0.0,0.0,219127.0,-7491.5
2022-01-20,0.0,0.0,0.0,219127.0,-7491.5
2022-01-21,0.0,0.0,0.0,219127.0,-7491.5
2022-01-23,0.0,0.0,0.0,219127.0,-7491.5
2022-01-24,0.0,0.0,0.0,219127.0,-7491.5
2022-01-25,0.0,0.0,0.0,219127.0,-7491.5
2022-01-26,0.0,0.0,0.0,219127.0,-7491.5
2022-01-27,0.0,0.0,0.0,219127.0,-7491.5
2022-01-28,0.0,0.0,0.0,219127.0,-7491.5
2022-01-30,0.0,0.0,0.0,219127.0,-7491.5
2022-01-31,0.0,0.0,0.0,219127.0,-7491.5
2022-02-01,0.0,0.0,0.0,219127.0,-7491.5
2022-02-02,0.0,0.0,0.0,219127.0,-7491.5
2022-02-03,0.0,-777.5,-777.5,218349.5,-8269.0
2022-02-04,0.0,-2.5,-2.5,218347.0,-8271.5
2022-02-06,0.0,0.0,0.0,218347.0,-8271.5
2022-02-07,0.0,0.0,0.0,218347.0,-8271.5
2022-02-08,0.0,0.0,0.0,218347.0,-8271.5
2022-02-09,0.0,407.5,407.5,218754.5,-7864.0
2022-02-10,0.0,-1807.5,-1807.5,216947.0,-9671.5
2022-02-11,0.0,2.5,2.5,216949.5,-9669.0
2022-02-13,0.0,0.0,0.0,216949.5,-9669.0
2022-02-14,0.0,0.0,0.0,216949.5,-9669.0
2022-02-15,0.0,0.0,0.0,216949.5,-9669.0
2022-02-16,0.0,0.0,0.0,216949.5,-9669.0
2022-02-17,0.0,0.0,0.0,216949.5,-9669.0
2022-02-18,0.0,0.0,0.0,216949.5,-9669.0
2022-02-20,0.0,0.0,0.0,216949.5,-9669.0
2022-02-21,0.0,0.0,0.0,216949.5,-9669.0
2022-02-22,0.0,0.0,0.0,216949.5,-9669.0
2022-02-23,0.0,0.0,0.0,216949.5,-9669.0
2022-02-24,0.0,0.0,0.0,216949.5,-9669.0
2022-02-25,0.0,0.0,0.0,216949.5,-9669.0
2022-02-27,0.0,0.0,0.0,216949.5,-9669.0
2022-02-28,0.0,0.0,0.0,216949.5,-9669.0
2022-03-01,0.0,0.0,0.0,216949.5,-9669.0
2022-03-02,0.0,0.0,0.0,216949.5,-9669.0
2022-03-03,0.0,0.0,0.0,216949.5,-9669.0
2022-03-04,0.0,0.0,0.0,216949.5,-9669.0
2022-03-06,0.0,0.0,0.0,216949.5,-9669.0
2022-03-07,0.0,0.0,0.0,216949.5,-9669.0
2022-03-08,0.0,0.0,0.0,216949.5,-9669.0
2022-03-09,0.0,0.0,0.0,216949.5,-9669.0
2022-03-10,0.0,0.0,0.0,216949.5,-9669.0
2022-03-11,0.0,0.0,0.0,216949.5,-9669.0
2022-03-13,0.0,0.0,0.0,216949.5,-9669.0
2022-03-14,0.0,0.0,0.0,216949.5,-9669.0
2022-03-15,0.0,0.0,0.0,216949.5,-9669.0
2022-03-16,0.0,0.0,0.0,216949.5,-9669.0
2022-03-17,0.0,0.0,0.0,216949.5,-9669.0
2022-03-18,0.0,0.0,0.0,216949.5,-9669.0
2022-03-20,0.0,0.0,0.0,216949.5,-9669.0
2022-03-21,0.0,0.0,0.0,216949.5,-9669.0
2022-03-22,0.0,0.0,0.0,216949.5,-9669.0
2022-03-23,-3456.0,0.0,-3456.0,213493.5,-13125.0
2022-03-24,9.0,0.0,9.0,213502.5,-13116.0
2022-03-25,40.5,0.0,40.5,213543.0,-13075.5
2022-03-27,-567.0,0.0,-567.0,212976.0,-13642.5
2022-03-28,4536.0,0.0,4536.0,217512.0,-9106.5
2022-03-29,4473.0,657.5,5130.5,222642.5,-3976.0
2022-03-30,-2119.5,22.5,-2097.0,220545.5,-6073.0
2022-03-31,-3442.5,-1040.0,-4482.5,216063.0,-10555.5
2022-04-01,-1066.5,-5.0,-1071.5,214991.5,-11627.0
2022-04-03,-621.0,0.0,-621.0,214370.5,-12248.0
2022-04-04,5998.5,0.0,5998.5,220369.0,-6249.5
2022-04-05,-5710.5,0.0,-5710.5,214658.5,-11960.0
2022-04-06,-6952.5,0.0,-6952.5,207706.0,-18912.5
2022-04-07,-4.5,0.0,-4.5,207701.5,-18917.0
2022-04-08,0.0,0.0,0.0,207701.5,-18917.0
2022-04-10,0.0,0.0,0.0,207701.5,-18917.0
2022-04-11,0.0,0.0,0.0,207701.5,-18917.0
2022-04-12,0.0,0.0,0.0,207701.5,-18917.0
2022-04-13,0.0,0.0,0.0,207701.5,-18917.0
2022-04-14,0.0,0.0,0.0,207701.5,-18917.0
2022-04-17,0.0,0.0,0.0,207701.5,-18917.0
2022-04-18,0.0,0.0,0.0,207701.5,-18917.0
2022-04-19,0.0,0.0,0.0,207701.5,-18917.0
2022-04-20,0.0,0.0,0.0,207701.5,-18917.0
2022-04-21,0.0,-1445.0,-1445.0,206256.5,-20362.0
2022-04-22,0.0,2.5,2.5,206259.0,-20359.5
2022-04-24,0.0,0.0,0.0,206259.0,-20359.5
2022-04-25,0.0,0.0,0.0,206259.0,-20359.5
2022-04-26,0.0,0.0,0.0,206259.0,-20359.5
2022-04-27,0.0,0.0,0.0,206259.0,-20359.5
2022-04-28,0.0,0.0,0.0,206259.0,-20359.5
2022-04-29,0.0,0.0,0.0,206259.0,-20359.5
2022-05-01,0.0,0.0,0.0,206259.0,-20359.5
2022-05-02,0.0,0.0,0.0,206259.0,-20359.5
2022-05-03,0.0,0.0,0.0,206259.0,-20359.5
2022-05-04,0.0,0.0,0.0,206259.0,-20359.5
2022-05-05,0.0,0.0,0.0,206259.0,-20359.5
2022-05-06,0.0,0.0,0.0,206259.0,-20359.5
2022-05-08,0.0,0.0,0.0,206259.0,-20359.5
2022-05-09,0.0,0.0,0.0,206259.0,-20359.5
2022-05-10,0.0,0.0,0.0,206259.0,-20359.5
2022-05-11,0.0,0.0,0.0,206259.0,-20359.5
2022-05-12,0.0,0.0,0.0,206259.0,-20359.5
2022-05-13,0.0,0.0,0.0,206259.0,-20359.5
2022-05-15,0.0,0.0,0.0,206259.0,-20359.5
2022-05-16,0.0,0.0,0.0,206259.0,-20359.5
2022-05-17,0.0,0.0,0.0,206259.0,-20359.5
2022-05-18,0.0,0.0,0.0,206259.0,-20359.5
2022-05-19,0.0,0.0,0.0,206259.0,-20359.5
2022-05-20,0.0,0.0,0.0,206259.0,-20359.5
2022-05-22,0.0,0.0,0.0,206259.0,-20359.5
2022-05-23,0.0,0.0,0.0,206259.0,-20359.5
2022-05-24,0.0,0.0,0.0,206259.0,-20359.5
2022-05-25,0.0,0.0,0.0,206259.0,-20359.5
2022-05-26,0.0,0.0,0.0,206259.0,-20359.5
2022-05-27,0.0,0.0,0.0,206259.0,-20359.5
2022-05-29,0.0,15.0,15.0,206274.0,-20344.5
2022-05-30,0.0,-90.0,-90.0,206184.0,-20434.5
2022-05-31,0.0,2.5,2.5,206186.5,-20432.0
2022-06-01,0.0,0.0,0.0,206186.5,-20432.0
2022-06-02,0.0,0.0,0.0,206186.5,-20432.0
2022-06-03,-6687.0,-825.0,-7512.0,198674.5,-27944.0
2022-06-05,-36.0,100.0,64.0,198738.5,-27880.0
2022-06-06,0.0,0.0,0.0,198738.5,-27880.0
2022-06-07,0.0,0.0,0.0,198738.5,-27880.0
2022-06-08,0.0,0.0,0.0,198738.5,-27880.0
2022-06-09,0.0,0.0,0.0,198738.5,-27880.0
2022-06-10,0.0,0.0,0.0,198738.5,-27880.0
2022-06-12,0.0,0.0,0.0,198738.5,-27880.0
2022-06-13,0.0,0.0,0.0,198738.5,-27880.0
2022-06-14,0.0,0.0,0.0,198738.5,-27880.0
2022-06-15,0.0,0.0,0.0,198738.5,-27880.0
2022-06-16,0.0,0.0,0.0,198738.5,-27880.0
2022-06-17,0.0,0.0,0.0,198738.5,-27880.0
2022-06-19,0.0,0.0,0.0,198738.5,-27880.0
2022-06-20,0.0,0.0,0.0,198738.5,-27880.0
2022-06-21,0.0,0.0,0.0,198738.5,-27880.0
2022-06-22,0.0,0.0,0.0,198738.5,-27880.0
2022-06-23,0.0,0.0,0.0,198738.5,-27880.0
2022-06-24,0.0,0.0,0.0,198738.5,-27880.0
2022-06-26,0.0,0.0,0.0,198738.5,-27880.0
2022-06-27,0.0,0.0,0.0,198738.5,-27880.0
2022-06-28,0.0,0.0,0.0,198738.5,-27880.0
2022-06-29,0.0,0.0,0.0,198738.5,-27880.0
2022-06-30,0.0,0.0,0.0,198738.5,-27880.0
2022-07-01,0.0,0.0,0.0,198738.5,-27880.0
2022-07-03,0.0,0.0,0.0,198738.5,-27880.0
2022-07-04,0.0,0.0,0.0,198738.5,-27880.0
2022-07-05,0.0,0.0,0.0,198738.5,-27880.0
2022-07-06,0.0,0.0,0.0,198738.5,-27880.0
2022-07-07,0.0,0.0,0.0,198738.5,-27880.0
2022-07-08,0.0,0.0,0.0,198738.5,-27880.0
2022-07-10,0.0,0.0,0.0,198738.5,-27880.0
2022-07-11,0.0,0.0,0.0,198738.5,-27880.0
2022-07-12,0.0,0.0,0.0,198738.5,-27880.0
2022-07-13,0.0,0.0,0.0,198738.5,-27880.0
2022-07-14,0.0,0.0,0.0,198738.5,-27880.0
2022-07-15,0.0,0.0,0.0,198738.5,-27880.0
2022-07-17,0.0,0.0,0.0,198738.5,-27880.0
2022-07-18,0.0,0.0,0.0,198738.5,-27880.0
2022-07-19,0.0,0.0,0.0,198738.5,-27880.0
2022-07-20,0.0,-345.0,-345.0,198393.5,-28225.0
2022-07-21,2020.5,-5.0,2015.5,200409.0,-26209.5
2022-07-22,-2173.5,-277.5,-2451.0,197958.0,-28660.5
2022-07-24,234.0,40.0,274.0,198232.0,-28386.5
2022-07-25,0.0,0.0,0.0,198232.0,-28386.5
2022-07-26,0.0,0.0,0.0,198232.0,-28386.5
2022-07-27,0.0,0.0,0.0,198232.0,-28386.5
2022-07-28,5688.0,952.5,6640.5,204872.5,-21746.0
2022-07-29,1471.5,777.5,2249.0,207121.5,-19497.0
2022-07-31,-994.5,-342.5,-1337.0,205784.5,-20834.0
2022-08-01,567.0,-12.5,554.5,206339.0,-20279.5
2022-08-02,-859.5,-577.5,-1437.0,204902.0,-21716.5
2022-08-03,5962.5,790.0,6752.5,211654.5,-14964.0
2022-08-04,1782.0,40.0,1822.0,213476.5,-13142.0
2022-08-05,-2236.5,-217.5,-2454.0,211022.5,-15596.0
2022-08-07,-1332.0,25.0,-1307.0,209715.5,-16903.0
2022-08-08,1548.0,770.0,2318.0,212033.5,-14585.0
2022-08-09,-6048.0,-735.0,-6783.0,205250.5,-21368.0
2022-08-10,12465.0,3165.0,15630.0,220880.5,-5738.0
2022-08-11,-2277.0,-95.0,-2372.0,218508.5,-8110.0
2022-08-12,8811.0,1880.0,10691.0,229199.5,0.0
2022-08-14,-1449.0,-340.0,-1789.0,227410.5,-1789.0
2022-08-15,5076.0,1115.0,6191.0,233601.5,0.0
2022-08-16,-1053.0,1265.0,212.0,233813.5,0.0
2022-08-17,-7074.0,-915.0,-7989.0,225824.5,-7989.0
2022-08-18,2583.0,-25.0,2558.0,228382.5,-5431.0
2022-08-19,-9990.0,-1195.0,-11185.0,217197.5,-16616.0
2022-08-21,-2241.0,-840.0,-3081.0,214116.5,-19697.0
2022-08-22,-8343.0,-3318.0,-11661.0,202455.5,-31358.0
2022-08-23,-2169.0,7.0,-2162.0,200293.5,-33520.0
2022-08-24,1404.0,0.0,1404.0,201697.5,-32116.0
2022-08-25,7560.0,0.0,7560.0,209257.5,-24556.0
2022-08-26,18.0,0.0,18.0,209275.5,-24538.0
2022-08-28,0.0,0.0,0.0,209275.5,-24538.0
2022-08-29,0.0,0.0,0.0,209275.5,-24538.0
2022-08-30,0.0,0.0,0.0,209275.5,-24538.0
2022-08-31,0.0,0.0,0.0,209275.5,-24538.0
2022-09-01,0.0,0.0,0.0,209275.5,-24538.0
2022-09-02,0.0,0.0,0.0,209275.5,-24538.0
2022-09-04,0.0,0.0,0.0,209275.5,-24538.0
2022-09-05,0.0,0.0,0.0,209275.5,-24538.0
2022-09-06,0.0,0.0,0.0,209275.5,-24538.0
2022-09-07,0.0,0.0,0.0,209275.5,-24538.0
2022-09-08,0.0,0.0,0.0,209275.5,-24538.0
2022-09-09,0.0,0.0,0.0,209275.5,-24538.0
2022-09-11,0.0,0.0,0.0,209275.5,-24538.0
2022-09-12,0.0,0.0,0.0,209275.5,-24538.0
2022-09-13,0.0,0.0,0.0,209275.5,-24538.0
2022-09-14,0.0,0.0,0.0,209275.5,-24538.0
2022-09-15,0.0,0.0,0.0,209275.5,-24538.0
2022-09-16,0.0,0.0,0.0,209275.5,-24538.0
2022-09-18,0.0,0.0,0.0,209275.5,-24538.0
2022-09-19,0.0,0.0,0.0,209275.5,-24538.0
2022-09-20,0.0,0.0,0.0,209275.5,-24538.0
2022-09-21,0.0,0.0,0.0,209275.5,-24538.0
2022-09-22,0.0,0.0,0.0,209275.5,-24538.0
2022-09-23,0.0,0.0,0.0,209275.5,-24538.0
2022-09-25,0.0,0.0,0.0,209275.5,-24538.0
2022-09-26,0.0,0.0,0.0,209275.5,-24538.0
2022-09-27,0.0,0.0,0.0,209275.5,-24538.0
2022-09-28,0.0,0.0,0.0,209275.5,-24538.0
2022-09-29,0.0,0.0,0.0,209275.5,-24538.0
2022-09-30,0.0,0.0,0.0,209275.5,-24538.0
2022-10-02,0.0,0.0,0.0,209275.5,-24538.0
2022-10-03,0.0,0.0,0.0,209275.5,-24538.0
2022-10-04,0.0,0.0,0.0,209275.5,-24538.0
2022-10-05,0.0,0.0,0.0,209275.5,-24538.0
2022-10-06,0.0,0.0,0.0,209275.5,-24538.0
2022-10-07,0.0,0.0,0.0,209275.5,-24538.0
2022-10-09,0.0,0.0,0.0,209275.5,-24538.0
2022-10-10,0.0,0.0,0.0,209275.5,-24538.0
2022-10-11,0.0,0.0,0.0,209275.5,-24538.0
2022-10-12,0.0,0.0,0.0,209275.5,-24538.0
2022-10-13,0.0,0.0,0.0,209275.5,-24538.0
2022-10-14,0.0,0.0,0.0,209275.5,-24538.0
2022-10-16,0.0,0.0,0.0,209275.5,-24538.0
2022-10-17,0.0,0.0,0.0,209275.5,-24538.0
2022-10-18,0.0,352.5,352.5,209628.0,-24185.5
2022-10-19,0.0,-907.5,-907.5,208720.5,-25093.0
2022-10-20,0.0,-5.0,-5.0,208715.5,-25098.0
2022-10-21,0.0,0.0,0.0,208715.5,-25098.0
2022-10-23,0.0,-157.5,-157.5,208558.0,-25255.5
2022-10-24,0.0,1045.0,1045.0,209603.0,-24210.5
2022-10-25,0.0,657.5,657.5,210260.5,-23553.0
2022-10-26,0.0,620.0,620.0,210880.5,-22933.0
2022-10-27,0.0,125.0,125.0,211005.5,-22808.0
2022-10-28,0.0,2215.0,2215.0,213220.5,-20593.0
2022-10-30,0.0,-270.0,-270.0,212950.5,-20863.0
2022-10-31,0.0,5.0,5.0,212955.5,-20858.0
2022-11-01,0.0,-392.5,-392.5,212563.0,-21250.5
2022-11-02,0.0,-1222.5,-1222.5,211340.5,-22473.0
2022-11-03,0.0,-602.5,-602.5,210738.0,-23075.5
2022-11-04,0.0,952.5,952.5,211690.5,-22123.0
2022-11-06,0.0,50.0,50.0,211740.5,-22073.0
2022-11-07,0.0,2295.0,2295.0,214035.5,-19778.0
2022-11-08,0.0,1595.0,1595.0,215630.5,-18183.0
2022-11-09,0.0,-2925.0,-2925.0,212705.5,-21108.0
2022-11-10,0.0,6070.0,6070.0,218775.5,-15038.0
2022-11-11,0.0,-180.0,-180.0,218595.5,-15218.0
2022-11-13,274.5,-350.0,-75.5,218520.0,-15293.5
2022-11-14,-796.5,-95.0,-891.5,217628.5,-16185.0
2022-11-15,0.0,-625.0,-625.0,217003.5,-16810.0
2022-11-16,-2133.0,240.0,-1893.0,215110.5,-18703.0
2022-11-17,-4.5,-325.0,-329.5,214781.0,-19032.5
2022-11-18,0.0,1098.0,1098.0,215879.0,-17934.5
2022-11-20,0.0,-455.0,-455.0,215424.0,-18389.5
2022-11-21,0.0,378.0,378.0,215802.0,-18011.5
2022-11-22,0.0,2590.0,2590.0,218392.0,-15421.5
2022-11-23,0.0,945.0,945.0,219337.0,-14476.5
2022-11-24,526.5,-91.0,435.5,219772.5,-14041.0
2022-11-25,-2407.5,924.0,-1483.5,218289.0,-15524.5
2022-11-27,-877.5,-1260.0,-2137.5,216151.5,-17662.0
2022-11-28,0.0,-1827.0,-1827.0,214324.5,-19489.0
2022-11-29,0.0,-287.0,-287.0,214037.5,-19776.0
2022-11-30,0.0,4970.0,4970.0,219007.5,-14806.0
2022-12-01,-594.0,-1568.0,-2162.0,216845.5,-16968.0
2022-12-02,-1084.5,70.0,-1014.5,215831.0,-17982.5
2022-12-04,391.5,294.0,685.5,216516.5,-17297.0
2022-12-05,-3280.5,-2863.0,-6143.5,210373.0,-23440.5
2022-12-06,-4338.0,-2366.0,-6704.0,203669.0,-30144.5
2022-12-07,9.0,-574.0,-565.0,203104.0,-30709.5
2022-12-08,0.0,1715.0,1715.0,204819.0,-28994.5
2022-12-09,0.0,-2555.0,-2555.0,202264.0,-31549.5
2022-12-11,0.0,1722.0,1722.0,203986.0,-29827.5
2022-12-12,0.0,3794.0,3794.0,207780.0,-26033.5
2022-12-13,2376.0,1491.0,3867.0,211647.0,-22166.5
2022-12-14,-1381.5,-1582.0,-2963.5,208683.5,-25130.0
2022-12-15,-7636.5,-6027.0,-13663.5,195020.0,-38793.5
2022-12-16,0.0,14.0,14.0,195034.0,-38779.5
2022-12-18,0.0,0.0,0.0,195034.0,-38779.5
2022-12-19,0.0,0.0,0.0,195034.0,-38779.5
2022-12-20,0.0,0.0,0.0,195034.0,-38779.5
2022-12-21,0.0,0.0,0.0,195034.0,-38779.5
2022-12-22,0.0,0.0,0.0,195034.0,-38779.5
2022-12-23,0.0,0.0,0.0,195034.0,-38779.5
2022-12-26,0.0,0.0,0.0,195034.0,-38779.5
2022-12-27,0.0,0.0,0.0,195034.0,-38779.5
2022-12-28,0.0,0.0,0.0,195034.0,-38779.5
2022-12-29,0.0,0.0,0.0,195034.0,-38779.5
2022-12-30,0.0,0.0,0.0,195034.0,-38779.5
2023-01-02,0.0,0.0,0.0,195034.0,-38779.5
2023-01-03,0.0,0.0,0.0,195034.0,-38779.5
2023-01-04,0.0,0.0,0.0,195034.0,-38779.5
2023-01-05,0.0,0.0,0.0,195034.0,-38779.5
2023-01-06,0.0,0.0,0.0,195034.0,-38779.5
2023-01-08,0.0,0.0,0.0,195034.0,-38779.5
2023-01-09,0.0,0.0,0.0,195034.0,-38779.5
2023-01-10,0.0,0.0,0.0,195034.0,-38779.5
2023-01-11,0.0,0.0,0.0,195034.0,-38779.5
2023-01-12,0.0,0.0,0.0,195034.0,-38779.5
2023-01-13,0.0,0.0,0.0,195034.0,-38779.5
2023-01-15,0.0,0.0,0.0,195034.0,-38779.5
2023-01-16,0.0,0.0,0.0,195034.0,-38779.5
2023-01-17,0.0,0.0,0.0,195034.0,-38779.5
2023-01-18,0.0,0.0,0.0,195034.0,-38779.5
2023-01-19,0.0,0.0,0.0,195034.0,-38779.5
2023-01-20,0.0,0.0,0.0,195034.0,-38779.5
2023-01-22,-273.0,0.0,-273.0,194761.0,-39052.5
2023-01-23,-3.5,0.0,-3.5,194757.5,-39056.0
2023-01-24,-1099.0,0.0,-1099.0,193658.5,-40155.0
2023-01-25,941.5,0.0,941.5,194600.0,-39213.5
2023-01-26,1855.0,0.0,1855.0,196455.0,-37358.5
2023-01-27,2520.0,0.0,2520.0,198975.0,-34838.5
2023-01-29,-199.5,0.0,-199.5,198775.5,-35038.0
2023-01-30,-2845.5,0.0,-2845.5,195930.0,-37883.5
2023-01-31,1414.0,0.0,1414.0,197344.0,-36469.5
2023-02-01,6188.0,0.0,6188.0,203532.0,-30281.5
2023-02-02,1655.5,0.0,1655.5,205187.5,-28626.0
2023-02-03,-542.5,0.0,-542.5,204645.0,-29168.5
2023-02-05,-721.0,0.0,-721.0,203924.0,-29889.5
2023-02-06,-1533.0,0.0,-1533.0,202391.0,-31422.5
2023-02-07,5992.0,0.0,5992.0,208383.0,-25430.5
2023-02-08,-5292.0,0.0,-5292.0,203091.0,-30722.5
2023-02-09,-3535.0,0.0,-3535.0,199556.0,-34257.5
2023-02-10,-2751.0,0.0,-2751.0,196805.0,-37008.5
2023-02-12,-833.0,0.0,-833.0,195972.0,-37841.5
2023-02-13,6496.0,0.0,6496.0,202468.0,-31345.5
2023-02-14,1932.0,0.0,1932.0,204400.0,-29413.5
2023-02-15,3885.0,0.0,3885.0,208285.0,-25528.5
2023-02-16,-8932.0,0.0,-8932.0,199353.0,-34460.5
2023-02-17,-1181.0,0.0,-1181.0,198172.0,-35641.5
2023-02-19,-760.0,0.0,-760.0,197412.0,-36401.5
2023-02-20,616.0,0.0,616.0,198028.0,-35785.5
2023-02-21,-8464.0,0.0,-8464.0,189564.0,-44249.5
2023-02-22,1704.0,0.0,1704.0,191268.0,-42545.5
2023-02-23,200.0,0.0,200.0,191468.0,-42345.5
2023-02-24,-5600.0,0.0,-5600.0,185868.0,-47945.5
2023-02-26,592.0,0.0,592.0,186460.0,-47353.5
2023-02-27,2432.0,0.0,2432.0,188892.0,-44921.5
2023-02-28,-2280.0,0.0,-2280.0,186612.0,-47201.5
2023-03-01,-1624.0,0.0,-1624.0,184988.0,-48825.5
2023-03-02,2104.0,0.0,2104.0,187092.0,-46721.5
2023-03-03,9256.0,0.0,9256.0,196348.0,-37465.5
2023-03-05,-1096.0,0.0,-1096.0,195252.0,-38561.5
2023-03-06,1224.0,0.0,1224.0,196476.0,-37337.5
2023-03-07,-4928.0,0.0,-4928.0,191548.0,-42265.5
2023-03-08,1552.0,0.0,1552.0,193100.0,-40713.5
2023-03-09,-7656.0,0.0,-7656.0,185444.0,-48369.5
2023-03-10,0.0,0.0,0.0,185444.0,-48369.5
2023-03-12,0.0,0.0,0.0,185444.0,-48369.5
2023-03-13,0.0,0.0,0.0,185444.0,-48369.5
2023-03-14,0.0,0.0,0.0,185444.0,-48369.5
2023-03-15,0.0,0.0,0.0,185444.0,-48369.5
2023-03-16,0.0,0.0,0.0,185444.0,-48369.5
2023-03-17,-1025.5,0.0,-1025.5,184418.5,-49395.0
2023-03-19,553.0,0.0,553.0,184971.5,-48842.0
2023-03-20,0.0,0.0,0.0,184971.5,-48842.0
2023-03-21,0.0,0.0,0.0,184971.5,-48842.0
2023-03-22,-2093.0,0.0,-2093.0,182878.5,-50935.0
2023-03-23,0.0,0.0,0.0,182878.5,-50935.0
2023-03-24,815.5,0.0,815.5,183694.0,-50119.5
2023-03-26,329.0,0.0,329.0,184023.0,-49790.5
2023-03-27,-1753.5,0.0,-1753.5,182269.5,-51544.0
2023-03-28,-882.0,0.0,-882.0,181387.5,-52426.0
2023-03-29,2569.0,0.0,2569.0,183956.5,-49857.0
2023-03-30,2142.0,0.0,2142.0,186098.5,-47715.0
2023-03-31,2975.0,0.0,2975.0,189073.5,-44740.0
2023-04-02,-959.0,30.0,-929.0,188144.5,-45669.0
2023-04-03,98.0,822.5,920.5,189065.0,-44748.5
2023-04-04,-87.5,-460.0,-547.5,188517.5,-45296.0
2023-04-05,-2572.5,0.0,-2572.5,185945.0,-47868.5
2023-04-06,1435.0,42.5,1477.5,187422.5,-46391.0
2023-04-07,297.5,252.5,550.0,187972.5,-45841.0
2023-04-09,-686.0,-100.0,-786.0,187186.5,-46627.0
2023-04-10,448.0,290.0,738.0,187924.5,-45889.0
2023-04-11,-2317.0,190.0,-2127.0,185797.5,-48016.0
2023-04-12,-4424.0,-167.5,-4591.5,181206.0,-52607.5
2023-04-13,7287.0,850.0,8137.0,189343.0,-44470.5
2023-04-14,210.0,10.0,220.0,189563.0,-44250.5
2023-04-16,-357.0,10.0,-347.0,189216.0,-44597.5
2023-04-17,-217.0,130.0,-87.0,189129.0,-44684.5
2023-04-18,-105.0,-255.0,-360.0,188769.0,-45044.5
2023-04-19,-1316.0,-255.0,-1571.0,187198.0,-46615.5
2023-04-20,-1281.0,-580.0,-1861.0,185337.0,-48476.5
2023-04-21,-176.0,125.0,-51.0,185286.0,-48527.5
2023-04-23,-224.0,-435.0,-659.0,184627.0,-49186.5
2023-04-24,-600.0,545.0,-55.0,184572.0,-49241.5
2023-04-25,-2864.0,-1320.0,-4184.0,180388.0,-53425.5
2023-04-26,-96.0,-1185.0,-1281.0,179107.0,-54706.5
2023-04-27,8104.0,2175.0,10279.0,189386.0,-44427.5
2023-04-28,3736.0,1824.0,5560.0,194946.0,-38867.5
2023-04-30,-632.0,-28.0,-660.0,194286.0,-39527.5
2023-05-01,-688.0,-441.0,-1129.0,193157.0,-40656.5
2023-05-02,-3312.0,-2261.0,-5573.0,187584.0,-46229.5
2023-05-03,-2704.0,-2086.0,-4790.0,182794.0,-51019.5
2023-05-04,-128.0,0.0,-128.0,182666.0,-51147.5
2023-05-05,6936.0,0.0,6936.0,189602.0,-44211.5
2023-05-07,-200.0,0.0,-200.0,189402.0,-44411.5
2023-05-08,1048.0,0.0,1048.0,190450.0,-43363.5
2023-05-09,-1968.0,0.0,-1968.0,188482.0,-45331.5
2023-05-10,4680.0,0.0,4680.0,193162.0,-40651.5
2023-05-11,1056.0,0.0,1056.0,194218.0,-39595.5
2023-05-12,-2728.0,0.0,-2728.0,191490.0,-42323.5
2023-05-14,-104.0,0.0,-104.0,191386.0,-42427.5
2023-05-15,2944.0,0.0,2944.0,194330.0,-39483.5
2023-05-16,1320.0,0.0,1320.0,195650.0,-38163.5
2023-05-17,4600.0,0.0,4600.0,200250.0,-33563.5
2023-05-18,9160.0,0.0,9160.0,209410.0,-24403.5
2023-05-19,-2816.0,0.0,-2816.0,206594.0,-27219.5
2023-05-21,392.0,0.0,392.0,206986.0,-26827.5
2023-05-22,2864.0,0.0,2864.0,209850.0,-23963.5
2023-05-23,-6232.0,0.0,-6232.0,203618.0,-30195.5
2023-05-24,3160.0,0.0,3160.0,206778.0,-27035.5
2023-05-25,3776.0,0.0,3776.0,210554.0,-23259.5
2023-05-26,12992.0,0.0,12992.0,223546.0,-10267.5
2023-05-28,1456.0,0.0,1456.0,225002.0,-8811.5
2023-05-29,-976.0,0.0,-976.0,224026.0,-9787.5
2023-05-30,1144.0,0.0,1144.0,225170.0,-8643.5
2023-05-31,-3576.0,0.0,-3576.0,221594.0,-12219.5
2023-06-01,5544.0,0.0,5544.0,227138.0,-6675.5
2023-06-02,3304.0,0.0,3304.0,230442.0,-3371.5
2023-06-04,-1600.0,37.5,-1562.5,228879.5,-4934.0
2023-06-05,936.0,-542.5,393.5,229273.0,-4540.5
2023-06-06,936.0,0.0,936.0,230209.0,-3604.5
2023-06-07,-8472.0,0.0,-8472.0,221737.0,-12076.5
2023-06-08,5432.0,0.0,5432.0,227169.0,-6644.5
2023-06-09,2016.0,165.0,2181.0,229350.0,-4463.5
2023-06-11,904.0,50.0,954.0,230304.0,-3509.5
2023-06-12,13168.0,1250.0,14418.0,244722.0,0.0
2023-06-13,3280.0,97.5,3377.5,248099.5,0.0
2023-06-14,3488.0,-455.0,3033.0,251132.5,0.0
2023-06-15,4640.0,1077.5,5717.5,256850.0,0.0
2023-06-16,-1856.0,-257.5,-2113.5,254736.5,-2113.5
2023-06-18,56.0,-130.0,-74.0,254662.5,-2187.5
2023-06-19,-1744.0,-162.5,-1906.5,252756.0,-4094.0
2023-06-20,424.0,-322.5,101.5,252857.5,-3992.5
2023-06-21,-7072.0,-305.0,-7377.0,245480.5,-11369.5
2023-06-22,5784.0,-392.5,5391.5,250872.0,-5978.0
2023-06-23,-5320.0,-380.0,-5700.0,245172.0,-11678.0
2023-06-25,1448.0,410.0,1858.0,247030.0,-9820.0
2023-06-26,-6648.0,-105.0,-6753.0,240277.0,-16573.0
2023-06-27,5320.0,730.0,6050.0,246327.0,-10523.0
2023-06-28,3616.0,-235.0,3381.0,249708.0,-7142.0
2023-06-29,-1776.0,1055.0,-721.0,248987.0,-7863.0
2023-06-30,6424.0,1360.0,7784.0,256771.0,-79.0
2023-07-02,1072.0,145.0,1217.0,257988.0,0.0
2023-07-03,-424.0,10.0,-414.0,257574.0,-414.0
2023-07-04,88.0,-215.0,-127.0,257447.0,-541.0
2023-07-05,560.0,-990.0,-430.0,257017.0,-971.0
2023-07-06,-4208.0,-1345.0,-5553.0,251464.0,-6524.0
2023-07-07,-1112.0,-807.0,-1919.0,249545.0,-8443.0
2023-07-09,-344.0,-553.0,-897.0,248648.0,-9340.0
2023-07-10,368.0,1869.0,2237.0,250885.0,-7103.0
2023-07-11,2312.0,2016.0,4328.0,255213.0,-2775.0
2023-07-12,6632.0,1190.0,7822.0,263035.0,0.0
2023-07-13,7696.0,-539.0,7157.0,270192.0,0.0
2023-07-14,-640.0,840.0,200.0,270392.0,0.0
2023-07-16,-816.0,-21.0,-837.0,269555.0,-837.0
2023-07-17,4840.0,679.0,5519.0,275074.0,0.0
2023-07-18,4576.0,2835.0,7411.0,282485.0,0.0
2023-07-19,-3336.0,665.0,-2671.0,279814.0,-2671.0
2023-07-20,-8864.0,1372.0,-7492.0,272322.0,-10163.0
2023-07-21,-800.0,-462.0,-1262.0,271060.0,-11425.0
2023-07-23,-184.0,-21.0,-205.0,270855.0,-11630.0
2023-07-24,584.0,1316.0,1900.0,272755.0,-9730.0
2023-07-25,2248.0,35.0,2283.0,275038.0,-7447.0
2023-07-26,496.0,847.0,1343.0,276381.0,-6104.0
2023-07-27,-2136.0,-1743.0,-3879.0,272502.0,-9983.0
2023-07-28,8288.0,931.0,9219.0,281721.0,-764.0
2023-07-30,1336.0,-350.0,986.0,282707.0,0.0
2023-07-31,-864.0,1169.0,305.0,283012.0,0.0
2023-08-01,-3432.0,-371.0,-3803.0,279209.0,-3803.0
2023-08-02,-8352.0,-1218.0,-9570.0,269639.0,-13373.0
2023-08-03,-344.0,-672.0,-1016.0,268623.0,-14389.0
2023-08-04,-8.0,-1582.0,-1590.0,267033.0,-15979.0
2023-08-06,0.0,763.0,763.0,267796.0,-15216.0
2023-08-07,0.0,1673.0,1673.0,269469.0,-13543.0
2023-08-08,0.0,-777.0,-777.0,268692.0,-14320.0
2023-08-09,0.0,-315.0,-315.0,268377.0,-14635.0
2023-08-10,0.0,-588.0,-588.0,267789.0,-15223.0
2023-08-11,0.0,805.0,805.0,268594.0,-14418.0
2023-08-13,0.0,-623.0,-623.0,267971.0,-15041.0
2023-08-14,0.0,777.0,777.0,268748.0,-14264.0
2023-08-15,0.0,-2611.0,-2611.0,266137.0,-16875.0
2023-08-16,0.0,7.0,7.0,266144.0,-16868.0
2023-08-17,0.0,0.0,0.0,266144.0,-16868.0
2023-08-18,0.0,0.0,0.0,266144.0,-16868.0
2023-08-20,0.0,0.0,0.0,266144.0,-16868.0
2023-08-21,0.0,0.0,0.0,266144.0,-16868.0
2023-08-22,0.0,0.0,0.0,266144.0,-16868.0
2023-08-23,0.0,0.0,0.0,266144.0,-16868.0
2023-08-24,0.0,0.0,0.0,266144.0,-16868.0
2023-08-25,0.0,0.0,0.0,266144.0,-16868.0
2023-08-27,0.0,0.0,0.0,266144.0,-16868.0
2023-08-28,0.0,0.0,0.0,266144.0,-16868.0
2023-08-29,0.0,0.0,0.0,266144.0,-16868.0
2023-08-30,955.5,0.0,955.5,267099.5,-15912.5
2023-08-31,469.0,0.0,469.0,267568.5,-15443.5
2023-09-01,-336.0,0.0,-336.0,267232.5,-15779.5
2023-09-03,59.5,0.0,59.5,267292.0,-15720.0
2023-09-04,133.0,0.0,133.0,267425.0,-15587.0
2023-09-05,-59.5,0.0,-59.5,267365.5,-15646.5
2023-09-06,-1830.5,0.0,-1830.5,265535.0,-17477.0
2023-09-07,-10.5,0.0,-10.5,265524.5,-17487.5
2023-09-08,0.0,0.0,0.0,265524.5,-17487.5
2023-09-10,0.0,0.0,0.0,265524.5,-17487.5
2023-09-11,0.0,0.0,0.0,265524.5,-17487.5
2023-09-12,-2131.5,0.0,-2131.5,263393.0,-19619.0
2023-09-13,1036.0,0.0,1036.0,264429.0,-18583.0
2023-09-14,1365.0,0.0,1365.0,265794.0,-17218.0
2023-09-15,-4116.0,-980.0,-5096.0,260698.0,-22314.0
2023-09-17,7.0,-5.0,2.0,260700.0,-22312.0
2023-09-18,0.0,0.0,0.0,260700.0,-22312.0
2023-09-19,0.0,0.0,0.0,260700.0,-22312.0
2023-09-20,0.0,0.0,0.0,260700.0,-22312.0
2023-09-21,0.0,0.0,0.0,260700.0,-22312.0
2023-09-22,0.0,0.0,0.0,260700.0,-22312.0
2023-09-24,0.0,0.0,0.0,260700.0,-22312.0
2023-09-25,0.0,0.0,0.0,260700.0,-22312.0
2023-09-26,0.0,0.0,0.0,260700.0,-22312.0
2023-09-27,0.0,0.0,0.0,260700.0,-22312.0
2023-09-28,0.0,0.0,0.0,260700.0,-22312.0
2023-09-29,0.0,0.0,0.0,260700.0,-22312.0
2023-10-01,0.0,0.0,0.0,260700.0,-22312.0
2023-10-02,0.0,0.0,0.0,260700.0,-22312.0
2023-10-03,0.0,0.0,0.0,260700.0,-22312.0
2023-10-04,0.0,0.0,0.0,260700.0,-22312.0
2023-10-05,0.0,0.0,0.0,260700.0,-22312.0
2023-10-06,0.0,0.0,0.0,260700.0,-22312.0
2023-10-08,0.0,0.0,0.0,260700.0,-22312.0
2023-10-09,0.0,0.0,0.0,260700.0,-22312.0
2023-10-10,0.0,0.0,0.0,260700.0,-22312.0
2023-10-11,0.0,0.0,0.0,260700.0,-22312.0
2023-10-12,-1186.5,0.0,-1186.5,259513.5,-23498.5
2023-10-13,0.0,0.0,0.0,259513.5,-23498.5
2023-10-15,0.0,0.0,0.0,259513.5,-23498.5
2023-10-16,0.0,0.0,0.0,259513.5,-23498.5
2023-10-17,0.0,0.0,0.0,259513.5,-23498.5
2023-10-18,0.0,0.0,0.0,259513.5,-23498.5
2023-10-19,0.0,0.0,0.0,259513.5,-23498.5
2023-10-20,0.0,0.0,0.0,259513.5,-23498.5
2023-10-22,0.0,0.0,0.0,259513.5,-23498.5
2023-10-23,0.0,0.0,0.0,259513.5,-23498.5
2023-10-24,0.0,0.0,0.0,259513.5,-23498.5
2023-10-25,0.0,0.0,0.0,259513.5,-23498.5
2023-10-26,0.0,0.0,0.0,259513.5,-23498.5
2023-10-27,0.0,0.0,0.0,259513.5,-23498.5
2023-10-29,0.0,0.0,0.0,259513.5,-23498.5
2023-10-30,0.0,0.0,0.0,259513.5,-23498.5
2023-10-31,0.0,0.0,0.0,259513.5,-23498.5
2023-11-01,0.0,0.0,0.0,259513.5,-23498.5
2023-11-02,0.0,0.0,0.0,259513.5,-23498.5
2023-11-03,0.0,537.5,537.5,260051.0,-22961.0
2023-11-05,-157.5,-12.5,-170.0,259881.0,-23131.0
2023-11-06,0.0,-200.0,-200.0,259681.0,-23331.0
2023-11-07,2233.0,285.0,2518.0,262199.0,-20813.0
2023-11-08,-143.5,-47.5,-191.0,262008.0,-21004.0
2023-11-09,-1753.5,-447.5,-2201.0,259807.0,-23205.0
2023-11-10,4879.0,760.0,5639.0,265446.0,-17566.0
2023-11-12,-294.0,-215.0,-509.0,264937.0,-18075.0
2023-11-13,-24.5,432.5,408.0,265345.0,-17667.0
2023-11-14,4847.5,1385.0,6232.5,271577.5,-11434.5
2023-11-15,-556.5,185.0,-371.5,271206.0,-11806.0
2023-11-16,290.5,110.0,400.5,271606.5,-11405.5
2023-11-17,-154.0,-160.0,-314.0,271292.5,-11719.5
2023-11-19,-287.0,60.0,-227.0,271065.5,-11946.5
2023-11-20,6636.0,1140.0,7776.0,278841.5,-4170.5
2023-11-21,-4102.0,-255.0,-4357.0,274484.5,-8527.5
2023-11-22,2562.0,610.0,3172.0,277656.5,-5355.5
2023-11-23,525.0,190.0,715.0,278371.5,-4640.5
2023-11-24,-1505.0,490.0,-1015.0,277356.5,-5655.5
2023-11-26,-686.0,-425.0,-1111.0,276245.5,-6766.5
2023-11-27,658.0,155.0,813.0,277058.5,-5953.5
2023-11-28,1218.0,595.0,1813.0,278871.5,-4140.5
2023-11-29,-175.0,585.0,410.0,279281.5,-3730.5
2023-11-30,-2310.0,2075.0,-235.0,279046.5,-3965.5
2023-12-01,1913.0,1515.0,3428.0,282474.5,-537.5
2023-12-03,-1248.0,-147.0,-1395.0,281079.5,-1932.5
2023-12-04,-4560.0,-693.0,-5253.0,275826.5,-7185.5
2023-12-05,2512.0,364.0,2876.0,278702.5,-4309.5
2023-12-06,-3568.0,-1211.0,-4779.0,273923.5,-9088.5
2023-12-07,6512.0,686.0,7198.0,281121.5,-1890.5
2023-12-08,2320.0,714.0,3034.0,284155.5,0.0
2023-12-10,384.0,2478.0,2862.0,287017.5,0.0
2023-12-11,11208.0,1260.0,12468.0,299485.5,0.0
2023-12-12,4952.0,1337.0,6289.0,305774.5,0.0
2023-12-13,6608.0,4074.0,10682.0,316456.5,0.0
2023-12-14,-1776.0,700.0,-1076.0,315380.5,-1076.0
2023-12-15,1776.0,-189.0,1587.0,316967.5,0.0
2023-12-17,248.0,511.0,759.0,317726.5,0.0
2023-12-18,3216.0,-483.0,2733.0,320459.5,0.0
2023-12-19,3312.0,1848.0,5160.0,325619.5,0.0
2023-12-20,-6912.0,-2807.0,-9719.0,315900.5,-9719.0
2023-12-21,4168.0,686.0,4854.0,320754.5,-4865.0
2023-12-22,656.0,504.0,1160.0,321914.5,-3705.0
2023-12-25,1328.0,553.0,1881.0,323795.5,-1824.0
2023-12-26,2736.0,749.0,3485.0,327280.5,0.0
2023-12-27,1032.0,847.0,1879.0,329159.5,0.0
2023-12-28,-672.0,245.0,-427.0,328732.5,-427.0
2023-12-29,-3096.0,-567.0,-3663.0,325069.5,-4090.0
2024-01-01,1287.5,710.0,1997.5,327067.0,-2092.5
2024-01-02,-15262.5,-640.0,-15902.5,311164.5,-17995.0
2024-01-03,12.5,-2470.0,-2457.5,308707.0,-20452.5
2024-01-04,0.0,130.0,130.0,308837.0,-20322.5
2024-01-05,0.0,-280.0,-280.0,308557.0,-20602.5
2024-01-07,0.0,-1210.0,-1210.0,307347.0,-21812.5
2024-01-08,0.0,2930.0,2930.0,310277.0,-18882.5
2024-01-09,0.0,-1660.0,-1660.0,308617.0,-20542.5
2024-01-10,0.0,2750.0,2750.0,311367.0,-17792.5
2024-01-11,0.0,-1000.0,-1000.0,310367.0,-18792.5
2024-01-12,0.0,-1350.0,-1350.0,309017.0,-20142.5
2024-01-14,0.0,640.0,640.0,309657.0,-19502.5
2024-01-15,0.0,-1430.0,-1430.0,308227.0,-20932.5
2024-01-16,0.0,-1820.0,-1820.0,306407.0,-22752.5
2024-01-17,-4016.0,-760.0,-4776.0,301631.0,-27528.5
2024-01-18,0.0,2080.0,2080.0,303711.0,-25448.5
2024-01-19,10080.0,4220.0,14300.0,318011.0,-11148.5
2024-01-21,656.0,550.0,1206.0,319217.0,-9942.5
2024-01-22,-616.0,770.0,154.0,319371.0,-9788.5
2024-01-23,3568.0,-770.0,2798.0,322169.0,-6990.5
2024-01-24,1312.0,-560.0,752.0,322921.0,-6238.5
2024-01-25,-2384.0,250.0,-2134.0,320787.0,-8372.5
2024-01-26,-1208.0,1720.0,512.0,321299.0,-7860.5
2024-01-28,-800.0,-490.0,-1290.0,320009.0,-9150.5
2024-01-29,7752.0,2390.0,10142.0,330151.0,0.0
2024-01-30,-8760.0,1970.0,-6790.0,323361.0,-6790.0
2024-01-31,-5304.0,-2960.0,-8264.0,315097.0,-15054.0
2024-02-01,9952.0,2940.0,12892.0,327989.0,-2162.0
2024-02-02,1785.5,1100.0,2885.5,330874.5,0.0
2024-02-04,1075.0,-620.0,455.0,331329.5,0.0
2024-02-05,-562.5,-2130.0,-2692.5,328637.0,-2692.5
2024-02-06,-2212.5,1590.0,-622.5,328014.5,-3315.0
2024-02-07,9525.0,1570.0,11095.0,339109.5,0.0
2024-02-08,1237.5,80.0,1317.5,340427.0,0.0
2024-02-09,8525.0,-720.0,7805.0,348232.0,0.0
2024-02-11,-137.5,210.0,72.5,348304.5,0.0
2024-02-12,-4887.5,900.0,-3987.5,344317.0,-3987.5
2024-02-13,-12350.0,-5120.0,-17470.0,326847.0,-21457.5
2024-02-14,9425.0,1790.0,11215.0,338062.0,-10242.5
2024-02-15,3687.5,3020.0,6707.5,344769.5,-3535.0
2024-02-16,-11562.5,-1380.0,-12942.5,331827.0,-16477.5
2024-02-18,2812.5,600.0,3412.5,335239.5,-13065.0
2024-02-19,-1462.5,-1340.0,-2802.5,332437.0,-15867.5
2024-02-20,-9000.0,170.0,-8830.0,323607.0,-24697.5
2024-02-21,6787.5,1230.0,8017.5,331624.5,-16680.0
2024-02-22,16875.0,4460.0,21335.0,352959.5,0.0
2024-02-23,-4025.0,-200.0,-4225.0,348734.5,-4225.0
2024-02-25,1075.0,-110.0,965.0,349699.5,-3260.0
2024-02-26,-975.0,-410.0,-1385.0,348314.5,-4645.0
2024-02-27,2100.0,-1120.0,980.0,349294.5,-3665.0
2024-02-28,-6762.5,120.0,-6642.5,342652.0,-10307.5
2024-02-29,9487.5,650.0,10137.5,352789.5,-170.0
2024-03-01,13100.0,160.0,13260.0,366049.5,0.0
2024-03-03,1100.0,40.0,1140.0,367189.5,0.0
2024-03-04,-6012.5,-1210.0,-7222.5,359967.0,-7222.5
2024-03-05,-13037.5,-3580.0,-16617.5,343349.5,-23840.0
2024-03-06,2800.0,550.0,3350.0,346699.5,-20490.0
2024-03-07,12387.5,1490.0,13877.5,360577.0,-6612.5
2024-03-08,-10550.0,-300.0,-10850.0,349727.0,-17462.5
2024-03-10,-625.0,3540.0,2915.0,352642.0,-14547.5
2024-03-11,12562.5,1420.0,13982.5,366624.5,-565.0
2024-03-12,9225.0,1750.0,10975.0,377599.5,0.0
2024-03-13,-5275.0,950.0,-4325.0,373274.5,-4325.0
2024-03-14,-6725.0,-2040.0,-8765.0,364509.5,-13090.0
2024-03-15,-8750.0,-2010.0,-10760.0,353749.5,-23850.0
2024-03-17,775.0,260.0,1035.0,354784.5,-22815.0
2024-03-18,5625.0,380.0,6005.0,360789.5,-16810.0
2024-03-19,3850.0,3200.0,7050.0,367839.5,-9760.0
2024-03-20,15512.5,5300.0,20812.5,388652.0,0.0
2024-03-21,512.5,1670.0,2182.5,390834.5,0.0
2024-03-22,-1250.0,-3960.0,-5210.0,385624.5,-5210.0
2024-03-24,1100.0,-180.0,920.0,386544.5,-4290.0
2024-03-25,-2275.0,-870.0,-3145.0,383399.5,-7435.0
2024-03-26,-2562.5,690.0,-1872.5,381527.0,-9307.5
2024-03-27,-450.0,3220.0,2770.0,384297.0,-6537.5
2024-03-28,-750.0,300.0,-450.0,383847.0,-6987.5
2024-03-31,7162.5,1760.0,8922.5,392769.5,0.0
2024-04-01,-6912.5,-5520.0,-12432.5,380337.0,-12432.5
2024-04-02,-7087.5,-3060.0,-10147.5,370189.5,-22580.0
2024-04-03,5862.5,770.0,6632.5,376822.0,-15947.5
2024-04-04,-17712.5,20.0,-17692.5,359129.5,-33640.0
2024-04-05,10950.0,0.0,10950.0,370079.5,-22690.0
2024-04-07,425.0,0.0,425.0,370504.5,-22265.0
2024-04-08,-862.5,0.0,-862.5,369642.0,-23127.5
2024-04-09,3312.5,0.0,3312.5,372954.5,-19815.0
2024-04-10,-10475.0,0.0,-10475.0,362479.5,-30290.0
2024-04-11,16587.5,0.0,16587.5,379067.0,-13702.5
2024-04-12,-15937.5,0.0,-15937.5,363129.5,-29640.0
2024-04-14,3312.5,0.0,3312.5,366442.0,-26327.5
2024-04-15,12.5,0.0,12.5,366454.5,-26315.0
2024-04-16,0.0,0.0,0.0,366454.5,-26315.0
2024-04-17,0.0,0.0,0.0,366454.5,-26315.0
2024-04-18,0.0,0.0,0.0,366454.5,-26315.0
2024-04-19,0.0,0.0,0.0,366454.5,-26315.0
2024-04-21,0.0,0.0,0.0,366454.5,-26315.0
2024-04-22,0.0,0.0,0.0,366454.5,-26315.0
2024-04-23,0.0,0.0,0.0,366454.5,-26315.0
2024-04-24,0.0,0.0,0.0,366454.5,-26315.0
2024-04-25,0.0,0.0,0.0,366454.5,-26315.0
2024-04-26,0.0,0.0,0.0,366454.5,-26315.0
2024-04-28,0.0,0.0,0.0,366454.5,-26315.0
2024-04-29,0.0,0.0,0.0,366454.5,-26315.0
2024-04-30,0.0,0.0,0.0,366454.5,-26315.0
2024-05-01,0.0,0.0,0.0,366454.5,-26315.0
2024-05-02,0.0,0.0,0.0,366454.5,-26315.0
2024-05-03,0.0,0.0,0.0,366454.5,-26315.0
2024-05-05,0.0,0.0,0.0,366454.5,-26315.0
2024-05-06,0.0,0.0,0.0,366454.5,-26315.0
2024-05-07,656.0,0.0,656.0,367110.5,-25659.0
2024-05-08,-1360.0,0.0,-1360.0,365750.5,-27019.0
2024-05-09,-8.0,0.0,-8.0,365742.5,-27027.0
2024-05-10,248.0,264.0,512.0,366254.5,-26515.0
2024-05-12,192.0,126.5,318.5,366573.0,-26196.5
2024-05-13,1224.0,-489.5,734.5,367307.5,-25462.0
2024-05-14,4264.0,-11.0,4253.0,371560.5,-21209.0
2024-05-15,9728.0,2233.0,11961.0,383521.5,-9248.0
2024-05-16,-2232.0,-748.0,-2980.0,380541.5,-12228.0
2024-05-17,-560.0,808.5,248.5,380790.0,-11979.5
2024-05-19,1064.0,209.0,1273.0,382063.0,-10706.5
2024-05-20,2712.0,-1243.0,1469.0,383532.0,-9237.5
2024-05-21,1976.0,374.0,2350.0,385882.0,-6887.5
2024-05-22,1960.0,-891.0,1069.0,386951.0,-5818.5
2024-05-23,-5560.0,0.0,-5560.0,381391.0,-11378.5
2024-05-24,5699.0,0.0,5699.0,387090.0,-5679.5
2024-05-26,-1762.5,0.0,-1762.5,385327.5,-7442.0
2024-05-27,3587.5,0.0,3587.5,388915.0,-3854.5
2024-05-28,1087.5,0.0,1087.5,390002.5,-2767.0
2024-05-29,-10325.0,0.0,-10325.0,379677.5,-13092.0
2024-05-30,-8225.0,0.0,-8225.0,371452.5,-21317.0
2024-05-31,637.5,0.0,637.5,372090.0,-20679.5
2024-06-02,1012.5,0.0,1012.5,373102.5,-19667.0
2024-06-03,2925.0,0.0,2925.0,376027.5,-16742.0
2024-06-04,4362.5,0.0,4362.5,380390.0,-12379.5
2024-06-05,17675.0,0.0,17675.0,398065.0,0.0
2024-06-06,-812.5,0.0,-812.5,397252.5,-812.5
2024-06-07,-2200.0,0.0,-2200.0,395052.5,-3012.5
2024-06-09,-200.0,0.0,-200.0,394852.5,-3212.5
2024-06-10,2887.5,0.0,2887.5,397740.0,-325.0
2024-06-11,8600.0,0.0,8600.0,406340.0,0.0
2024-06-12,17175.0,0.0,17175.0,423515.0,0.0
2024-06-13,912.5,0.0,912.5,424427.5,0.0
2024-06-14,3887.5,0.0,3887.5,428315.0,0.0
2024-06-16,762.5,0.0,762.5,429077.5,0.0
2024-06-17,24675.0,0.0,24675.0,453752.5,0.0
2024-06-18,912.5,-49.5,863.0,454615.5,0.0
2024-06-19,637.5,11.0,648.5,455264.0,0.0
2024-06-20,-8325.0,0.0,-8325.0,446939.0,-8325.0
2024-06-21,-3025.0,33.0,-2992.0,443947.0,-11317.0
2024-06-23,-37.5,-451.0,-488.5,443458.5,-11805.5
2024-06-24,-11825.0,2271.5,-9553.5,433905.0,-21359.0
2024-06-25,9700.0,-2205.5,7494.5,441399.5,-13864.5
2024-06-26,-2350.0,-522.5,-2872.5,438527.0,-16737.0
2024-06-27,8837.5,737.0,9574.5,448101.5,-7162.5
2024-06-28,-6425.0,-143.0,-6568.0,441533.5,-13730.5
2024-06-30,-1050.0,-33.0,-1083.0,440450.5,-14813.5
2024-07-01,3650.0,-401.5,3248.5,443699.0,-11565.0
2024-07-02,10937.5,1061.5,11999.0,455698.0,0.0
2024-07-03,8225.0,-49.5,8175.5,463873.5,0.0
2024-07-04,-587.5,264.0,-323.5,463550.0,-323.5
2024-07-05,9987.5,-291.0,9696.5,473246.5,0.0
2024-07-07,12.5,-220.0,-207.5,473039.0,-207.5
2024-07-08,7387.5,910.0,8297.5,481336.5,0.0
2024-07-09,-2037.5,-1450.0,-3487.5,477849.0,-3487.5
2024-07-10,9187.5,4590.0,13777.5,491626.5,0.0
2024-07-11,-23337.5,700.0,-22637.5,468989.0,-22637.5
2024-07-12,6262.5,2170.0,8432.5,477421.5,-14205.0
2024-07-14,1012.5,420.0,1432.5,478854.0,-12772.5
2024-07-15,3587.5,2010.0,5597.5,484451.5,-7175.0
2024-07-16,-3325.0,7190.0,3865.0,488316.5,-3310.0
2024-07-17,0.0,3060.0,3060.0,491376.5,-250.0
2024-07-18,0.0,-6140.0,-6140.0,485236.5,-6390.0
2024-07-19,0.0,-4330.0,-4330.0,480906.5,-10720.0
2024-07-21,0.0,320.0,320.0,481226.5,-10400.0
2024-07-22,0.0,700.0,700.0,481926.5,-9700.0
2024-07-23,0.0,-1290.0,-1290.0,480636.5,-10990.0
2024-07-24,0.0,30.0,30.0,480666.5,-10960.0
2024-07-25,0.0,0.0,0.0,480666.5,-10960.0
2024-07-26,0.0,0.0,0.0,480666.5,-10960.0
2024-07-28,0.0,0.0,0.0,480666.5,-10960.0
2024-07-29,0.0,0.0,0.0,480666.5,-10960.0
2024-07-30,0.0,0.0,0.0,480666.5,-10960.0
2024-07-31,0.0,0.0,0.0,480666.5,-10960.0
2024-08-01,0.0,0.0,0.0,480666.5,-10960.0
2024-08-02,0.0,0.0,0.0,480666.5,-10960.0
2024-08-04,0.0,0.0,0.0,480666.5,-10960.0
2024-08-05,0.0,0.0,0.0,480666.5,-10960.0
2024-08-06,0.0,0.0,0.0,480666.5,-10960.0
2024-08-07,0.0,0.0,0.0,480666.5,-10960.0
2024-08-08,0.0,0.0,0.0,480666.5,-10960.0
2024-08-09,0.0,0.0,0.0,480666.5,-10960.0
2024-08-11,0.0,0.0,0.0,480666.5,-10960.0
2024-08-12,0.0,0.0,0.0,480666.5,-10960.0
2024-08-13,0.0,0.0,0.0,480666.5,-10960.0
2024-08-14,-320.0,0.0,-320.0,480346.5,-11280.0
2024-08-15,-8.0,0.0,-8.0,480338.5,-11288.0
2024-08-16,-304.0,319.0,15.0,480353.5,-11273.0
2024-08-18,1408.0,38.5,1446.5,481800.0,-9826.5
2024-08-19,6800.0,1050.5,7850.5,489650.5,-1976.0
2024-08-20,-2272.0,11.0,-2261.0,487389.5,-4237.0
2024-08-21,4688.0,-187.0,4501.0,491890.5,0.0
2024-08-22,-9528.0,-390.5,-9918.5,481972.0,-9918.5
2024-08-23,4448.0,2046.0,6494.0,488466.0,-3424.5
2024-08-25,-472.0,-192.5,-664.5,487801.5,-4089.0
2024-08-26,-6136.0,418.0,-5718.0,482083.5,-9807.0
2024-08-27,504.0,236.5,740.5,482824.0,-9066.5
2024-08-28,-12616.0,-456.5,-13072.5,469751.5,-22139.0
2024-08-29,7592.0,962.5,8554.5,478306.0,-13584.5
2024-08-30,6274.0,1496.0,7770.0,486076.0,-5814.5
2024-09-01,-400.0,-190.0,-590.0,485486.0,-6404.5
2024-09-02,-275.0,-410.0,-685.0,484801.0,-7089.5
2024-09-03,-31150.0,-6900.0,-38050.0,446751.0,-45139.5
2024-09-04,25.0,1270.0,1295.0,448046.0,-43844.5
2024-09-05,0.0,-1640.0,-1640.0,446406.0,-45484.5
2024-09-06,0.0,-30.0,-30.0,446376.0,-45514.5
2024-09-08,0.0,0.0,0.0,446376.0,-45514.5
2024-09-09,0.0,0.0,0.0,446376.0,-45514.5
2024-09-10,0.0,0.0,0.0,446376.0,-45514.5
2024-09-11,0.0,0.0,0.0,446376.0,-45514.5
2024-09-12,0.0,0.0,0.0,446376.0,-45514.5
2024-09-13,0.0,0.0,0.0,446376.0,-45514.5
2024-09-15,1288.0,0.0,1288.0,447664.0,-44226.5
2024-09-16,4304.0,0.0,4304.0,451968.0,-39922.5
2024-09-17,1040.0,275.0,1315.0,453283.0,-38607.5
2024-09-18,1856.0,599.5,2455.5,455738.5,-36152.0
2024-09-19,9144.0,1386.0,10530.0,466268.5,-25622.0
2024-09-20,-1112.0,5.5,-1106.5,465162.0,-26728.5
2024-09-22,1528.0,390.5,1918.5,467080.5,-24810.0
2024-09-23,200.0,-456.5,-256.5,466824.0,-25066.5
2024-09-24,3560.0,462.0,4022.0,470846.0,-21044.5
2024-09-25,3136.0,-737.0,2399.0,473245.0,-18645.5
2024-09-26,2120.0,891.0,3011.0,476256.0,-15634.5
2024-09-27,-5182.5,212.0,-4970.5,471285.5,-20605.0
2024-09-29,3950.0,530.0,4480.0,475765.5,-16125.0
2024-09-30,-1250.0,-440.0,-1690.0,474075.5,-17815.0
2024-10-01,-15750.0,-2130.0,-17880.0,456195.5,-35695.0
2024-10-02,6112.5,430.0,6542.5,462738.0,-29152.5
2024-10-03,-3587.5,-1500.0,-5087.5,457650.5,-34240.0
2024-10-04,11012.5,3200.0,14212.5,471863.0,-20027.5
2024-10-06,1362.5,40.0,1402.5,473265.5,-18625.0
2024-10-07,-12375.0,-4220.0,-16595.0,456670.5,-35220.0
2024-10-08,14500.0,1200.0,15700.0,472370.5,-19520.0
2024-10-09,8862.5,5000.0,13862.5,486233.0,-5657.5
2024-10-10,62.5,-760.0,-697.5,485535.5,-6355.0
2024-10-11,-1987.5,3460.0,1472.5,487008.0,-4882.5
2024-10-13,737.5,400.0,1137.5,488145.5,-3745.0
2024-10-14,10237.5,2760.0,12997.5,501143.0,0.0
2024-10-15,-14000.0,-4050.0,-18050.0,483093.0,-18050.0
2024-10-16,-1900.0,2680.0,780.0,483873.0,-17270.0
2024-10-17,4562.5,1970.0,6532.5,490405.5,-10737.5
2024-10-18,3962.5,540.0,4502.5,494908.0,-6235.0
2024-10-20,1462.5,120.0,1582.5,496490.5,-4652.5
2024-10-21,112.5,-4330.0,-4217.5,492273.0,-8870.0
2024-10-22,687.5,-780.0,-92.5,492180.5,-8962.5
2024-10-23,-11975.0,-3620.0,-15595.0,476585.5,-24557.5
2024-10-24,4550.0,-890.0,3660.0,480245.5,-20897.5
2024-10-25,4812.5,30.0,4842.5,485088.0,-16055.0
2024-10-27,6062.5,0.0,6062.5,491150.5,-9992.5
2024-10-28,-4525.0,0.0,-4525.0,486625.5,-14517.5
2024-10-29,12000.0,0.0,12000.0,498625.5,-2517.5
2024-10-30,-16075.0,0.0,-16075.0,482550.5,-18592.5
2024-10-31,-17625.0,0.0,-17625.0,464925.5,-36217.5
2024-11-01,4775.0,0.0,4775.0,469700.5,-31442.5
2024-11-03,-1725.0,0.0,-1725.0,467975.5,-33167.5
2024-11-04,-2337.5,0.0,-2337.5,465638.0,-35505.0
2024-11-05,12787.5,0.0,12787.5,478425.5,-22717.5
2024-11-06,27350.0,0.0,27350.0,505775.5,0.0
2024-11-07,16787.5,-616.0,16171.5,521947.0,0.0
2024-11-08,25.0,0.0,25.0,521972.0,0.0
2024-11-10,3850.0,121.0,3971.0,525943.0,0.0
2024-11-11,-4400.0,1188.0,-3212.0,522731.0,-3212.0
2024-11-12,-2800.0,-2057.0,-4857.0,517874.0,-8069.0
2024-11-13,300.0,357.5,657.5,518531.5,-7411.5
2024-11-14,-10825.0,-1567.5,-12392.5,506139.0,-19804.0
2024-11-15,-22300.0,5.5,-22294.5,483844.5,-42098.5
2024-11-17,3237.5,0.0,3237.5,487082.0,-38861.0
2024-11-18,2700.0,0.0,2700.0,489782.0,-36161.0
2024-11-19,8037.5,0.0,8037.5,497819.5,-28123.5
2024-11-20,-1525.0,0.0,-1525.0,496294.5,-29648.5
2024-11-21,1050.0,0.0,1050.0,497344.5,-28598.5
2024-11-22,5237.5,0.0,5237.5,502582.0,-23361.0
2024-11-24,2862.5,825.0,3687.5,506269.5,-19673.5
2024-11-25,-5075.0,1034.0,-4041.0,502228.5,-23714.5
2024-11-26,7575.0,781.0,8356.0,510584.5,-15358.5
2024-11-27,-8125.0,-511.5,-8636.5,501948.0,-23995.0
2024-11-28,3225.0,451.0,3676.0,505624.0,-20319.0
2024-11-29,5187.5,495.0,5682.5,511306.5,-14636.5
2024-12-01,-1350.0,-440.0,-1790.0,509516.5,-16426.5
2024-12-02,12462.5,-429.0,12033.5,521550.0,-4393.0
2024-12-03,5950.0,247.5,6197.5,527747.5,0.0
2024-12-04,8875.0,797.5,9672.5,537420.0,0.0
2024-12-05,-2725.0,-1441.0,-4166.0,533254.0,-4166.0
2024-12-06,8912.5,-818.0,8094.5,541348.5,0.0
2024-12-08,1187.5,-210.0,977.5,542326.0,0.0
2024-12-09,-9612.5,-2100.0,-11712.5,530613.5,-11712.5
2024-12-10,-1850.0,-1380.0,-3230.0,527383.5,-14942.5
2024-12-11,16487.5,-1900.0,14587.5,541971.0,-355.0
2024-12-12,-687.5,-1490.0,-2177.5,539793.5,-2532.5
2024-12-13,800.0,10.0,810.0,540603.5,-1722.5
2024-12-15,1437.5,0.0,1437.5,542041.0,-285.0
2024-12-16,15487.5,0.0,15487.5,557528.5,0.0
2024-12-17,8762.5,0.0,8762.5,566291.0,0.0
2024-12-18,0.0,0.0,0.0,566291.0,0.0
2024-12-19,0.0,0.0,0.0,566291.0,0.0
2024-12-20,0.0,0.0,0.0,566291.0,0.0
2024-12-22,0.0,0.0,0.0,566291.0,0.0
2024-12-23,0.0,0.0,0.0,566291.0,0.0
2024-12-24,0.0,0.0,0.0,566291.0,0.0
2024-12-25,0.0,0.0,0.0,566291.0,0.0
2024-12-26,0.0,0.0,0.0,566291.0,0.0
2024-12-27,0.0,0.0,0.0,566291.0,0.0
2024-12-29,0.0,0.0,0.0,566291.0,0.0
2024-12-30,0.0,0.0,0.0,566291.0,0.0
2024-12-31,0.0,0.0,0.0,566291.0,0.0
2025-01-01,0.0,0.0,0.0,566291.0,0.0
2025-01-02,0.0,0.0,0.0,566291.0,0.0
2025-01-03,0.0,0.0,0.0,566291.0,0.0
2025-01-05,0.0,0.0,0.0,566291.0,0.0
2025-01-06,0.0,0.0,0.0,566291.0,0.0
2025-01-07,0.0,0.0,0.0,566291.0,0.0
2025-01-08,0.0,0.0,0.0,566291.0,0.0
2025-01-09,0.0,0.0,0.0,566291.0,0.0
2025-01-10,0.0,0.0,0.0,566291.0,0.0
2025-01-12,0.0,0.0,0.0,566291.0,0.0
2025-01-13,0.0,0.0,0.0,566291.0,0.0
2025-01-14,0.0,0.0,0.0,566291.0,0.0
2025-01-15,0.0,0.0,0.0,566291.0,0.0
2025-01-16,0.0,-497.0,-497.0,565794.0,-497.0
2025-01-17,0.0,35.0,35.0,565829.0,-462.0
2025-01-19,0.0,182.0,182.0,566011.0,-280.0
2025-01-20,0.0,763.0,763.0,566774.0,0.0
2025-01-21,0.0,3129.0,3129.0,569903.0,0.0
2025-01-22,0.0,539.0,539.0,570442.0,0.0
2025-01-23,3167.5,2674.0,5841.5,576283.5,0.0
2025-01-24,-7157.5,-945.0,-8102.5,568181.0,-8102.5
2025-01-26,-9432.5,-1113.0,-10545.5,557635.5,-18648.0
2025-01-27,0.0,2800.0,2800.0,560435.5,-15848.0
2025-01-28,0.0,1358.0,1358.0,561793.5,-14490.0
2025-01-29,0.0,-301.0,-301.0,561492.5,-14791.0
2025-01-30,0.0,798.0,798.0,562290.5,-13993.0
2025-01-31,0.0,-3022.0,-3022.0,559268.5,-17015.0
2025-02-02,0.0,-7820.0,-7820.0,551448.5,-24835.0
2025-02-03,0.0,6578.0,6578.0,558026.5,-18257.0
2025-02-04,0.0,34.5,34.5,558061.0,-18222.5
2025-02-05,0.0,5681.0,5681.0,563742.0,-12541.5
2025-02-06,0.0,-2967.0,-2967.0,560775.0,-15508.5
2025-02-07,0.0,-4738.0,-4738.0,556037.0,-20246.5
2025-02-09,0.0,816.5,816.5,556853.5,-19430.0
2025-02-10,0.0,253.0,253.0,557106.5,-19177.0
2025-02-11,0.0,1978.0,1978.0,559084.5,-17199.0
2025-02-12,0.0,-1610.0,-1610.0,557474.5,-18809.0
2025-02-13,0.0,3691.5,3691.5,561166.0,-15117.5
2025-02-14,8277.5,-2587.5,5690.0,566856.0,-9427.5
2025-02-16,595.0,448.5,1043.5,567899.5,-8384.0
2025-02-17,630.0,57.5,687.5,568587.0,-7696.5
2025-02-18,2100.0,34.5,2134.5,570721.5,-5562.0
2025-02-19,-2310.0,-816.5,-3126.5,567595.0,-8688.5
2025-02-20,-3920.0,-4048.0,-7968.0,559627.0,-16656.5
2025-02-21,-35140.0,23.0,-35117.0,524510.0,-51773.5
2025-02-23,2887.5,0.0,2887.5,527397.5,-48886.0
2025-02-24,0.0,0.0,0.0,527397.5,-48886.0
2025-02-25,0.0,0.0,0.0,527397.5,-48886.0
2025-02-26,0.0,0.0,0.0,527397.5,-48886.0
2025-02-27,0.0,0.0,0.0,527397.5,-48886.0
2025-02-28,0.0,0.0,0.0,527397.5,-48886.0
2025-03-02,0.0,0.0,0.0,527397.5,-48886.0
2025-03-03,0.0,0.0,0.0,527397.5,-48886.0
2025-03-04,0.0,0.0,0.0,527397.5,-48886.0
2025-03-05,0.0,0.0,0.0,527397.5,-48886.0
2025-03-06,0.0,0.0,0.0,527397.5,-48886.0
2025-03-07,0.0,0.0,0.0,527397.5,-48886.0
2025-03-09,0.0,0.0,0.0,527397.5,-48886.0
2025-03-10,0.0,0.0,0.0,527397.5,-48886.0
2025-03-11,0.0,0.0,0.0,527397.5,-48886.0
2025-03-12,0.0,0.0,0.0,527397.5,-48886.0
2025-03-13,0.0,0.0,0.0,527397.5,-48886.0
2025-03-14,0.0,0.0,0.0,527397.5,-48886.0
2025-03-16,0.0,0.0,0.0,527397.5,-48886.0
2025-03-17,0.0,0.0,0.0,527397.5,-48886.0
2025-03-18,0.0,0.0,0.0,527397.5,-48886.0
2025-03-19,0.0,0.0,0.0,527397.5,-48886.0
2025-03-20,0.0,0.0,0.0,527397.5,-48886.0
2025-03-21,0.0,0.0,0.0,527397.5,-48886.0
2025-03-23,0.0,0.0,0.0,527397.5,-48886.0
2025-03-24,0.0,0.0,0.0,527397.5,-48886.0
2025-03-25,0.0,0.0,0.0,527397.5,-48886.0
2025-03-26,0.0,0.0,0.0,527397.5,-48886.0
2025-03-27,0.0,0.0,0.0,527397.5,-48886.0
2025-03-28,0.0,0.0,0.0,527397.5,-48886.0
2025-03-30,0.0,0.0,0.0,527397.5,-48886.0
2025-03-31,0.0,0.0,0.0,527397.5,-48886.0
2025-04-01,0.0,0.0,0.0,527397.5,-48886.0
2025-04-02,0.0,0.0,0.0,527397.5,-48886.0
2025-04-03,0.0,0.0,0.0,527397.5,-48886.0
2025-04-04,0.0,0.0,0.0,527397.5,-48886.0
2025-04-06,0.0,0.0,0.0,527397.5,-48886.0
2025-04-07,0.0,0.0,0.0,527397.5,-48886.0
2025-04-08,0.0,0.0,0.0,527397.5,-48886.0
2025-04-09,0.0,0.0,0.0,527397.5,-48886.0
2025-04-10,-66920.0,-7322.0,-74242.0,453155.5,-123128.0
2025-04-11,-105.0,21.0,-84.0,453071.5,-123212.0
2025-04-13,0.0,0.0,0.0,453071.5,-123212.0
2025-04-14,0.0,0.0,0.0,453071.5,-123212.0
2025-04-15,0.0,0.0,0.0,453071.5,-123212.0
2025-04-16,0.0,0.0,0.0,453071.5,-123212.0
2025-04-17,0.0,0.0,0.0,453071.5,-123212.0
2025-04-20,0.0,0.0,0.0,453071.5,-123212.0
2025-04-21,0.0,0.0,0.0,453071.5,-123212.0
2025-04-22,0.0,0.0,0.0,453071.5,-123212.0
2025-04-23,0.0,0.0,0.0,453071.5,-123212.0
2025-04-24,0.0,0.0,0.0,453071.5,-123212.0
2025-04-25,9940.0,0.0,9940.0,463011.5,-113272.0
2025-04-27,-7035.0,0.0,-7035.0,455976.5,-120307.0
2025-04-28,5197.5,0.0,5197.5,461174.0,-115109.5
2025-04-29,2432.5,0.0,2432.5,463606.5,-112677.0
2025-04-30,24762.5,0.0,24762.5,488369.0,-87914.5
2025-05-01,-8872.5,1372.0,-7500.5,480868.5,-95415.0
2025-05-02,28717.5,1638.0,30355.5,511224.0,-65059.5
2025-05-04,-8067.5,-1967.0,-10034.5,501189.5,-75094.0
2025-05-05,-5372.5,966.0,-4406.5,496783.0,-79500.5
2025-05-06,4130.0,-1071.0,3059.0,499842.0,-76441.5
2025-05-07,-8067.5,2100.0,-5967.5,493874.5,-82409.0
2025-05-08,13090.0,245.0,13335.0,507209.5,-69074.0
2025-05-09,579.5,-558.0,21.5,507231.0,-69052.5
2025-05-11,26972.0,4772.5,31744.5,538975.5,-37308.0
2025-05-12,40084.0,6831.0,46915.0,585890.5,0.0
2025-05-13,33770.0,-1656.0,32114.0,618004.5,0.0
2025-05-14,7326.0,-3231.5,4094.5,622099.0,0.0
2025-05-15,3454.0,5025.5,8479.5,630578.5,0.0
2025-05-16,-924.0,1725.0,801.0,631379.5,0.0
2025-05-18,-2002.0,-1575.5,-3577.5,627802.0,-3577.5
2025-05-19,13926.0,4887.5,18813.5,646615.5,0.0
2025-05-20,-9504.0,-2012.5,-11516.5,635099.0,-11516.5
2025-05-21,-25036.0,-8165.0,-33201.0,601898.0,-44717.5
2025-05-22,2772.0,149.5,2921.5,604819.5,-41796.0
2025-05-23,-19844.0,-3323.5,-23167.5,581652.0,-64963.5
2025-05-25,20724.0,4266.5,24990.5,606642.5,-39973.0
2025-05-26,4158.0,-506.0,3652.0,610294.5,-36321.0
2025-05-27,20636.0,4462.0,25098.0,635392.5,-11223.0
2025-05-28,26004.0,3611.0,29615.0,665007.5,0.0
2025-05-29,-39512.0,-5543.0,-45055.0,619952.5,-45055.0
2025-05-30,4576.0,655.5,5231.5,625184.0,-39823.5
2025-06-01,-5764.0,-1564.0,-7328.0,617856.0,-47151.5
2025-06-02,16830.0,954.5,17784.5,635640.5,-29367.0
2025-06-03,18524.0,3979.0,22503.0,658143.5,-6864.0
2025-06-04,3168.0,-1035.0,2133.0,660276.5,-4731.0
2025-06-05,-17182.0,115.0,-17067.0,643209.5,-21798.0
2025-06-06,23210.0,3933.0,27143.0,670352.5,0.0
2025-06-08,-4224.0,-1012.0,-5236.0,665116.5,-5236.0
2025-06-09,6182.0,2035.5,8217.5,673334.0,0.0
2025-06-10,10802.0,-1230.5,9571.5,682905.5,0.0
2025-06-11,-10230.0,-655.5,-10885.5,672020.0,-10885.5
2025-06-12,-4796.0,-3956.0,-8752.0,663268.0,-19637.5
2025-06-13,-11440.0,-2714.0,-14154.0,649114.0,-33791.5
2025-06-15,2926.0,4255.0,7181.0,656295.0,-26610.5
2025-06-16,28908.0,2093.0,31001.0,687296.0,0.0
2025-06-17,-9702.0,-1966.5,-11668.5,675627.5,-11668.5
2025-06-18,3806.0,-1127.0,2679.0,678306.5,-8989.5
2025-06-19,-5434.0,-724.5,-6158.5,672148.0,-15148.0
2025-06-20,-1144.0,2012.5,868.5,673016.5,-14279.5
2025-06-22,-9966.0,-2150.5,-12116.5,660900.0,-26396.0
2025-06-23,41844.0,8498.5,50342.5,711242.5,0.0
2025-06-24,16544.0,3415.5,19959.5,731202.0,0.0
2025-06-25,3586.0,-920.0,2666.0,733868.0,0.0
2025-06-26,18722.0,5244.0,23966.0,757834.0,0.0
2025-06-27,5500.0,5175.0,10675.0,768509.0,0.0
2025-06-29,6776.0,1426.0,8202.0,776711.0,0.0
2025-06-30,5654.0,-207.0,5447.0,782158.0,0.0
2025-07-01,-15246.0,5934.0,-9312.0,772846.0,-9312.0
2025-07-02,12342.0,-747.5,11594.5,784440.5,0.0
2025-07-03,16390.0,2116.0,18506.0,802946.5,0.0
2025-07-04,-11462.0,-1690.5,-13152.5,789794.0,-13152.5
2025-07-06,6974.0,1541.0,8515.0,798309.0,-4637.5
2025-07-07,-9658.0,-3967.5,-13625.5,784683.5,-18263.0
2025-07-08,2398.0,-1897.5,500.5,785184.0,-17762.5
2025-07-09,11770.0,1690.5,13460.5,798644.5,-4302.0
2025-07-10,836.0,1828.5,2664.5,801309.0,-1637.5
2025-07-11,-9438.0,-2438.0,-11876.0,789433.0,-13513.5
2025-07-13,-6226.0,-1771.0,-7997.0,781436.0,-21510.5
2025-07-14,12760.0,2909.5,15669.5,797105.5,-5841.0
2025-07-15,242.0,-5612.0,-5370.0,791735.5,-11211.0
2025-07-16,2310.0,2484.0,4794.0,796529.5,-6417.0
2025-07-17,21098.0,4726.5,25824.5,822354.0,0.0
2025-07-18,-4532.0,-3013.0,-7545.0,814809.0,-7545.0
2025-07-20,2750.0,414.0,3164.0,817973.0,-4381.0
2025-07-21,7612.0,218.5,7830.5,825803.5,0.0
2025-07-22,-7458.0,2668.0,-4790.0,821013.5,-4790.0
2025-07-23,12254.0,2990.0,15244.0,836257.5,0.0
2025-07-24,462.0,-632.5,-170.5,836087.0,-170.5
2025-07-25,3608.0,655.5,4263.5,840350.5,0.0
2025-07-27,7656.0,1989.5,9645.5,849996.0,0.0
2025-07-28,-506.0,-2380.5,-2886.5,847109.5,-2886.5
2025-07-29,-4730.0,-2334.5,-7064.5,840045.0,-9951.0
2025-07-30,22022.0,-1081.0,20941.0,860986.0,0.0
2025-07-31,-37620.0,-5876.5,-43496.5,817489.5,-43496.5
2025-08-01,66.0,-34.5,31.5,817521.0,-43465.0
2025-08-03,0.0,0.0,0.0,817521.0,-43465.0
2025-08-04,0.0,0.0,0.0,817521.0,-43465.0
2025-08-05,0.0,0.0,0.0,817521.0,-43465.0
2025-08-06,0.0,0.0,0.0,817521.0,-43465.0
2025-08-07,0.0,0.0,0.0,817521.0,-43465.0
2025-08-08,0.0,0.0,0.0,817521.0,-43465.0
2025-08-10,-4165.0,0.0,-4165.0,813356.0,-47630.0
2025-08-11,-52.5,0.0,-52.5,813303.5,-47682.5
2025-08-12,0.0,0.0,0.0,813303.5,-47682.5
2025-08-13,-735.0,0.0,-735.0,812568.5,-48417.5
2025-08-14,-4235.0,0.0,-4235.0,808333.5,-52652.5
2025-08-15,-6457.5,-1925.0,-8382.5,799951.0,-61035.0
2025-08-17,3815.0,42.0,3857.0,803808.0,-57178.0
2025-08-18,-3237.5,0.0,-3237.5,800570.5,-60415.5
2025-08-19,-26792.5,0.0,-26792.5,773778.0,-87208.0
2025-08-20,52.5,0.0,52.5,773830.5,-87155.5
2025-08-21,0.0,0.0,0.0,773830.5,-87155.5
2025-08-22,0.0,0.0,0.0,773830.5,-87155.5
2025-08-24,0.0,-427.0,-427.0,773403.5,-87582.5
2025-08-25,0.0,-2597.0,-2597.0,770806.5,-90179.5
2025-08-26,0.0,1666.0,1666.0,772472.5,-88513.5
2025-08-27,0.0,1358.0,1358.0,773830.5,-87155.5
2025-08-28,0.0,-602.0,-602.0,773228.5,-87757.5
2025-08-29,0.0,-56.0,-56.0,773172.5,-87813.5
2025-08-31,0.0,-217.0,-217.0,772955.5,-88030.5
2025-09-01,0.0,-63.0,-63.0,772892.5,-88093.5
2025-09-02,0.0,-2667.0,-2667.0,770225.5,-90760.5
2025-09-03,0.0,-14.0,-14.0,770211.5,-90774.5
2025-09-04,0.0,0.0,0.0,770211.5,-90774.5
2025-09-05,0.0,-1652.0,-1652.0,768559.5,-92426.5
2025-09-07,0.0,287.0,287.0,768846.5,-92139.5
2025-09-08,2047.5,826.0,2873.5,771720.0,-89266.0
2025-09-09,5495.0,609.0,6104.0,777824.0,-83162.0
2025-09-10,1050.0,-973.0,77.0,777901.0,-83085.0
2025-09-11,8295.0,4046.0,12341.0,790242.0,-70744.0
2025-09-12,6667.5,-2058.0,4609.5,794851.5,-66134.5
2025-09-14,-245.0,2513.0,2268.0,797119.5,-63866.5
2025-09-15,13580.0,497.0,14077.0,811196.5,-49789.5
2025-09-16,16660.0,-1379.0,15281.0,826477.5,-34508.5
2025-09-17,2870.0,2891.0,5761.0,832238.5,-28747.5
2025-09-18,10920.0,427.0,11347.0,843585.5,-17400.5
2025-09-19,8798.0,-26.5,8771.5,852357.0,-8629.0
2025-09-21,-880.0,-92.0,-972.0,851385.0,-9601.0
2025-09-22,12870.0,1403.0,14273.0,865658.0,0.0
2025-09-23,-13794.0,-460.0,-14254.0,851404.0,-14254.0
2025-09-24,-7480.0,-1736.5,-9216.5,842187.5,-23470.5
2025-09-25,-12232.0,-2955.5,-15187.5,827000.0,-38658.0
2025-09-26,9746.0,3254.5,13000.5,840000.5,-25657.5
2025-09-28,3938.0,1311.0,5249.0,845249.5,-20408.5
2025-09-29,4554.0,-793.5,3760.5,849010.0,-16648.0
2025-09-30,550.0,-1207.5,-657.5,848352.5,-17305.5
2025-10-01,16918.0,2461.0,19379.0,867731.5,0.0
2025-10-02,8954.0,2001.0,10955.0,878686.5,0.0
2025-10-03,-12562.0,1771.0,-10791.0,867895.5,-10791.0
2025-10-05,7502.0,1012.0,8514.0,876409.5,-2277.0
2025-10-06,6622.0,-3024.5,3597.5,880007.0,0.0
2025-10-07,-9548.0,471.5,-9076.5,870930.5,-9076.5
2025-10-08,30404.0,-1058.0,29346.0,900276.5,0.0
2025-10-09,-3872.0,-1966.5,-5838.5,894438.0,-5838.5
2025-10-10,44.0,11.5,55.5,894493.5,-5783.0
2025-10-12,0.0,0.0,0.0,894493.5,-5783.0
2025-10-13,0.0,0.0,0.0,894493.5,-5783.0
2025-10-14,0.0,0.0,0.0,894493.5,-5783.0
2025-10-15,0.0,0.0,0.0,894493.5,-5783.0
2025-10-16,0.0,0.0,0.0,894493.5,-5783.0
2025-10-17,0.0,0.0,0.0,894493.5,-5783.0
2025-10-19,0.0,0.0,0.0,894493.5,-5783.0
2025-10-20,0.0,0.0,0.0,894493.5,-5783.0
2025-10-21,0.0,0.0,0.0,894493.5,-5783.0
2025-10-22,0.0,0.0,0.0,894493.5,-5783.0
2025-10-23,0.0,0.0,0.0,894493.5,-5783.0
2025-10-24,0.0,0.0,0.0,894493.5,-5783.0
2025-10-26,0.0,-77.0,-77.0,894416.5,-5860.0
2025-10-27,19442.5,7.0,19449.5,913866.0,0.0
2025-10-28,13247.5,910.0,14157.5,928023.5,0.0
2025-10-29,3622.5,252.0,3874.5,931898.0,0.0
2025-10-30,-4567.5,-1246.0,-5813.5,926084.5,-5813.5
2025-10-31,-13072.5,196.0,-12876.5,913208.0,-18690.0
2025-11-02,6790.0,301.0,7091.0,920299.0,-11599.0
2025-11-03,-822.5,-3276.0,-4098.5,916200.5,-15697.5
2025-11-04,-39567.5,21.0,-39546.5,876654.0,-55244.0
2025-11-05,35.0,0.0,35.0,876689.0,-55209.0
2025-11-06,-31920.0,0.0,-31920.0,844769.0,-87129.0
2025-11-07,0.0,0.0,0.0,844769.0,-87129.0
2025-11-09,0.0,0.0,0.0,844769.0,-87129.0
2025-11-10,0.0,0.0,0.0,844769.0,-87129.0
2025-11-11,-6422.5,0.0,-6422.5,838346.5,-93551.5
2025-11-12,17.5,2863.0,2880.5,841227.0,-90671.0
2025-11-13,0.0,-6489.0,-6489.0,834738.0,-97160.0
2025-11-14,0.0,21.0,21.0,834759.0,-97139.0
2025-11-16,0.0,0.0,0.0,834759.0,-97139.0
2025-11-17,0.0,0.0,0.0,834759.0,-97139.0
2025-11-18,0.0,0.0,0.0,834759.0,-97139.0
2025-11-19,0.0,0.0,0.0,834759.0,-97139.0
2025-11-20,0.0,0.0,0.0,834759.0,-97139.0
2025-11-21,0.0,0.0,0.0,834759.0,-97139.0
2025-11-23,0.0,0.0,0.0,834759.0,-97139.0
2025-11-24,0.0,0.0,0.0,834759.0,-97139.0
2025-11-25,0.0,0.0,0.0,834759.0,-97139.0
2025-11-26,0.0,0.0,0.0,834759.0,-97139.0
2025-11-27,0.0,0.0,0.0,834759.0,-97139.0
2025-11-28,0.0,0.0,0.0,834759.0,-97139.0
2025-11-30,0.0,0.0,0.0,834759.0,-97139.0
2025-12-01,0.0,0.0,0.0,834759.0,-97139.0
2025-12-02,0.0,0.0,0.0,834759.0,-97139.0
2025-12-03,0.0,0.0,0.0,834759.0,-97139.0
2025-12-04,0.0,-553.0,-553.0,834206.0,-97692.0
2025-12-05,0.0,7.0,7.0,834213.0,-97685.0
2025-12-07,0.0,0.0,0.0,834213.0,-97685.0
2025-12-08,0.0,0.0,0.0,834213.0,-97685.0
2025-12-09,0.0,0.0,0.0,834213.0,-97685.0
2025-12-10,0.0,0.0,0.0,834213.0,-97685.0
2025-12-11,0.0,0.0,0.0,834213.0,-97685.0
2025-12-12,0.0,-2296.0,-2296.0,831917.0,-99981.0
2025-12-14,0.0,3542.0,3542.0,835459.0,-96439.0
2025-12-15,0.0,-2093.0,-2093.0,833366.0,-98532.0
2025-12-16,0.0,-2149.0,-2149.0,831217.0,-100681.0
2025-12-17,0.0,-1428.0,-1428.0,829789.0,-102109.0
2025-12-18,0.0,133.0,133.0,829922.0,-101976.0
2025-12-19,0.0,1799.0,1799.0,831721.0,-100177.0
2025-12-21,0.0,70.0,70.0,831791.0,-100107.0
2025-12-22,0.0,1001.0,1001.0,832792.0,-99106.0
2025-12-23,0.0,560.0,560.0,833352.0,-98546.0
2025-12-24,0.0,2079.0,2079.0,835431.0,-96467.0
2025-12-25,1207.5,105.0,1312.5,836743.5,-95154.5
2025-12-26,-2117.5,-111.0,-2228.5,834515.0,-97383.0
2025-12-28,840.0,-115.0,725.0,835240.0,-96658.0
2025-12-29,0.0,-2760.0,-2760.0,832480.0,-99418.0
2025-12-30,0.0,-1460.5,-1460.5,831019.5,-100878.5
2025-12-31,0.0,-3277.5,-3277.5,827742.0,-104156.0
2026-01-01,0.0,1444.5,1444.5,829186.5,-102711.5
2026-01-02,0.0,1998.0,1998.0,831184.5,-100713.5
2026-01-04,0.0,445.5,445.5,831630.0,-100268.0
2026-01-05,0.0,8289.0,8289.0,839919.0,-91979.0
2026-01-06,0.0,7438.5,7438.5,847357.5,-84540.5
2026-01-07,0.0,-8653.5,-8653.5,838704.0,-93194.0
2026-01-08,0.0,4644.0,4644.0,843348.0,-88550.0
2026-01-09,0.0,3145.5,3145.5,846493.5,-85404.5
2026-01-11,-4305.0,-3442.5,-7747.5,838746.0,-93152.0
2026-01-12,143.5,4333.5,4477.0,843223.0,-88675.0
2026-01-13,-389.5,-7060.5,-7450.0,835773.0,-96125.0
2026-01-14,-23411.0,351.0,-23060.0,812713.0,-119185.0
2026-01-15,0.0,5994.0,5994.0,818707.0,-113191.0
2026-01-16,0.0,-2578.5,-2578.5,816128.5,-115769.5
2026-01-18,0.0,-5116.5,-5116.5,811012.0,-120886.0
2026-01-19,0.0,-1296.0,-1296.0,809716.0,-122182.0
2026-01-20,0.0,-4266.0,-4266.0,805450.0,-126448.0
2026-01-21,0.0,7992.0,7992.0,813442.0,-118456.0
2026-01-22,0.0,3240.0,3240.0,816682.0,-115216.0
2026-01-23,0.0,-5629.5,-5629.5,811052.5,-120845.5
2026-01-25,0.0,-594.0,-594.0,810458.5,-121439.5
2026-01-26,0.0,5157.0,5157.0,815615.5,-116282.5
2026-01-27,0.0,-5022.0,-5022.0,810593.5,-121304.5
2026-01-28,2624.0,-283.5,2340.5,812934.0,-118964.0
2026-01-29,-16236.0,-1971.0,-18207.0,794727.0,-137171.0
2026-01-30,-41.0,40.5,-0.5,794726.5,-137171.5
2026-02-01,0.0,-4482.0,-4482.0,790244.5,-141653.5
2026-02-02,0.0,12393.0,12393.0,802637.5,-129260.5
2026-02-03,0.0,-2227.5,-2227.5,800410.0,-131488.0
2026-02-04,0.0,1755.0,1755.0,802165.0,-129733.0
2026-02-05,0.0,-8883.0,-8883.0,793282.0,-138616.0
2026-02-06,0.0,17914.5,17914.5,811196.5,-120701.5
2026-02-08,0.0,1080.0,1080.0,812276.5,-119621.5
2026-02-09,0.0,-607.5,-607.5,811669.0,-120229.0
2026-02-10,0.0,2106.0,2106.0,813775.0,-118123.0
2026-02-11,0.0,-567.0,-567.0,813208.0,-118690.0
2026-02-12,0.0,-11515.5,-11515.5,801692.5,-130205.5
2026-02-13,0.0,364.5,364.5,802057.0,-129841.0
2026-02-15,0.0,1566.0,1566.0,803623.0,-128275.0
2026-02-16,0.0,-2889.0,-2889.0,800734.0,-131164.0
2026-02-17,0.0,2997.0,2997.0,803731.0,-128167.0
2026-02-18,0.0,675.0,675.0,804406.0,-127492.0
2026-02-19,0.0,-2430.0,-2430.0,801976.0,-129922.0
2026-02-20,0.0,2173.5,2173.5,804149.5,-127748.5
2026-02-22,0.0,-4360.5,-4360.5,799789.0,-132109.0
2026-02-23,0.0,-5697.0,-5697.0,794092.0,-137806.0
2026-02-24,0.0,4009.5,4009.5,798101.5,-133796.5
2026-02-25,0.0,2875.5,2875.5,800977.0,-130921.0
2026-02-26,0.0,-2052.0,-2052.0,798925.0,-132973.0
2026-02-27,0.0,-5211.0,-5211.0,793714.0,-138184.0
2026-03-01,0.0,-5278.5,-5278.5,788435.5,-143462.5
2026-03-02,0.0,0.0,0.0,788435.5,-143462.5
2026-03-03,0.0,0.0,0.0,788435.5,-143462.5
2026-03-04,0.0,0.0,0.0,788435.5,-143462.5
2026-03-05,0.0,0.0,0.0,788435.5,-143462.5
2026-03-06,0.0,0.0,0.0,788435.5,-143462.5
2026-03-08,0.0,0.0,0.0,788435.5,-143462.5
