date,mnq_pnl,mym_pnl,combined_pnl,combined_equity,combined_drawdown
2019-05-05,0.0,0.0,0.0,71446.5,0.0
2019-05-06,0.0,0.0,0.0,71446.5,0.0
2019-05-07,0.0,0.0,0.0,71446.5,0.0
2019-05-08,0.0,0.0,0.0,71446.5,0.0
2019-05-09,0.0,0.0,0.0,71446.5,0.0
2019-05-10,0.0,0.0,0.0,71446.5,0.0
2019-05-12,0.0,0.0,0.0,71446.5,0.0
2019-05-13,0.0,0.0,0.0,71446.5,0.0
2019-05-14,0.0,0.0,0.0,71446.5,0.0
2019-05-15,0.0,0.0,0.0,71446.5,0.0
2019-05-16,0.0,0.0,0.0,71446.5,0.0
2019-05-17,0.0,0.0,0.0,71446.5,0.0
2019-05-19,0.0,0.0,0.0,71446.5,0.0
2019-05-20,0.0,0.0,0.0,71446.5,0.0
2019-05-21,0.0,0.0,0.0,71446.5,0.0
2019-05-22,0.0,0.0,0.0,71446.5,0.0
2019-05-23,0.0,0.0,0.0,71446.5,0.0
2019-05-24,0.0,0.0,0.0,71446.5,0.0
2019-05-26,0.0,0.0,0.0,71446.5,0.0
2019-05-27,0.0,0.0,0.0,71446.5,0.0
2019-05-28,0.0,0.0,0.0,71446.5,0.0
2019-05-29,0.0,0.0,0.0,71446.5,0.0
2019-05-30,0.0,0.0,0.0,71446.5,0.0
2019-05-31,0.0,0.0,0.0,71446.5,0.0
2019-06-02,0.0,0.0,0.0,71446.5,0.0
2019-06-03,0.0,0.0,0.0,71446.5,0.0
2019-06-04,0.0,0.0,0.0,71446.5,0.0
2019-06-05,0.0,246.0,246.0,71692.5,0.0
2019-06-06,0.0,319.5,319.5,72012.0,0.0
2019-06-07,916.5,382.5,1299.0,73311.0,0.0
2019-06-09,163.5,55.5,219.0,73530.0,0.0
2019-06-10,310.5,91.5,402.0,73932.0,0.0
2019-06-11,39.0,-118.5,-79.5,73852.5,-79.5
2019-06-12,-145.5,-123.0,-268.5,73584.0,-348.0
2019-06-13,34.5,276.0,310.5,73894.5,-37.5
2019-06-14,-69.0,-34.0,-103.0,73791.5,-140.5
2019-06-16,252.0,126.0,378.0,74169.5,0.0
2019-06-17,220.5,-126.0,94.5,74264.0,0.0
2019-06-18,733.5,772.0,1505.5,75769.5,0.0
2019-06-19,253.5,196.0,449.5,76219.0,0.0
2019-06-20,219.0,196.0,415.0,76634.0,0.0
2019-06-21,-149.5,-72.0,-221.5,76412.5,-221.5
2019-06-23,190.0,180.0,370.0,76782.5,0.0
2019-06-24,-90.0,-122.0,-212.0,76570.5,-212.0
2019-06-25,-1062.0,-292.0,-1354.0,75216.5,-1566.0
2019-06-26,220.0,94.0,314.0,75530.5,-1252.0
2019-06-27,336.0,-54.0,282.0,75812.5,-970.0
2019-06-28,226.0,184.5,410.5,76223.0,-559.5
2019-06-30,628.0,387.5,1015.5,77238.5,0.0
2019-07-01,-200.0,-200.0,-400.0,76838.5,-400.0
2019-07-02,464.0,95.0,559.0,77397.5,0.0
2019-07-03,436.0,477.5,913.5,78311.0,0.0
2019-07-04,114.0,87.5,201.5,78512.5,0.0
2019-07-05,-417.0,-222.5,-639.5,77873.0,-639.5
2019-07-07,-120.0,-180.0,-300.0,77573.0,-939.5
2019-07-08,-487.5,-350.0,-837.5,76735.5,-1777.0
2019-07-09,530.0,205.0,735.0,77470.5,-1042.0
2019-07-10,802.5,362.5,1165.0,78635.5,0.0
2019-07-11,-55.0,615.0,560.0,79195.5,0.0
2019-07-12,362.5,381.0,743.5,79939.0,0.0
2019-07-14,-60.0,75.0,15.0,79954.0,0.0
2019-07-15,425.0,51.0,476.0,80430.0,0.0
2019-07-16,-530.0,-54.0,-584.0,79846.0,-584.0
2019-07-17,-685.0,-555.0,-1240.0,78606.0,-1824.0
2019-07-18,727.5,474.0,1201.5,79807.5,-622.5
2019-07-19,-1351.5,-693.0,-2044.5,77763.0,-2667.0
2019-07-21,384.0,165.0,549.0,78312.0,-2118.0
2019-07-22,933.0,228.0,1161.0,79473.0,-957.0
2019-07-23,297.0,381.0,678.0,80151.0,-279.0
2019-07-24,759.0,-168.0,591.0,80742.0,0.0
2019-07-25,-288.0,-402.0,-690.0,80052.0,-690.0
2019-07-26,267.0,-32.5,234.5,80286.5,-455.5
2019-07-28,36.0,-63.0,-27.0,80259.5,-482.5
2019-07-29,-96.0,374.5,278.5,80538.0,-204.0
2019-07-30,-246.0,24.5,-221.5,80316.5,-425.5
2019-07-31,-1824.0,-1253.0,-3077.0,77239.5,-3502.5
2019-08-01,-621.0,-7.0,-628.0,76611.5,-4130.5
2019-08-02,12.0,0.0,12.0,76623.5,-4118.5
2019-08-04,0.0,0.0,0.0,76623.5,-4118.5
2019-08-05,0.0,0.0,0.0,76623.5,-4118.5
2019-08-06,0.0,0.0,0.0,76623.5,-4118.5
2019-08-07,0.0,0.0,0.0,76623.5,-4118.5
2019-08-08,0.0,0.0,0.0,76623.5,-4118.5
2019-08-09,0.0,0.0,0.0,76623.5,-4118.5
2019-08-11,0.0,0.0,0.0,76623.5,-4118.5
2019-08-12,0.0,0.0,0.0,76623.5,-4118.5
2019-08-13,0.0,0.0,0.0,76623.5,-4118.5
2019-08-14,0.0,0.0,0.0,76623.5,-4118.5
2019-08-15,0.0,0.0,0.0,76623.5,-4118.5
2019-08-16,0.0,0.0,0.0,76623.5,-4118.5
2019-08-18,0.0,0.0,0.0,76623.5,-4118.5
2019-08-19,0.0,0.0,0.0,76623.5,-4118.5
2019-08-20,0.0,0.0,0.0,76623.5,-4118.5
2019-08-21,0.0,0.0,0.0,76623.5,-4118.5
2019-08-22,0.0,0.0,0.0,76623.5,-4118.5
2019-08-23,0.0,0.0,0.0,76623.5,-4118.5
2019-08-25,0.0,0.0,0.0,76623.5,-4118.5
2019-08-26,0.0,0.0,0.0,76623.5,-4118.5
2019-08-27,0.0,0.0,0.0,76623.5,-4118.5
2019-08-28,0.0,0.0,0.0,76623.5,-4118.5
2019-08-29,0.0,0.0,0.0,76623.5,-4118.5
2019-08-30,0.0,0.0,0.0,76623.5,-4118.5
2019-09-01,0.0,0.0,0.0,76623.5,-4118.5
2019-09-02,0.0,0.0,0.0,76623.5,-4118.5
2019-09-03,0.0,0.0,0.0,76623.5,-4118.5
2019-09-04,0.0,693.0,693.0,77316.5,-3425.5
2019-09-05,901.5,189.0,1090.5,78407.0,-2335.0
2019-09-06,-45.0,102.0,57.0,78464.0,-2278.0
2019-09-08,-7.5,13.5,6.0,78470.0,-2272.0
2019-09-09,-126.0,-33.0,-159.0,78311.0,-2431.0
2019-09-10,-192.0,111.0,-81.0,78230.0,-2512.0
2019-09-11,846.0,574.5,1420.5,79650.5,-1091.5
2019-09-12,-111.0,-78.0,-189.0,79461.5,-1280.5
2019-09-13,-147.0,-21.0,-168.0,79293.5,-1448.5
2019-09-15,-576.0,-270.0,-846.0,78447.5,-2294.5
2019-09-16,366.0,-48.0,318.0,78765.5,-1976.5
2019-09-17,210.0,18.0,228.0,78993.5,-1748.5
2019-09-18,-42.0,-6.0,-48.0,78945.5,-1796.5
2019-09-19,168.0,54.0,222.0,79167.5,-1574.5
2019-09-20,-762.0,-416.0,-1178.0,77989.5,-2752.5
2019-09-22,354.0,202.0,556.0,78545.5,-2196.5
2019-09-23,70.0,76.0,146.0,78691.5,-2050.5
2019-09-24,-1060.0,-300.0,-1360.0,77331.5,-3410.5
2019-09-25,508.0,118.0,626.0,77957.5,-2784.5
2019-09-26,-312.0,-184.0,-496.0,77461.5,-3280.5
2019-09-27,-494.0,22.0,-472.0,76989.5,-3752.5
2019-09-29,96.0,155.0,251.0,77240.5,-3501.5
2019-09-30,346.5,232.5,579.0,77819.5,-2922.5
2019-10-01,-355.5,-1027.5,-1383.0,76436.5,-4305.5
2019-10-02,-6.0,0.0,-6.0,76430.5,-4311.5
2019-10-03,0.0,0.0,0.0,76430.5,-4311.5
2019-10-04,0.0,0.0,0.0,76430.5,-4311.5
2019-10-06,0.0,0.0,0.0,76430.5,-4311.5
2019-10-07,0.0,0.0,0.0,76430.5,-4311.5
2019-10-08,0.0,0.0,0.0,76430.5,-4311.5
2019-10-09,0.0,0.0,0.0,76430.5,-4311.5
2019-10-10,0.0,0.0,0.0,76430.5,-4311.5
2019-10-11,0.0,0.0,0.0,76430.5,-4311.5
2019-10-13,0.0,0.0,0.0,76430.5,-4311.5
2019-10-14,0.0,0.0,0.0,76430.5,-4311.5
2019-10-15,0.0,190.5,190.5,76621.0,-4121.0
2019-10-16,0.0,-3.0,-3.0,76618.0,-4124.0
2019-10-17,0.0,66.0,66.0,76684.0,-4058.0
2019-10-18,0.0,-303.0,-303.0,76381.0,-4361.0
2019-10-20,0.0,-55.5,-55.5,76325.5,-4416.5
2019-10-21,0.0,43.5,43.5,76369.0,-4373.0
2019-10-22,0.0,-217.5,-217.5,76151.5,-4590.5
2019-10-23,0.0,6.0,6.0,76157.5,-4584.5
2019-10-24,0.0,-57.0,-57.0,76100.5,-4641.5
2019-10-25,687.0,3.0,690.0,76790.5,-3951.5
2019-10-27,111.0,39.0,150.0,76940.5,-3801.5
2019-10-28,334.5,138.0,472.5,77413.0,-3329.0
2019-10-29,-322.5,-42.0,-364.5,77048.5,-3693.5
2019-10-30,385.5,201.0,586.5,77635.0,-3107.0
2019-10-31,-202.5,-175.5,-378.0,77257.0,-3485.0
2019-11-01,441.0,343.5,784.5,78041.5,-2700.5
2019-11-03,82.5,84.0,166.5,78208.0,-2534.0
2019-11-04,378.0,168.0,546.0,78754.0,-1988.0
2019-11-05,-159.0,-36.0,-195.0,78559.0,-2183.0
2019-11-06,-60.0,3.0,-57.0,78502.0,-2240.0
2019-11-07,204.0,304.5,508.5,79010.5,-1731.5
2019-11-08,160.5,58.5,219.0,79229.5,-1512.5
2019-11-10,-62.0,-182.0,-244.0,78985.5,-1756.5
2019-11-11,-66.0,164.0,98.0,79083.5,-1658.5
2019-11-12,164.0,-96.0,68.0,79151.5,-1590.5
2019-11-13,-2.0,308.0,306.0,79457.5,-1284.5
2019-11-14,58.0,198.0,256.0,79713.5,-1028.5
2019-11-15,418.0,240.0,658.0,80371.5,-370.5
2019-11-17,-108.0,-26.0,-134.0,80237.5,-504.5
2019-11-18,140.0,170.0,310.0,80547.5,-194.5
2019-11-19,-80.0,-350.0,-430.0,80117.5,-624.5
2019-11-20,-380.0,-248.0,-628.0,79489.5,-1252.5
2019-11-21,-2.0,100.0,98.0,79587.5,-1154.5
2019-11-22,127.5,172.0,299.5,79887.0,-855.0
2019-11-24,247.5,172.5,420.0,80307.0,-435.0
2019-11-25,687.5,332.5,1020.0,81327.0,0.0
2019-11-26,260.0,177.5,437.5,81764.5,0.0
2019-11-27,240.0,-157.5,82.5,81847.0,0.0
2019-11-28,237.5,-12.5,225.0,82072.0,0.0
2019-11-29,-280.0,5.0,-275.0,81797.0,-275.0
2019-12-01,97.5,225.0,322.5,82119.5,0.0
2019-12-02,-1267.5,-812.5,-2080.0,80039.5,-2080.0
2019-12-03,-425.0,-2.5,-427.5,79612.0,-2507.5
2019-12-04,290.0,0.0,290.0,79902.0,-2217.5
2019-12-05,240.0,0.0,240.0,80142.0,-1977.5
2019-12-06,886.5,0.0,886.5,81028.5,-1091.0
2019-12-08,15.0,0.0,15.0,81043.5,-1076.0
2019-12-09,-555.0,0.0,-555.0,80488.5,-1631.0
2019-12-10,33.0,0.0,33.0,80521.5,-1598.0
2019-12-11,645.0,0.0,645.0,81166.5,-953.0
2019-12-12,1047.0,456.0,1503.0,82669.5,0.0
2019-12-13,243.0,-114.0,129.0,82798.5,0.0
2019-12-15,159.0,10.5,169.5,82968.0,0.0
2019-12-16,759.0,108.0,867.0,83835.0,0.0
2019-12-17,54.0,42.0,96.0,83931.0,0.0
2019-12-18,225.0,-28.5,196.5,84127.5,0.0
2019-12-19,696.0,204.0,900.0,85027.5,0.0
2019-12-20,386.5,103.0,489.5,85517.0,0.0
2019-12-22,168.0,50.0,218.0,85735.0,0.0
2019-12-23,98.0,128.0,226.0,85961.0,0.0
2019-12-24,10.5,-104.0,-93.5,85867.5,-93.5
2019-12-25,3.5,66.0,69.5,85937.0,-24.0
2019-12-26,1088.5,262.0,1350.5,87287.5,0.0
2019-12-27,-409.5,-138.0,-547.5,86740.0,-547.5
2019-12-29,266.0,100.0,366.0,87106.0,-181.5
2019-12-30,-878.5,-362.0,-1240.5,85865.5,-1422.0
2019-12-31,511.0,162.0,673.0,86538.5,-749.0
2020-01-01,63.0,86.0,149.0,86687.5,-600.0
2020-01-02,1718.5,142.0,1860.5,88548.0,0.0
2020-01-03,-1260.0,-117.5,-1377.5,87170.5,-1377.5
2020-01-05,-516.0,-197.5,-713.5,86457.0,-2091.0
2020-01-06,1136.0,472.5,1608.5,88065.5,-482.5
2020-01-07,-1552.0,-915.0,-2467.0,85598.5,-2949.5
2020-01-08,3200.0,1120.0,4320.0,89918.5,0.0
2020-01-09,1016.0,507.5,1523.5,91442.0,0.0
2020-01-10,-596.0,-577.5,-1173.5,90268.5,-1173.5
2020-01-12,148.0,202.5,350.5,90619.0,-823.0
2020-01-13,1880.0,55.0,1935.0,92554.0,0.0
2020-01-14,-1184.0,-30.0,-1214.0,91340.0,-1214.0
2020-01-15,692.0,510.0,1202.0,92542.0,-12.0
2020-01-16,1144.0,525.0,1669.0,94211.0,0.0
2020-01-17,409.0,-13.0,396.0,94607.0,0.0
2020-01-19,243.0,81.0,324.0,94931.0,0.0
2020-01-20,-265.5,-357.0,-622.5,94308.5,-622.5
2020-01-21,148.5,306.0,454.5,94763.0,-168.0
2020-01-22,76.5,-555.0,-478.5,94284.5,-646.5
2020-01-23,1575.0,210.0,1785.0,96069.5,0.0
2020-01-24,-2389.5,-783.0,-3172.5,92897.0,-3172.5
2020-01-26,-2209.5,-696.0,-2905.5,89991.5,-6078.0
2020-01-27,-643.5,9.0,-634.5,89357.0,-6712.5
2020-01-28,2182.5,0.0,2182.5,91539.5,-4530.0
2020-01-29,391.5,0.0,391.5,91931.0,-4138.5
2020-01-30,1732.5,0.0,1732.5,93663.5,-2406.0
2020-01-31,-3652.5,0.0,-3652.5,90011.0,-6058.5
2020-02-02,155.0,0.0,155.0,90166.0,-5903.5
2020-02-03,1390.0,0.0,1390.0,91556.0,-4513.5
2020-02-04,4965.0,0.0,4965.0,96521.0,0.0
2020-02-05,860.0,1012.5,1872.5,98393.5,0.0
2020-02-06,1715.0,-234.0,1481.0,99874.5,0.0
2020-02-07,-1335.0,-370.5,-1705.5,98169.0,-1705.5
2020-02-09,-875.0,3.0,-872.0,97297.0,-2577.5
2020-02-10,3380.0,438.0,3818.0,101115.0,0.0
2020-02-11,320.0,-52.5,267.5,101382.5,0.0
2020-02-12,705.0,181.5,886.5,102269.0,0.0
2020-02-13,665.0,105.0,770.0,103039.0,0.0
2020-02-14,420.0,-114.5,305.5,103344.5,0.0
2020-02-16,665.0,80.0,745.0,104089.5,0.0
2020-02-17,-1225.0,-246.0,-1471.0,102618.5,-1471.0
2020-02-18,1230.0,-24.0,1206.0,103824.5,-265.0
2020-02-19,1615.0,-10.0,1605.0,105429.5,0.0
2020-02-20,-3445.0,-418.0,-3863.0,101566.5,-3863.0
2020-02-21,-2330.0,-208.0,-2538.0,99028.5,-6401.0
2020-02-23,-1810.0,-786.0,-2596.0,96432.5,-8997.0
2020-02-24,0.0,2.0,2.0,96434.5,-8995.0
2020-02-25,0.0,0.0,0.0,96434.5,-8995.0
2020-02-26,0.0,0.0,0.0,96434.5,-8995.0
2020-02-27,0.0,0.0,0.0,96434.5,-8995.0
2020-02-28,0.0,0.0,0.0,96434.5,-8995.0
2020-03-01,0.0,0.0,0.0,96434.5,-8995.0
2020-03-02,0.0,0.0,0.0,96434.5,-8995.0
2020-03-03,0.0,0.0,0.0,96434.5,-8995.0
2020-03-04,0.0,0.0,0.0,96434.5,-8995.0
2020-03-05,0.0,0.0,0.0,96434.5,-8995.0
2020-03-06,0.0,0.0,0.0,96434.5,-8995.0
2020-03-08,0.0,0.0,0.0,96434.5,-8995.0
2020-03-09,0.0,0.0,0.0,96434.5,-8995.0
2020-03-10,0.0,0.0,0.0,96434.5,-8995.0
2020-03-11,0.0,0.0,0.0,96434.5,-8995.0
2020-03-12,0.0,0.0,0.0,96434.5,-8995.0
2020-03-13,0.0,0.0,0.0,96434.5,-8995.0
2020-03-15,0.0,0.0,0.0,96434.5,-8995.0
2020-03-16,0.0,0.0,0.0,96434.5,-8995.0
2020-03-17,0.0,0.0,0.0,96434.5,-8995.0
2020-03-18,0.0,0.0,0.0,96434.5,-8995.0
2020-03-19,0.0,0.0,0.0,96434.5,-8995.0
2020-03-20,0.0,0.0,0.0,96434.5,-8995.0
2020-03-22,0.0,0.0,0.0,96434.5,-8995.0
2020-03-23,0.0,0.0,0.0,96434.5,-8995.0
2020-03-24,0.0,0.0,0.0,96434.5,-8995.0
2020-03-25,0.0,0.0,0.0,96434.5,-8995.0
2020-03-26,0.0,0.0,0.0,96434.5,-8995.0
2020-03-27,0.0,0.0,0.0,96434.5,-8995.0
2020-03-29,0.0,0.0,0.0,96434.5,-8995.0
2020-03-30,0.0,0.0,0.0,96434.5,-8995.0
2020-03-31,0.0,0.0,0.0,96434.5,-8995.0
2020-04-01,0.0,0.0,0.0,96434.5,-8995.0
2020-04-02,0.0,0.0,0.0,96434.5,-8995.0
2020-04-03,0.0,0.0,0.0,96434.5,-8995.0
2020-04-05,0.0,0.0,0.0,96434.5,-8995.0
2020-04-06,0.0,1036.5,1036.5,97471.0,-7958.5
2020-04-07,0.0,249.0,249.0,97720.0,-7709.5
2020-04-08,1098.0,1152.0,2250.0,99970.0,-5459.5
2020-04-09,93.0,615.0,708.0,100678.0,-4751.5
2020-04-12,-729.0,-579.0,-1308.0,99370.0,-6059.5
2020-04-13,1483.5,489.0,1972.5,101342.5,-4087.0
2020-04-14,1848.0,204.0,2052.0,103394.5,-2035.0
2020-04-15,-844.5,-736.5,-1581.0,101813.5,-3616.0
2020-04-16,2403.0,1461.0,3864.0,105677.5,0.0
2020-04-17,-751.5,-138.0,-889.5,104788.0,-889.5
2020-04-19,-366.0,-4.5,-370.5,104417.5,-1260.0
2020-04-20,-100.5,-1308.0,-1408.5,103009.0,-2668.5
2020-04-21,-1633.5,-462.0,-2095.5,100913.5,-4764.0
2020-04-22,951.0,444.0,1395.0,102308.5,-3369.0
2020-04-23,-385.5,-21.0,-406.5,101902.0,-3775.5
2020-04-24,1278.0,569.5,1847.5,103749.5,-1928.0
2020-04-26,-110.0,302.0,192.0,103941.5,-1736.0
2020-04-27,560.0,266.0,826.0,104767.5,-910.0
2020-04-28,-446.0,658.0,212.0,104979.5,-698.0
2020-04-29,2586.0,904.0,3490.0,108469.5,0.0
2020-04-30,-2022.0,-1554.0,-3576.0,104893.5,-3576.0
2020-05-01,-1090.0,-678.0,-1768.0,103125.5,-5344.0
2020-05-03,-952.0,-218.0,-1170.0,101955.5,-6514.0
2020-05-04,1926.0,526.0,2452.0,104407.5,-4062.0
2020-05-05,1060.0,66.0,1126.0,105533.5,-2936.0
2020-05-06,68.0,-280.0,-212.0,105321.5,-3148.0
2020-05-07,1412.0,986.0,2398.0,107719.5,-750.0
2020-05-08,671.5,370.5,1042.0,108761.5,0.0
2020-05-10,322.5,355.0,677.5,109439.0,0.0
2020-05-11,237.5,-1220.0,-982.5,108456.5,-982.5
2020-05-12,-2630.0,-852.5,-3482.5,104974.0,-4465.0
2020-05-13,-27.5,-1092.5,-1120.0,103854.0,-5585.0
2020-05-14,962.5,915.0,1877.5,105731.5,-3707.5
2020-05-15,120.0,82.5,202.5,105934.0,-3505.0
2020-05-17,450.0,540.0,990.0,106924.0,-2515.0
2020-05-18,1795.0,1665.0,3460.0,110384.0,0.0
2020-05-19,-260.0,-360.0,-620.0,109764.0,-620.0
2020-05-20,1675.0,155.0,1830.0,111594.0,0.0
2020-05-21,-830.0,-375.0,-1205.0,110389.0,-1205.0
2020-05-22,242.0,619.5,861.5,111250.5,-343.5
2020-05-24,399.0,141.0,540.0,111790.5,0.0
2020-05-25,651.0,999.0,1650.0,113440.5,0.0
2020-05-26,-1389.0,987.0,-402.0,113038.5,-402.0
2020-05-27,573.0,1341.0,1914.0,114952.5,0.0
2020-05-28,-288.0,-843.0,-1131.0,113821.5,-1131.0
2020-05-29,2049.0,474.0,2523.0,116344.5,0.0
2020-05-31,-981.0,-432.0,-1413.0,114931.5,-1413.0
2020-06-01,702.0,9.0,711.0,115642.5,-702.0
2020-06-02,1311.0,1338.0,2649.0,118291.5,0.0
2020-06-03,261.0,1191.0,1452.0,119743.5,0.0
2020-06-04,-936.0,606.0,-330.0,119413.5,-330.0
2020-06-05,2270.5,1980.5,4251.0,123664.5,0.0
2020-06-07,885.5,266.0,1151.5,124816.0,0.0
2020-06-08,129.5,1354.5,1484.0,126300.0,0.0
2020-06-09,1529.5,-339.5,1190.0,127490.0,0.0
2020-06-10,759.5,-2772.0,-2012.5,125477.5,-2012.5
2020-06-11,-5106.5,-3.5,-5110.0,120367.5,-7122.5
2020-06-12,-511.0,0.0,-511.0,119856.5,-7633.5
2020-06-14,-1456.0,0.0,-1456.0,118400.5,-9089.5
2020-06-15,4578.0,0.0,4578.0,122978.5,-4511.5
2020-06-16,1662.5,0.0,1662.5,124641.0,-2849.0
2020-06-17,-483.0,0.0,-483.0,124158.0,-3332.0
2020-06-18,997.5,0.0,997.5,125155.5,-2334.5
2020-06-19,-1471.0,0.0,-1471.0,123684.5,-3805.5
2020-06-21,-312.0,0.0,-312.0,123372.5,-4117.5
2020-06-22,3916.0,0.0,3916.0,127288.5,-201.5
2020-06-23,496.0,0.0,496.0,127784.5,0.0
2020-06-24,-3316.0,0.0,-3316.0,124468.5,-3316.0
2020-06-25,2124.0,0.0,2124.0,126592.5,-1192.0
2020-06-26,-4196.0,0.0,-4196.0,122396.5,-5388.0
2020-06-28,-272.0,0.0,-272.0,122124.5,-5660.0
2020-06-29,2652.0,0.0,2652.0,124776.5,-3008.0
2020-06-30,672.0,0.0,672.0,125448.5,-2336.0
2020-07-01,3756.0,0.0,3756.0,129204.5,0.0
2020-07-02,1288.0,0.0,1288.0,130492.5,0.0
2020-07-03,-396.0,0.0,-396.0,130096.5,-396.0
2020-07-05,1219.5,0.0,1219.5,131316.0,0.0
2020-07-06,4446.0,0.0,4446.0,135762.0,0.0
2020-07-07,-1615.5,0.0,-1615.5,134146.5,-1615.5
2020-07-08,2380.5,0.0,2380.5,136527.0,0.0
2020-07-09,1291.5,0.0,1291.5,137818.5,0.0
2020-07-10,1593.0,0.0,1593.0,139411.5,0.0
2020-07-12,612.0,0.0,612.0,140023.5,0.0
2020-07-13,-4162.5,0.0,-4162.5,135861.0,-4162.5
2020-07-14,1296.0,0.0,1296.0,137157.0,-2866.5
2020-07-15,-1264.5,0.0,-1264.5,135892.5,-4131.0
2020-07-16,-1449.0,0.0,-1449.0,134443.5,-5580.0
2020-07-17,984.0,0.0,984.0,135427.5,-4596.0
2020-07-19,480.0,0.0,480.0,135907.5,-4116.0
2020-07-20,6045.0,0.0,6045.0,141952.5,0.0
2020-07-21,-1530.0,0.0,-1530.0,140422.5,-1530.0
2020-07-22,-1005.0,0.0,-1005.0,139417.5,-2535.0
2020-07-23,-4805.0,0.0,-4805.0,134612.5,-7340.0
2020-07-24,-2395.0,0.0,-2395.0,132217.5,-9735.0
2020-07-26,-480.0,0.0,-480.0,131737.5,-10215.0
2020-07-27,5190.0,0.0,5190.0,136927.5,-5025.0
2020-07-28,-2690.0,0.0,-2690.0,134237.5,-7715.0
2020-07-29,2310.0,0.0,2310.0,136547.5,-5405.0
2020-07-30,4520.0,0.0,4520.0,141067.5,-885.0
2020-07-31,200.0,0.0,200.0,141267.5,-685.0
2020-08-02,-75.0,0.0,-75.0,141192.5,-760.0
2020-08-03,2495.0,0.0,2495.0,143687.5,0.0
2020-08-04,745.0,0.0,745.0,144432.5,0.0
2020-08-05,310.0,492.0,802.0,145234.5,0.0
2020-08-06,3265.0,91.5,3356.5,148591.0,0.0
2020-08-07,-2430.0,307.5,-2122.5,146468.5,-2122.5
2020-08-09,-475.0,78.0,-397.0,146071.5,-2519.5
2020-08-10,-665.0,558.0,-107.0,145964.5,-2626.5
2020-08-11,-3025.0,-165.0,-3190.0,142774.5,-5816.5
2020-08-12,4180.0,300.0,4480.0,147254.5,-1336.5
2020-08-13,1470.0,-25.5,1444.5,148699.0,0.0
2020-08-14,-1190.0,-53.0,-1243.0,147456.0,-1243.0
2020-08-16,315.0,202.0,517.0,147973.0,-726.0
2020-08-17,2870.0,-276.0,2594.0,150567.0,0.0
2020-08-18,2230.0,-22.0,2208.0,152775.0,0.0
2020-08-19,-2520.0,-548.0,-3068.0,149707.0,-3068.0
2020-08-20,4180.0,522.0,4702.0,154409.0,0.0
2020-08-21,1270.0,238.0,1508.0,155917.0,0.0
2020-08-23,410.0,138.0,548.0,156465.0,0.0
2020-08-24,1265.0,932.0,2197.0,158662.0,0.0
2020-08-25,2000.0,-470.0,1530.0,160192.0,0.0
2020-08-26,4420.0,202.0,4622.0,164814.0,0.0
2020-08-27,30.0,844.0,874.0,165688.0,0.0
2020-08-28,690.0,-149.0,541.0,166229.0,0.0
2020-08-30,880.0,362.5,1242.5,167471.5,0.0
2020-08-31,1550.0,-830.0,720.0,168191.5,0.0
2020-09-01,4705.0,640.0,5345.0,173536.5,0.0
2020-09-02,1225.0,995.0,2220.0,175756.5,0.0
2020-09-03,-5.0,-2077.5,-2082.5,173674.0,-2082.5
2020-09-04,0.0,-495.0,-495.0,173179.0,-2577.5
2020-09-06,0.0,177.5,177.5,173356.5,-2400.0
2020-09-07,0.0,347.5,347.5,173704.0,-2052.5
2020-09-08,0.0,2.5,2.5,173706.5,-2050.0
2020-09-09,0.0,0.0,0.0,173706.5,-2050.0
2020-09-10,0.0,0.0,0.0,173706.5,-2050.0
2020-09-11,0.0,0.0,0.0,173706.5,-2050.0
2020-09-13,0.0,0.0,0.0,173706.5,-2050.0
2020-09-14,0.0,0.0,0.0,173706.5,-2050.0
2020-09-15,0.0,0.0,0.0,173706.5,-2050.0
2020-09-16,0.0,0.0,0.0,173706.5,-2050.0
2020-09-17,0.0,0.0,0.0,173706.5,-2050.0
2020-09-18,0.0,0.0,0.0,173706.5,-2050.0
2020-09-20,0.0,0.0,0.0,173706.5,-2050.0
2020-09-21,0.0,0.0,0.0,173706.5,-2050.0
2020-09-22,0.0,0.0,0.0,173706.5,-2050.0
2020-09-23,0.0,0.0,0.0,173706.5,-2050.0
2020-09-24,0.0,0.0,0.0,173706.5,-2050.0
2020-09-25,0.0,0.0,0.0,173706.5,-2050.0
2020-09-27,0.0,0.0,0.0,173706.5,-2050.0
2020-09-28,0.0,0.0,0.0,173706.5,-2050.0
2020-09-29,0.0,0.0,0.0,173706.5,-2050.0
2020-09-30,0.0,0.0,0.0,173706.5,-2050.0
2020-10-01,0.0,0.0,0.0,173706.5,-2050.0
2020-10-02,0.0,0.0,0.0,173706.5,-2050.0
2020-10-04,0.0,0.0,0.0,173706.5,-2050.0
2020-10-05,0.0,0.0,0.0,173706.5,-2050.0
2020-10-06,0.0,0.0,0.0,173706.5,-2050.0
2020-10-07,0.0,0.0,0.0,173706.5,-2050.0
2020-10-08,0.0,276.0,276.0,173982.5,-1774.0
2020-10-09,0.0,157.5,157.5,174140.0,-1616.5
2020-10-11,88.5,-55.5,33.0,174173.0,-1583.5
2020-10-12,2194.5,270.0,2464.5,176637.5,0.0
2020-10-13,33.0,-58.5,-25.5,176612.0,-25.5
2020-10-14,-922.5,-529.5,-1452.0,175160.0,-1477.5
2020-10-15,-273.0,118.5,-154.5,175005.5,-1632.0
2020-10-16,-733.5,6.0,-727.5,174278.0,-2359.5
2020-10-18,478.5,288.0,766.5,175044.5,-1593.0
2020-10-19,-948.0,-740.0,-1688.0,173356.5,-3281.0
2020-10-20,1.5,0.0,1.5,173358.0,-3279.5
2020-10-21,0.0,-639.0,-639.0,172719.0,-3918.5
2020-10-22,0.0,-1.5,-1.5,172717.5,-3920.0
2020-10-23,0.0,-130.5,-130.5,172587.0,-4050.5
2020-10-25,0.0,-52.5,-52.5,172534.5,-4103.0
2020-10-26,0.0,0.0,0.0,172534.5,-4103.0
2020-10-27,0.0,0.0,0.0,172534.5,-4103.0
2020-10-28,0.0,0.0,0.0,172534.5,-4103.0
2020-10-29,0.0,0.0,0.0,172534.5,-4103.0
2020-10-30,0.0,0.0,0.0,172534.5,-4103.0
2020-11-01,0.0,0.0,0.0,172534.5,-4103.0
2020-11-02,0.0,0.0,0.0,172534.5,-4103.0
2020-11-03,0.0,0.0,0.0,172534.5,-4103.0
2020-11-04,2868.0,757.5,3625.5,176160.0,-477.5
2020-11-05,1630.5,292.5,1923.0,178083.0,0.0
2020-11-06,168.0,222.0,390.0,178473.0,0.0
2020-11-08,826.5,462.0,1288.5,179761.5,0.0
2020-11-09,-2269.5,354.0,-1915.5,177846.0,-1915.5
2020-11-10,-1540.5,846.0,-694.5,177151.5,-2610.0
2020-11-11,1794.0,-477.0,1317.0,178468.5,-1293.0
2020-11-12,-270.0,-144.0,-414.0,178054.5,-1707.0
2020-11-13,594.0,646.0,1240.0,179294.5,-467.0
2020-11-15,794.0,472.0,1266.0,180560.5,0.0
2020-11-16,26.0,266.0,292.0,180852.5,0.0
2020-11-17,-556.0,-226.0,-782.0,180070.5,-782.0
2020-11-18,-790.0,-604.0,-1394.0,178676.5,-2176.0
2020-11-19,456.0,-216.0,240.0,178916.5,-1936.0
2020-11-20,-210.0,-170.0,-380.0,178536.5,-2316.0
2020-11-22,162.0,246.0,408.0,178944.5,-1908.0
2020-11-23,164.0,1048.0,1212.0,180156.5,-696.0
2020-11-24,1394.0,448.0,1842.0,181998.5,0.0
2020-11-25,428.0,-402.0,26.0,182024.5,0.0
2020-11-26,-200.0,-98.0,-298.0,181726.5,-298.0
2020-11-27,952.0,188.0,1140.0,182866.5,0.0
2020-11-29,432.5,-522.5,-90.0,182776.5,-90.0
2020-11-30,320.0,457.5,777.5,183554.0,0.0
2020-12-01,1020.0,-432.5,587.5,184141.5,0.0
2020-12-02,152.5,345.0,497.5,184639.0,0.0
2020-12-03,190.0,397.5,587.5,185226.5,0.0
2020-12-04,250.0,400.0,650.0,185876.5,0.0
2020-12-06,345.0,-22.5,322.5,186199.0,0.0
2020-12-07,305.0,-370.0,-65.0,186134.0,-65.0
2020-12-08,720.0,695.0,1415.0,187549.0,0.0
2020-12-09,-2840.0,-447.5,-3287.5,184261.5,-3287.5
2020-12-10,400.0,-210.0,190.0,184451.5,-3097.5
2020-12-11,-316.0,-121.0,-437.0,184014.5,-3534.5
2020-12-13,600.0,507.0,1107.0,185121.5,-2427.5
2020-12-14,756.0,-1005.0,-249.0,184872.5,-2676.5
2020-12-15,1386.0,906.0,2292.0,187164.5,-384.5
2020-12-16,1053.0,177.0,1230.0,188394.5,0.0
2020-12-17,807.0,-105.0,702.0,189096.5,0.0
2020-12-18,-21.0,495.0,474.0,189570.5,0.0
2020-12-20,9.0,-456.0,-447.0,189123.5,-447.0
2020-12-21,-573.0,-399.0,-972.0,188151.5,-1419.0
2020-12-22,228.0,-342.0,-114.0,188037.5,-1533.0
2020-12-23,-786.0,648.0,-138.0,187899.5,-1671.0
2020-12-24,591.0,6.0,597.0,188496.5,-1074.0
2020-12-27,363.0,423.0,786.0,189282.5,-288.0
2020-12-28,1410.0,645.0,2055.0,191337.5,0.0
2020-12-29,-87.0,-426.0,-513.0,190824.5,-513.0
2020-12-30,48.0,-6.0,42.0,190866.5,-471.0
2020-12-31,429.0,543.0,972.0,191838.5,0.0
2021-01-03,-615.0,45.0,-570.0,191268.5,-570.0
2021-01-04,-5670.0,-3187.5,-8857.5,182411.0,-9427.5
2021-01-05,3600.0,1132.5,4732.5,187143.5,-4695.0
2021-01-06,-3660.0,4642.5,982.5,188126.0,-3712.5
2021-01-07,7965.0,1815.0,9780.0,197906.0,0.0
2021-01-08,5587.5,-465.0,5122.5,203028.5,0.0
2021-01-10,-1260.0,-1672.5,-2932.5,200096.0,-2932.5
2021-01-11,-4815.0,690.0,-4125.0,195971.0,-7057.5
2021-01-12,-757.5,1117.5,360.0,196331.0,-6697.5
2021-01-13,2197.5,345.0,2542.5,198873.5,-4155.0
2021-01-14,-1590.0,-2220.0,-3810.0,195063.5,-7965.0
2021-01-15,-4597.5,-1237.5,-5835.0,189228.5,-13800.0
2021-01-17,-532.5,420.0,-112.5,189116.0,-13912.5
2021-01-18,2565.0,1537.5,4102.5,193218.5,-9810.0
2021-01-19,6547.5,-577.5,5970.0,199188.5,-3840.0
2021-01-20,7942.5,2527.5,10470.0,209658.5,0.0
2021-01-21,2077.5,-1177.5,900.0,210558.5,0.0
2021-01-22,-960.0,-652.5,-1612.5,208946.0,-1612.5
2021-01-24,1387.5,667.5,2055.0,211001.0,0.0
2021-01-25,1920.0,-2205.0,-285.0,210716.0,-285.0
2021-01-26,2917.5,495.0,3412.5,214128.5,0.0
2021-01-27,-17437.5,-4590.0,-22027.5,192101.0,-22027.5
2021-01-28,4762.5,585.0,5347.5,197448.5,-16680.0
2021-01-29,7.5,-15.0,-7.5,197441.0,-16687.5
2021-01-31,0.0,0.0,0.0,197441.0,-16687.5
2021-02-01,0.0,0.0,0.0,197441.0,-16687.5
2021-02-02,0.0,0.0,0.0,197441.0,-16687.5
2021-02-03,0.0,0.0,0.0,197441.0,-16687.5
2021-02-04,1756.0,0.0,1756.0,199197.0,-14931.5
2021-02-05,800.0,284.0,1084.0,200281.0,-13847.5
2021-02-07,560.0,456.0,1016.0,201297.0,-12831.5
2021-02-08,684.0,288.0,972.0,202269.0,-11859.5
2021-02-09,96.0,416.0,512.0,202781.0,-11347.5
2021-02-10,-540.0,28.0,-512.0,202269.0,-11859.5
2021-02-11,1236.0,-228.0,1008.0,203277.0,-10851.5
2021-02-12,1923.0,400.0,2323.0,205600.0,-8528.5
2021-02-14,112.0,496.0,608.0,206208.0,-7920.5
2021-02-15,903.0,448.0,1351.0,207559.0,-6569.5
2021-02-16,-3542.0,-784.0,-4326.0,203233.0,-10895.5
2021-02-17,-798.0,292.0,-506.0,202727.0,-11401.5
2021-02-18,-2450.0,-720.0,-3170.0,199557.0,-14571.5
2021-02-19,-1218.0,189.0,-1029.0,198528.0,-15600.5
2021-02-21,560.0,-147.0,413.0,198941.0,-15187.5
2021-02-22,0.0,1316.0,1316.0,200257.0,-13871.5
2021-02-23,0.0,-1162.0,-1162.0,199095.0,-15033.5
2021-02-24,0.0,4074.0,4074.0,203169.0,-10959.5
2021-02-25,0.0,-5292.0,-5292.0,197877.0,-16251.5
2021-02-26,0.0,-2478.0,-2478.0,195399.0,-18729.5
2021-02-28,0.0,518.0,518.0,195917.0,-18211.5
2021-03-01,0.0,1180.0,1180.0,197097.0,-17031.5
2021-03-02,0.0,228.0,228.0,197325.0,-16803.5
2021-03-03,0.0,-1384.0,-1384.0,195941.0,-18187.5
2021-03-04,0.0,-1288.0,-1288.0,194653.0,-19475.5
2021-03-05,0.0,0.0,0.0,194653.0,-19475.5
2021-03-07,0.0,-352.0,-352.0,194301.0,-19827.5
2021-03-08,0.0,2032.0,2032.0,196333.0,-17795.5
2021-03-09,0.0,-724.0,-724.0,195609.0,-18519.5
2021-03-10,0.0,2444.0,2444.0,198053.0,-16075.5
2021-03-11,0.0,704.0,704.0,198757.0,-15371.5
2021-03-12,0.0,404.0,404.0,199161.0,-14967.5
2021-03-14,0.0,204.0,204.0,199365.0,-14763.5
2021-03-15,0.0,292.0,292.0,199657.0,-14471.5
2021-03-16,0.0,-464.0,-464.0,199193.0,-14935.5
2021-03-17,0.0,1132.0,1132.0,200325.0,-13803.5
2021-03-18,0.0,-684.0,-684.0,199641.0,-14487.5
2021-03-19,0.0,-1503.0,-1503.0,198138.0,-15990.5
2021-03-21,0.0,-581.0,-581.0,197557.0,-16571.5
2021-03-22,0.0,1106.0,1106.0,198663.0,-15465.5
2021-03-23,0.0,-1953.0,-1953.0,196710.0,-17418.5
2021-03-24,0.0,749.0,749.0,197459.0,-16669.5
2021-03-25,0.0,1239.0,1239.0,198698.0,-15430.5
2021-03-26,0.0,2590.0,2590.0,201288.0,-12840.5
2021-03-28,0.0,-707.0,-707.0,200581.0,-13547.5
2021-03-29,0.0,1645.0,1645.0,202226.0,-11902.5
2021-03-30,0.0,-1015.0,-1015.0,201211.0,-12917.5
2021-03-31,0.0,-609.0,-609.0,200602.0,-13526.5
2021-04-01,0.0,1197.0,1197.0,201799.0,-12329.5
2021-04-02,0.0,1316.0,1316.0,203115.0,-11013.5
2021-04-04,0.0,300.0,300.0,203415.0,-10713.5
2021-04-05,4240.0,547.5,4787.5,208202.5,-5926.0
2021-04-06,-352.0,135.0,-217.0,207985.5,-6143.0
2021-04-07,700.0,255.0,955.0,208940.5,-5188.0
2021-04-08,2624.0,135.0,2759.0,211699.5,-2429.0
2021-04-09,108.0,1792.5,1900.5,213600.0,-528.5
2021-04-11,-480.0,-390.0,-870.0,212730.0,-1398.5
2021-04-12,616.0,487.5,1103.5,213833.5,-295.0
2021-04-13,2392.0,-900.0,1492.0,215325.5,0.0
2021-04-14,-2484.0,1132.5,-1351.5,213974.0,-1351.5
2021-04-15,3180.0,1567.5,4747.5,218721.5,0.0
2021-04-16,143.0,1207.5,1350.5,220072.0,0.0
2021-04-18,-875.0,-517.5,-1392.5,218679.5,-1392.5
2021-04-19,-2065.0,450.0,-1615.0,217064.5,-3007.5
2021-04-20,-4795.0,-2820.0,-7615.0,209449.5,-10622.5
2021-04-21,3843.0,2325.0,6168.0,215617.5,-4454.5
2021-04-22,-3465.0,-1710.0,-5175.0,210442.5,-9629.5
2021-04-23,4088.0,1200.0,5288.0,215730.5,-4341.5
2021-04-25,133.0,517.5,650.5,216381.0,-3691.0
2021-04-26,3283.0,-577.5,2705.5,219086.5,-985.5
2021-04-27,-1806.0,-480.0,-2286.0,216800.5,-3271.5
2021-04-28,252.0,-232.5,19.5,216820.0,-3252.0
2021-04-29,-1575.0,660.0,-915.0,215905.0,-4167.0
2021-04-30,-1383.0,-742.5,-2125.5,213779.5,-6292.5
2021-05-02,427.5,727.5,1155.0,214934.5,-5137.5
2021-05-03,-3322.5,480.0,-2842.5,212092.0,-7980.0
2021-05-04,-7335.0,1110.0,-6225.0,205867.0,-14205.0
2021-05-05,-727.5,60.0,-667.5,205199.5,-14872.5
2021-05-06,3345.0,2557.5,5902.5,211102.0,-8970.0
2021-05-07,3165.0,1807.5,4972.5,216074.5,-3997.5
2021-05-09,637.5,570.0,1207.5,217282.0,-2790.0
2021-05-10,7.5,-1447.5,-1440.0,215842.0,-4230.0
2021-05-11,0.0,-4800.0,-4800.0,211042.0,-9030.0
2021-05-12,0.0,-7.5,-7.5,211034.5,-9037.5
2021-05-13,0.0,0.0,0.0,211034.5,-9037.5
2021-05-14,0.0,0.0,0.0,211034.5,-9037.5
2021-05-16,0.0,0.0,0.0,211034.5,-9037.5
2021-05-17,0.0,0.0,0.0,211034.5,-9037.5
2021-05-18,0.0,0.0,0.0,211034.5,-9037.5
2021-05-19,0.0,0.0,0.0,211034.5,-9037.5
2021-05-20,0.0,0.0,0.0,211034.5,-9037.5
2021-05-21,0.0,0.0,0.0,211034.5,-9037.5
2021-05-23,0.0,0.0,0.0,211034.5,-9037.5
2021-05-24,0.0,0.0,0.0,211034.5,-9037.5
2021-05-25,0.0,0.0,0.0,211034.5,-9037.5
2021-05-26,0.0,0.0,0.0,211034.5,-9037.5
2021-05-27,0.0,0.0,0.0,211034.5,-9037.5
2021-05-28,0.0,0.0,0.0,211034.5,-9037.5
2021-05-30,0.0,0.0,0.0,211034.5,-9037.5
2021-05-31,0.0,0.0,0.0,211034.5,-9037.5
2021-06-01,0.0,0.0,0.0,211034.5,-9037.5
2021-06-02,0.0,0.0,0.0,211034.5,-9037.5
2021-06-03,0.0,0.0,0.0,211034.5,-9037.5
2021-06-04,4168.0,0.0,4168.0,215202.5,-4869.5
2021-06-06,56.0,0.0,56.0,215258.5,-4813.5
2021-06-07,884.0,0.0,884.0,216142.5,-3929.5
2021-06-08,-92.0,0.0,-92.0,216050.5,-4021.5
2021-06-09,-32.0,0.0,-32.0,216018.5,-4053.5
2021-06-10,2444.0,0.0,2444.0,218462.5,-1609.5
2021-06-11,272.0,0.0,272.0,218734.5,-1337.5
2021-06-13,396.0,0.0,396.0,219130.5,-941.5
2021-06-14,1548.0,0.0,1548.0,220678.5,0.0
2021-06-15,-1200.0,0.0,-1200.0,219478.5,-1200.0
2021-06-16,-2316.0,0.0,-2316.0,217162.5,-3516.0
2021-06-17,4624.0,0.0,4624.0,221786.5,0.0
2021-06-18,-3055.0,0.0,-3055.0,218731.5,-3055.0
2021-06-20,567.0,0.0,567.0,219298.5,-2488.0
2021-06-21,2709.0,0.0,2709.0,222007.5,0.0
2021-06-22,3850.0,0.0,3850.0,225857.5,0.0
2021-06-23,385.0,0.0,385.0,226242.5,0.0
2021-06-24,1687.0,1472.0,3159.0,229401.5,0.0
2021-06-25,-427.0,580.0,153.0,229554.5,0.0
2021-06-27,658.0,-104.0,554.0,230108.5,0.0
2021-06-28,3836.0,-880.0,2956.0,233064.5,0.0
2021-06-29,2688.0,356.0,3044.0,236108.5,0.0
2021-06-30,-763.0,968.0,205.0,236313.5,0.0
2021-07-01,-770.0,352.0,-418.0,235895.5,-418.0
2021-07-02,4660.0,251.0,4911.0,240806.5,0.0
2021-07-04,420.0,-168.0,252.0,241058.5,0.0
2021-07-05,-7.5,742.0,734.5,241793.0,0.0
2021-07-06,1515.0,-2009.0,-494.0,241299.0,-494.0
2021-07-07,1365.0,287.0,1652.0,242951.0,0.0
2021-07-08,-3547.5,-1876.0,-5423.5,237527.5,-5423.5
2021-07-09,3675.0,3808.0,7483.0,245010.5,0.0
2021-07-11,450.0,-441.0,9.0,245019.5,0.0
2021-07-12,1507.5,1246.0,2753.5,247773.0,0.0
2021-07-13,-1042.5,-896.0,-1938.5,245834.5,-1938.5
2021-07-14,1777.5,126.0,1903.5,247738.0,-35.0
2021-07-15,-4417.5,756.0,-3661.5,244076.5,-3696.5
2021-07-16,-2587.5,-2181.0,-4768.5,239308.0,-8465.0
2021-07-18,-825.0,-1080.0,-1905.0,237403.0,-10370.0
2021-07-19,-1597.5,-3847.5,-5445.0,231958.0,-15815.0
2021-07-20,4605.0,3772.5,8377.5,240335.5,-7437.5
2021-07-21,2775.0,2385.0,5160.0,245495.5,-2277.5
2021-07-22,4057.5,315.0,4372.5,249868.0,0.0
2021-07-23,3652.5,1177.5,4830.0,254698.0,0.0
2021-07-25,855.0,-900.0,-45.0,254653.0,-45.0
2021-07-26,-285.0,1372.5,1087.5,255740.5,0.0
2021-07-27,-5737.5,-780.0,-6517.5,249223.0,-6517.5
2021-07-28,2040.0,-397.5,1642.5,250865.5,-4875.0
2021-07-29,-3547.5,352.5,-3195.0,247670.5,-8070.0
2021-07-30,2902.5,0.0,2902.5,250573.0,-5167.5
2021-08-01,1035.0,840.0,1875.0,252448.0,-3292.5
2021-08-02,-1215.0,-1395.0,-2610.0,249838.0,-5902.5
2021-08-03,2092.5,1260.0,3352.5,253190.5,-2550.0
2021-08-04,1582.5,-1627.5,-45.0,253145.5,-2595.0
2021-08-05,2302.5,1252.5,3555.0,256700.5,0.0
2021-08-06,-2032.5,1342.5,-690.0,256010.5,-690.0
2021-08-08,-2122.5,-352.5,-2475.0,253535.5,-3165.0
2021-08-09,2902.5,-817.5,2085.0,255620.5,-1080.0
2021-08-10,-2497.5,1500.0,-997.5,254623.0,-2077.5
2021-08-11,-1192.5,1890.0,697.5,255320.5,-1380.0
2021-08-12,2160.0,105.0,2265.0,257585.5,0.0
2021-08-13,1680.0,7.5,1687.5,259273.0,0.0
2021-08-15,-292.5,-862.5,-1155.0,258118.0,-1155.0
2021-08-16,495.0,1095.0,1590.0,259708.0,0.0
2021-08-17,-5205.0,-1282.5,-6487.5,253220.5,-6487.5
2021-08-18,-3345.0,-2932.5,-6277.5,246943.0,-12765.0
2021-08-19,2137.5,-690.0,1447.5,248390.5,-11317.5
2021-08-20,5347.5,2085.0,7432.5,255823.0,-3885.0
2021-08-22,367.5,997.5,1365.0,257188.0,-2520.0
2021-08-23,6667.5,1162.5,7830.0,265018.0,0.0
2021-08-24,847.5,-585.0,262.5,265280.5,0.0
2021-08-25,120.0,420.0,540.0,265820.5,0.0
2021-08-26,-2505.0,-892.5,-3397.5,262423.0,-3397.5
2021-08-27,4492.5,1537.5,6030.0,268453.0,0.0
2021-08-29,735.0,127.5,862.5,269315.5,0.0
2021-08-30,4372.5,-232.5,4140.0,273455.5,0.0
2021-08-31,-37.5,240.0,202.5,273658.0,0.0
2021-09-01,645.0,-1380.0,-735.0,272923.0,-735.0
2021-09-02,-645.0,1747.5,1102.5,274025.5,0.0
2021-09-03,1695.0,-1042.5,652.5,274678.0,0.0
2021-09-05,-97.5,67.5,-30.0,274648.0,-30.0
2021-09-06,1170.0,397.5,1567.5,276215.5,0.0
2021-09-07,-817.5,-2407.5,-3225.0,272990.5,-3225.0
2021-09-08,-1860.0,-1252.5,-3112.5,269878.0,-6337.5
2021-09-09,-1080.0,330.0,-750.0,269128.0,-7087.5
2021-09-10,-3787.5,-885.0,-4672.5,264455.5,-11760.0
2021-09-12,1402.5,0.0,1402.5,265858.0,-10357.5
2021-09-13,-1177.5,0.0,-1177.5,264680.5,-11535.0
2021-09-14,-1147.5,0.0,-1147.5,263533.0,-12682.5
2021-09-15,2842.5,0.0,2842.5,266375.5,-9840.0
2021-09-16,-607.5,0.0,-607.5,265768.0,-10447.5
2021-09-17,0.0,0.0,0.0,265768.0,-10447.5
2021-09-19,0.0,0.0,0.0,265768.0,-10447.5
2021-09-20,0.0,0.0,0.0,265768.0,-10447.5
2021-09-21,0.0,0.0,0.0,265768.0,-10447.5
2021-09-22,0.0,0.0,0.0,265768.0,-10447.5
2021-09-23,0.0,0.0,0.0,265768.0,-10447.5
2021-09-24,0.0,0.0,0.0,265768.0,-10447.5
2021-09-26,0.0,0.0,0.0,265768.0,-10447.5
2021-09-27,0.0,0.0,0.0,265768.0,-10447.5
2021-09-28,0.0,0.0,0.0,265768.0,-10447.5
2021-09-29,0.0,0.0,0.0,265768.0,-10447.5
2021-09-30,0.0,0.0,0.0,265768.0,-10447.5
2021-10-01,0.0,0.0,0.0,265768.0,-10447.5
2021-10-03,0.0,0.0,0.0,265768.0,-10447.5
2021-10-04,0.0,0.0,0.0,265768.0,-10447.5
2021-10-05,0.0,0.0,0.0,265768.0,-10447.5
2021-10-06,0.0,0.0,0.0,265768.0,-10447.5
2021-10-07,0.0,0.0,0.0,265768.0,-10447.5
2021-10-08,0.0,0.0,0.0,265768.0,-10447.5
2021-10-10,0.0,0.0,0.0,265768.0,-10447.5
2021-10-11,0.0,0.0,0.0,265768.0,-10447.5
2021-10-12,0.0,0.0,0.0,265768.0,-10447.5
2021-10-13,0.0,0.0,0.0,265768.0,-10447.5
2021-10-14,0.0,2112.0,2112.0,267880.0,-8335.5
2021-10-15,0.0,1196.0,1196.0,269076.0,-7139.5
2021-10-17,0.0,-16.0,-16.0,269060.0,-7155.5
2021-10-18,3360.0,-268.0,3092.0,272152.0,-4063.5
2021-10-19,1876.0,868.0,2744.0,274896.0,-1319.5
2021-10-20,-1184.0,392.0,-792.0,274104.0,-2111.5
2021-10-21,904.0,332.0,1236.0,275340.0,-875.5
2021-10-22,-1084.0,-280.0,-1364.0,273976.0,-2239.5
2021-10-24,-284.0,483.0,199.0,274175.0,-2040.5
2021-10-25,3724.0,735.0,4459.0,278634.0,0.0
2021-10-26,336.0,-196.0,140.0,278774.0,0.0
2021-10-27,1060.0,-1386.0,-326.0,278448.0,-326.0
2021-10-28,736.0,1015.0,1751.0,280199.0,0.0
2021-10-29,3961.0,1078.0,5039.0,285238.0,0.0
2021-10-31,322.0,294.0,616.0,285854.0,0.0
2021-11-01,-119.0,-441.0,-560.0,285294.0,-560.0
2021-11-02,1862.0,1211.0,3073.0,288367.0,0.0
2021-11-03,6811.0,812.0,7623.0,295990.0,0.0
2021-11-04,4319.0,-161.0,4158.0,300148.0,0.0
2021-11-05,84.0,1251.5,1335.5,301483.5,0.0
2021-11-07,-868.0,90.0,-778.0,300705.5,-778.0
2021-11-08,-42.0,285.0,243.0,300948.5,-535.0
2021-11-09,-3500.0,-997.5,-4497.5,296451.0,-5032.5
2021-11-10,-5467.0,-975.0,-6442.0,290009.0,-11474.5
2021-11-11,2072.0,-562.5,1509.5,291518.5,-9965.0
2021-11-12,3884.0,1102.5,4986.5,296505.0,-4978.5
2021-11-14,735.0,-135.0,600.0,297105.0,-4378.5
2021-11-15,-1095.0,0.0,-1095.0,296010.0,-5473.5
2021-11-16,3465.0,427.5,3892.5,299902.5,-1581.0
2021-11-17,727.5,-1477.5,-750.0,299152.5,-2331.0
2021-11-18,4995.0,465.0,5460.0,304612.5,0.0
2021-11-19,2767.5,-2587.5,180.0,304792.5,0.0
2021-11-21,15.0,562.5,577.5,305370.0,0.0
2021-11-22,-5760.0,-412.5,-6172.5,299197.5,-6172.5
2021-11-23,-3307.5,622.5,-2685.0,296512.5,-8857.5
2021-11-24,2137.5,1350.0,3487.5,300000.0,-5370.0
2021-11-25,397.5,7.5,405.0,300405.0,-4965.0
2021-11-26,-22.5,0.0,-22.5,300382.5,-4987.5
2021-11-28,0.0,0.0,0.0,300382.5,-4987.5
2021-11-29,0.0,0.0,0.0,300382.5,-4987.5
2021-11-30,0.0,0.0,0.0,300382.5,-4987.5
2021-12-01,0.0,0.0,0.0,300382.5,-4987.5
2021-12-02,0.0,0.0,0.0,300382.5,-4987.5
2021-12-03,0.0,0.0,0.0,300382.5,-4987.5
2021-12-05,0.0,0.0,0.0,300382.5,-4987.5
2021-12-06,0.0,0.0,0.0,300382.5,-4987.5
2021-12-07,0.0,1800.0,1800.0,302182.5,-3187.5
2021-12-08,0.0,-492.0,-492.0,301690.5,-3679.5
2021-12-09,0.0,240.0,240.0,301930.5,-3439.5
2021-12-10,0.0,568.0,568.0,302498.5,-2871.5
2021-12-12,0.0,460.0,460.0,302958.5,-2411.5
2021-12-13,0.0,-1664.0,-1664.0,301294.5,-4075.5
2021-12-14,0.0,-320.0,-320.0,300974.5,-4395.5
2021-12-15,0.0,1460.0,1460.0,302434.5,-2935.5
2021-12-16,0.0,-400.0,-400.0,302034.5,-3335.5
2021-12-17,0.0,-1732.0,-1732.0,300302.5,-5067.5
2021-12-19,0.0,-332.0,-332.0,299970.5,-5399.5
2021-12-20,0.0,0.0,0.0,299970.5,-5399.5
2021-12-21,0.0,0.0,0.0,299970.5,-5399.5
2021-12-22,0.0,1076.0,1076.0,301046.5,-4323.5
2021-12-23,0.0,796.0,796.0,301842.5,-3527.5
2021-12-26,0.0,-60.0,-60.0,301782.5,-3587.5
2021-12-27,3400.0,1252.0,4652.0,306434.5,0.0
2021-12-28,-248.0,604.0,356.0,306790.5,0.0
2021-12-29,-1216.0,280.0,-936.0,305854.5,-936.0
2021-12-30,-400.0,-576.0,-976.0,304878.5,-1912.0
2021-12-31,-1676.0,136.0,-1540.0,303338.5,-3452.0
2022-01-02,602.0,720.0,1322.0,304660.5,-2130.0
2022-01-03,2793.0,1264.0,4057.0,308717.5,0.0
2022-01-04,-7028.0,768.0,-6260.0,302457.5,-6260.0
2022-01-05,7.0,-3384.0,-3377.0,299080.5,-9637.0
2022-01-06,0.0,168.0,168.0,299248.5,-9469.0
2022-01-07,0.0,-740.0,-740.0,298508.5,-10209.0
2022-01-09,0.0,-149.5,-149.5,298359.0,-10358.5
2022-01-10,0.0,-1817.0,-1817.0,296542.0,-12175.5
2022-01-11,0.0,2495.5,2495.5,299037.5,-9680.0
2022-01-12,0.0,-506.0,-506.0,298531.5,-10186.0
2022-01-13,0.0,-1242.0,-1242.0,297289.5,-11428.0
2022-01-14,0.0,-2104.5,-2104.5,295185.0,-13532.5
2022-01-16,0.0,-1069.5,-1069.5,294115.5,-14602.0
2022-01-17,0.0,-264.5,-264.5,293851.0,-14866.5
2022-01-18,0.0,46.0,46.0,293897.0,-14820.5
2022-01-19,0.0,0.0,0.0,293897.0,-14820.5
2022-01-20,0.0,0.0,0.0,293897.0,-14820.5
2022-01-21,0.0,0.0,0.0,293897.0,-14820.5
2022-01-23,0.0,0.0,0.0,293897.0,-14820.5
2022-01-24,0.0,0.0,0.0,293897.0,-14820.5
2022-01-25,0.0,0.0,0.0,293897.0,-14820.5
2022-01-26,0.0,0.0,0.0,293897.0,-14820.5
2022-01-27,0.0,0.0,0.0,293897.0,-14820.5
2022-01-28,0.0,0.0,0.0,293897.0,-14820.5
2022-01-30,0.0,0.0,0.0,293897.0,-14820.5
2022-01-31,0.0,0.0,0.0,293897.0,-14820.5
2022-02-01,0.0,0.0,0.0,293897.0,-14820.5
2022-02-02,0.0,1680.0,1680.0,295577.0,-13140.5
2022-02-03,0.0,-2504.0,-2504.0,293073.0,-15644.5
2022-02-04,0.0,-8.0,-8.0,293065.0,-15652.5
2022-02-06,0.0,0.0,0.0,293065.0,-15652.5
2022-02-07,0.0,0.0,0.0,293065.0,-15652.5
2022-02-08,0.0,0.0,0.0,293065.0,-15652.5
2022-02-09,0.0,1304.0,1304.0,294369.0,-14348.5
2022-02-10,0.0,-5784.0,-5784.0,288585.0,-20132.5
2022-02-11,0.0,8.0,8.0,288593.0,-20124.5
2022-02-13,0.0,0.0,0.0,288593.0,-20124.5
2022-02-14,0.0,0.0,0.0,288593.0,-20124.5
2022-02-15,0.0,0.0,0.0,288593.0,-20124.5
2022-02-16,0.0,0.0,0.0,288593.0,-20124.5
2022-02-17,0.0,0.0,0.0,288593.0,-20124.5
2022-02-18,0.0,0.0,0.0,288593.0,-20124.5
2022-02-20,0.0,0.0,0.0,288593.0,-20124.5
2022-02-21,0.0,0.0,0.0,288593.0,-20124.5
2022-02-22,0.0,0.0,0.0,288593.0,-20124.5
2022-02-23,0.0,0.0,0.0,288593.0,-20124.5
2022-02-24,0.0,0.0,0.0,288593.0,-20124.5
2022-02-25,0.0,0.0,0.0,288593.0,-20124.5
2022-02-27,0.0,0.0,0.0,288593.0,-20124.5
2022-02-28,0.0,0.0,0.0,288593.0,-20124.5
2022-03-01,0.0,0.0,0.0,288593.0,-20124.5
2022-03-02,0.0,0.0,0.0,288593.0,-20124.5
2022-03-03,0.0,0.0,0.0,288593.0,-20124.5
2022-03-04,0.0,0.0,0.0,288593.0,-20124.5
2022-03-06,0.0,0.0,0.0,288593.0,-20124.5
2022-03-07,0.0,0.0,0.0,288593.0,-20124.5
2022-03-08,0.0,0.0,0.0,288593.0,-20124.5
2022-03-09,0.0,0.0,0.0,288593.0,-20124.5
2022-03-10,0.0,0.0,0.0,288593.0,-20124.5
2022-03-11,0.0,0.0,0.0,288593.0,-20124.5
2022-03-13,0.0,0.0,0.0,288593.0,-20124.5
2022-03-14,0.0,0.0,0.0,288593.0,-20124.5
2022-03-15,0.0,0.0,0.0,288593.0,-20124.5
2022-03-16,0.0,0.0,0.0,288593.0,-20124.5
2022-03-17,0.0,0.0,0.0,288593.0,-20124.5
2022-03-18,0.0,0.0,0.0,288593.0,-20124.5
2022-03-20,0.0,0.0,0.0,288593.0,-20124.5
2022-03-21,0.0,0.0,0.0,288593.0,-20124.5
2022-03-22,9128.0,0.0,9128.0,297721.0,-10996.5
2022-03-23,-5397.0,0.0,-5397.0,292324.0,-16393.5
2022-03-24,7728.0,0.0,7728.0,300052.0,-8665.5
2022-03-25,70.0,0.0,70.0,300122.0,-8595.5
2022-03-27,-882.0,0.0,-882.0,299240.0,-9477.5
2022-03-28,7056.0,1760.0,8816.0,308056.0,-661.5
2022-03-29,6958.0,2096.0,9054.0,317110.0,0.0
2022-03-30,-3297.0,72.0,-3225.0,313885.0,-3225.0
2022-03-31,-5355.0,-3328.0,-8683.0,305202.0,-11908.0
2022-04-01,-605.5,-192.0,-797.5,304404.5,-12705.5
2022-04-03,-1449.0,64.0,-1385.0,303019.5,-14090.5
2022-04-04,13996.5,536.0,14532.5,317552.0,0.0
2022-04-05,-13324.5,-2200.0,-15524.5,302027.5,-15524.5
2022-04-06,-16222.5,16.0,-16206.5,285821.0,-31731.0
2022-04-07,4924.5,0.0,4924.5,290745.5,-26806.5
2022-04-08,-9975.0,0.0,-9975.0,280770.5,-36781.5
2022-04-10,241.5,0.0,241.5,281012.0,-36540.0
2022-04-11,0.0,0.0,0.0,281012.0,-36540.0
2022-04-12,0.0,0.0,0.0,281012.0,-36540.0
2022-04-13,0.0,0.0,0.0,281012.0,-36540.0
2022-04-14,0.0,0.0,0.0,281012.0,-36540.0
2022-04-17,0.0,0.0,0.0,281012.0,-36540.0
2022-04-18,0.0,0.0,0.0,281012.0,-36540.0
2022-04-19,0.0,0.0,0.0,281012.0,-36540.0
2022-04-20,0.0,2848.0,2848.0,283860.0,-33692.0
2022-04-21,0.0,-4608.0,-4608.0,279252.0,-38300.0
2022-04-22,0.0,8.0,8.0,279260.0,-38292.0
2022-04-24,0.0,0.0,0.0,279260.0,-38292.0
2022-04-25,0.0,0.0,0.0,279260.0,-38292.0
2022-04-26,0.0,0.0,0.0,279260.0,-38292.0
2022-04-27,0.0,0.0,0.0,279260.0,-38292.0
2022-04-28,0.0,0.0,0.0,279260.0,-38292.0
2022-04-29,0.0,0.0,0.0,279260.0,-38292.0
2022-05-01,0.0,0.0,0.0,279260.0,-38292.0
2022-05-02,0.0,0.0,0.0,279260.0,-38292.0
2022-05-03,0.0,0.0,0.0,279260.0,-38292.0
2022-05-04,0.0,0.0,0.0,279260.0,-38292.0
2022-05-05,0.0,0.0,0.0,279260.0,-38292.0
2022-05-06,0.0,0.0,0.0,279260.0,-38292.0
2022-05-08,0.0,0.0,0.0,279260.0,-38292.0
2022-05-09,0.0,0.0,0.0,279260.0,-38292.0
2022-05-10,0.0,0.0,0.0,279260.0,-38292.0
2022-05-11,0.0,0.0,0.0,279260.0,-38292.0
2022-05-12,0.0,0.0,0.0,279260.0,-38292.0
2022-05-13,0.0,0.0,0.0,279260.0,-38292.0
2022-05-15,0.0,0.0,0.0,279260.0,-38292.0
2022-05-16,0.0,0.0,0.0,279260.0,-38292.0
2022-05-17,0.0,0.0,0.0,279260.0,-38292.0
2022-05-18,0.0,0.0,0.0,279260.0,-38292.0
2022-05-19,0.0,0.0,0.0,279260.0,-38292.0
2022-05-20,0.0,0.0,0.0,279260.0,-38292.0
2022-05-22,0.0,0.0,0.0,279260.0,-38292.0
2022-05-23,0.0,0.0,0.0,279260.0,-38292.0
2022-05-24,0.0,0.0,0.0,279260.0,-38292.0
2022-05-25,0.0,0.0,0.0,279260.0,-38292.0
2022-05-26,0.0,0.0,0.0,279260.0,-38292.0
2022-05-27,0.0,5640.0,5640.0,284900.0,-32652.0
2022-05-29,0.0,-168.0,-168.0,284732.0,-32820.0
2022-05-30,0.0,-288.0,-288.0,284444.0,-33108.0
2022-05-31,0.0,-328.0,-328.0,284116.0,-33436.0
2022-06-01,0.0,-2872.0,-2872.0,281244.0,-36308.0
2022-06-02,11550.0,3624.0,15174.0,296418.0,-21134.0
2022-06-03,-10416.0,-2632.0,-13048.0,283370.0,-34182.0
2022-06-05,0.0,864.0,864.0,284234.0,-33318.0
2022-06-06,1491.0,-1968.0,-477.0,283757.0,-33795.0
2022-06-07,1890.0,2400.0,4290.0,288047.0,-29505.0
2022-06-08,-1295.0,-1448.0,-2743.0,285304.0,-32248.0
2022-06-09,-9408.0,-4600.0,-14008.0,271296.0,-46256.0
2022-06-10,-7.0,-240.0,-247.0,271049.0,-46503.0
2022-06-12,0.0,0.0,0.0,271049.0,-46503.0
2022-06-13,0.0,0.0,0.0,271049.0,-46503.0
2022-06-14,0.0,0.0,0.0,271049.0,-46503.0
2022-06-15,0.0,0.0,0.0,271049.0,-46503.0
2022-06-16,0.0,0.0,0.0,271049.0,-46503.0
2022-06-17,0.0,0.0,0.0,271049.0,-46503.0
2022-06-19,0.0,0.0,0.0,271049.0,-46503.0
2022-06-20,0.0,0.0,0.0,271049.0,-46503.0
2022-06-21,0.0,0.0,0.0,271049.0,-46503.0
2022-06-22,0.0,0.0,0.0,271049.0,-46503.0
2022-06-23,0.0,0.0,0.0,271049.0,-46503.0
2022-06-24,0.0,0.0,0.0,271049.0,-46503.0
2022-06-26,0.0,0.0,0.0,271049.0,-46503.0
2022-06-27,0.0,0.0,0.0,271049.0,-46503.0
2022-06-28,0.0,0.0,0.0,271049.0,-46503.0
2022-06-29,0.0,0.0,0.0,271049.0,-46503.0
2022-06-30,0.0,0.0,0.0,271049.0,-46503.0
2022-07-01,0.0,0.0,0.0,271049.0,-46503.0
2022-07-03,0.0,0.0,0.0,271049.0,-46503.0
2022-07-04,0.0,0.0,0.0,271049.0,-46503.0
2022-07-05,0.0,0.0,0.0,271049.0,-46503.0
2022-07-06,0.0,0.0,0.0,271049.0,-46503.0
2022-07-07,0.0,0.0,0.0,271049.0,-46503.0
2022-07-08,0.0,0.0,0.0,271049.0,-46503.0
2022-07-10,0.0,0.0,0.0,271049.0,-46503.0
2022-07-11,0.0,0.0,0.0,271049.0,-46503.0
2022-07-12,0.0,0.0,0.0,271049.0,-46503.0
2022-07-13,0.0,0.0,0.0,271049.0,-46503.0
2022-07-14,0.0,0.0,0.0,271049.0,-46503.0
2022-07-15,0.0,0.0,0.0,271049.0,-46503.0
2022-07-17,0.0,0.0,0.0,271049.0,-46503.0
2022-07-18,0.0,0.0,0.0,271049.0,-46503.0
2022-07-19,0.0,7064.0,7064.0,278113.0,-39439.0
2022-07-20,3451.0,-1120.0,2331.0,280444.0,-37108.0
2022-07-21,3136.0,1240.0,4376.0,284820.0,-32732.0
2022-07-22,-3381.0,-872.0,-4253.0,280567.0,-36985.0
2022-07-24,-672.0,-88.0,-760.0,279807.0,-37745.0
2022-07-25,-2933.0,40.0,-2893.0,276914.0,-40638.0
2022-07-26,7.0,-144.0,-137.0,276777.0,-40775.0
2022-07-27,0.0,2272.0,2272.0,279049.0,-38503.0
2022-07-28,8848.0,3040.0,11888.0,290937.0,-26615.0
2022-07-29,2289.0,2309.5,4598.5,295535.5,-22016.5
2022-07-31,-1547.0,-1575.5,-3122.5,292413.0,-25139.0
2022-08-01,882.0,-57.5,824.5,293237.5,-24314.5
2022-08-02,-1337.0,-2656.5,-3993.5,289244.0,-28308.0
2022-08-03,9275.0,3634.0,12909.0,302153.0,-15399.0
2022-08-04,2772.0,184.0,2956.0,305109.0,-12443.0
2022-08-05,-3398.5,-609.5,-4008.0,301101.0,-16451.0
2022-08-07,-1554.0,57.5,-1496.5,299604.5,-17947.5
2022-08-08,1806.0,1771.0,3577.0,303181.5,-14370.5
2022-08-09,-7056.0,-1690.5,-8746.5,294435.0,-23117.0
2022-08-10,14542.5,7279.5,21822.0,316257.0,-1295.0
2022-08-11,-2656.5,-218.5,-2875.0,313382.0,-4170.0
2022-08-12,10279.5,4324.0,14603.5,327985.5,0.0
2022-08-14,-1690.5,-782.0,-2472.5,325513.0,-2472.5
2022-08-15,5922.0,2564.5,8486.5,333999.5,0.0
2022-08-16,-1228.5,2909.5,1681.0,335680.5,0.0
2022-08-17,-8253.0,-2104.5,-10357.5,325323.0,-10357.5
2022-08-18,3013.5,-57.5,2956.0,328279.0,-7401.5
2022-08-19,-11655.0,-2748.5,-14403.5,313875.5,-21805.0
2022-08-21,-2614.5,-1380.0,-3994.5,309881.0,-25799.5
2022-08-22,-9733.5,-5451.0,-15184.5,294696.5,-40984.0
2022-08-23,-2530.5,11.5,-2519.0,292177.5,-43503.0
2022-08-24,1638.0,0.0,1638.0,293815.5,-41865.0
2022-08-25,8820.0,0.0,8820.0,302635.5,-33045.0
2022-08-26,21.0,0.0,21.0,302656.5,-33024.0
2022-08-28,0.0,0.0,0.0,302656.5,-33024.0
2022-08-29,0.0,0.0,0.0,302656.5,-33024.0
2022-08-30,0.0,0.0,0.0,302656.5,-33024.0
2022-08-31,0.0,0.0,0.0,302656.5,-33024.0
2022-09-01,0.0,0.0,0.0,302656.5,-33024.0
2022-09-02,0.0,0.0,0.0,302656.5,-33024.0
2022-09-04,0.0,0.0,0.0,302656.5,-33024.0
2022-09-05,0.0,0.0,0.0,302656.5,-33024.0
2022-09-06,0.0,0.0,0.0,302656.5,-33024.0
2022-09-07,0.0,0.0,0.0,302656.5,-33024.0
2022-09-08,0.0,0.0,0.0,302656.5,-33024.0
2022-09-09,0.0,0.0,0.0,302656.5,-33024.0
2022-09-11,0.0,0.0,0.0,302656.5,-33024.0
2022-09-12,0.0,0.0,0.0,302656.5,-33024.0
2022-09-13,0.0,0.0,0.0,302656.5,-33024.0
2022-09-14,0.0,0.0,0.0,302656.5,-33024.0
2022-09-15,0.0,0.0,0.0,302656.5,-33024.0
2022-09-16,0.0,0.0,0.0,302656.5,-33024.0
2022-09-18,0.0,0.0,0.0,302656.5,-33024.0
2022-09-19,0.0,0.0,0.0,302656.5,-33024.0
2022-09-20,0.0,0.0,0.0,302656.5,-33024.0
2022-09-21,0.0,0.0,0.0,302656.5,-33024.0
2022-09-22,0.0,0.0,0.0,302656.5,-33024.0
2022-09-23,0.0,0.0,0.0,302656.5,-33024.0
2022-09-25,0.0,0.0,0.0,302656.5,-33024.0
2022-09-26,0.0,0.0,0.0,302656.5,-33024.0
2022-09-27,0.0,0.0,0.0,302656.5,-33024.0
2022-09-28,0.0,0.0,0.0,302656.5,-33024.0
2022-09-29,0.0,0.0,0.0,302656.5,-33024.0
2022-09-30,0.0,0.0,0.0,302656.5,-33024.0
2022-10-02,0.0,0.0,0.0,302656.5,-33024.0
2022-10-03,0.0,0.0,0.0,302656.5,-33024.0
2022-10-04,0.0,0.0,0.0,302656.5,-33024.0
2022-10-05,0.0,0.0,0.0,302656.5,-33024.0
2022-10-06,0.0,0.0,0.0,302656.5,-33024.0
2022-10-07,0.0,0.0,0.0,302656.5,-33024.0
2022-10-09,0.0,0.0,0.0,302656.5,-33024.0
2022-10-10,0.0,0.0,0.0,302656.5,-33024.0
2022-10-11,0.0,0.0,0.0,302656.5,-33024.0
2022-10-12,0.0,0.0,0.0,302656.5,-33024.0
2022-10-13,0.0,0.0,0.0,302656.5,-33024.0
2022-10-14,0.0,0.0,0.0,302656.5,-33024.0
2022-10-16,0.0,0.0,0.0,302656.5,-33024.0
2022-10-17,0.0,6104.0,6104.0,308760.5,-26920.0
2022-10-18,0.0,1136.0,1136.0,309896.5,-25784.0
2022-10-19,0.0,-2904.0,-2904.0,306992.5,-28688.0
2022-10-20,0.0,-416.0,-416.0,306576.5,-29104.0
2022-10-21,0.0,6944.0,6944.0,313520.5,-22160.0
2022-10-23,0.0,-488.0,-488.0,313032.5,-22648.0
2022-10-24,0.0,3344.0,3344.0,316376.5,-19304.0
2022-10-25,0.0,2104.0,2104.0,318480.5,-17200.0
2022-10-26,0.0,1984.0,1984.0,320464.5,-15216.0
2022-10-27,0.0,400.0,400.0,320864.5,-14816.0
2022-10-28,0.0,7490.5,7490.5,328355.0,-7325.5
2022-10-30,0.0,-1242.0,-1242.0,327113.0,-8567.5
2022-10-31,0.0,23.0,23.0,327136.0,-8544.5
2022-11-01,0.0,-1805.5,-1805.5,325330.5,-10350.0
2022-11-02,0.0,-5623.5,-5623.5,319707.0,-15973.5
2022-11-03,0.0,-2771.5,-2771.5,316935.5,-18745.0
2022-11-04,0.0,4370.0,4370.0,321305.5,-14375.0
2022-11-06,0.0,115.0,115.0,321420.5,-14260.0
2022-11-07,0.0,5278.5,5278.5,326699.0,-8981.5
2022-11-08,0.0,3668.5,3668.5,330367.5,-5313.0
2022-11-09,0.0,-6727.5,-6727.5,323640.0,-12040.5
2022-11-10,0.0,13961.0,13961.0,337601.0,0.0
2022-11-11,4480.0,-414.0,4066.0,341667.0,0.0
2022-11-13,-672.0,-805.0,-1477.0,340190.0,-1477.0
2022-11-14,-1239.0,-218.5,-1457.5,338732.5,-2934.5
2022-11-15,3689.0,-1437.5,2251.5,340984.0,-683.0
2022-11-16,-3325.0,552.0,-2773.0,338211.0,-3456.0
2022-11-17,-1687.0,-747.5,-2434.5,335776.5,-5890.5
2022-11-18,-287.0,2714.0,2427.0,338203.5,-3463.5
2022-11-20,-14.0,-747.5,-761.5,337442.0,-4225.0
2022-11-21,-3220.0,621.0,-2599.0,334843.0,-6824.0
2022-11-22,7.0,4255.0,4262.0,339105.0,-2562.0
2022-11-23,4018.0,1552.5,5570.5,344675.5,0.0
2022-11-24,819.0,-149.5,669.5,345345.0,0.0
2022-11-25,-3745.0,1518.0,-2227.0,343118.0,-2227.0
2022-11-27,-1603.0,-2070.0,-3673.0,339445.0,-5900.0
2022-11-28,-3024.0,-3001.5,-6025.5,333419.5,-11925.5
2022-11-29,-7.0,-471.5,-478.5,332941.0,-12404.0
2022-11-30,0.0,8165.0,8165.0,341106.0,-4239.0
2022-12-01,-924.0,-2576.0,-3500.0,337606.0,-7739.0
2022-12-02,-1687.0,115.0,-1572.0,336034.0,-9311.0
2022-12-04,609.0,483.0,1092.0,337126.0,-8219.0
2022-12-05,-5103.0,-4703.5,-9806.5,327319.5,-18025.5
2022-12-06,-6748.0,-3887.0,-10635.0,316684.5,-28660.5
2022-12-07,14.0,-943.0,-929.0,315755.5,-29589.5
2022-12-08,0.0,2817.5,2817.5,318573.0,-26772.0
2022-12-09,0.0,-4197.5,-4197.5,314375.5,-30969.5
2022-12-11,0.0,2829.0,2829.0,317204.5,-28140.5
2022-12-12,0.0,6233.0,6233.0,323437.5,-21907.5
2022-12-13,3696.0,2449.5,6145.5,329583.0,-15762.0
2022-12-14,-2149.0,-2599.0,-4748.0,324835.0,-20510.0
2022-12-15,-11879.0,-9901.5,-21780.5,303054.5,-42290.5
2022-12-16,0.0,23.0,23.0,303077.5,-42267.5
2022-12-18,0.0,0.0,0.0,303077.5,-42267.5
2022-12-19,0.0,0.0,0.0,303077.5,-42267.5
2022-12-20,0.0,0.0,0.0,303077.5,-42267.5
2022-12-21,0.0,0.0,0.0,303077.5,-42267.5
2022-12-22,0.0,0.0,0.0,303077.5,-42267.5
2022-12-23,0.0,0.0,0.0,303077.5,-42267.5
2022-12-26,0.0,0.0,0.0,303077.5,-42267.5
2022-12-27,0.0,0.0,0.0,303077.5,-42267.5
2022-12-28,0.0,0.0,0.0,303077.5,-42267.5
2022-12-29,0.0,0.0,0.0,303077.5,-42267.5
2022-12-30,0.0,0.0,0.0,303077.5,-42267.5
2023-01-02,0.0,0.0,0.0,303077.5,-42267.5
2023-01-03,0.0,0.0,0.0,303077.5,-42267.5
2023-01-04,0.0,0.0,0.0,303077.5,-42267.5
2023-01-05,0.0,0.0,0.0,303077.5,-42267.5
2023-01-06,0.0,0.0,0.0,303077.5,-42267.5
2023-01-08,0.0,0.0,0.0,303077.5,-42267.5
2023-01-09,0.0,0.0,0.0,303077.5,-42267.5
2023-01-10,0.0,0.0,0.0,303077.5,-42267.5
2023-01-11,0.0,0.0,0.0,303077.5,-42267.5
2023-01-12,0.0,0.0,0.0,303077.5,-42267.5
2023-01-13,0.0,0.0,0.0,303077.5,-42267.5
2023-01-15,0.0,0.0,0.0,303077.5,-42267.5
2023-01-16,0.0,0.0,0.0,303077.5,-42267.5
2023-01-17,0.0,0.0,0.0,303077.5,-42267.5
2023-01-18,0.0,0.0,0.0,303077.5,-42267.5
2023-01-19,0.0,0.0,0.0,303077.5,-42267.5
2023-01-20,7014.0,0.0,7014.0,310091.5,-35253.5
2023-01-22,-432.0,0.0,-432.0,309659.5,-35685.5
2023-01-23,6246.0,0.0,6246.0,315905.5,-29439.5
2023-01-24,-1884.0,0.0,-1884.0,314021.5,-31323.5
2023-01-25,1614.0,0.0,1614.0,315635.5,-29709.5
2023-01-26,3180.0,0.0,3180.0,318815.5,-26529.5
2023-01-27,4320.0,0.0,4320.0,323135.5,-22209.5
2023-01-29,-342.0,0.0,-342.0,322793.5,-22551.5
2023-01-30,-4878.0,0.0,-4878.0,317915.5,-27429.5
2023-01-31,2424.0,0.0,2424.0,320339.5,-25005.5
2023-02-01,10608.0,0.0,10608.0,330947.5,-14397.5
2023-02-02,2838.0,0.0,2838.0,333785.5,-11559.5
2023-02-03,-1010.0,0.0,-1010.0,332775.5,-12569.5
2023-02-05,-978.5,0.0,-978.5,331797.0,-13548.0
2023-02-06,-2080.5,0.0,-2080.5,329716.5,-15628.5
2023-02-07,8132.0,0.0,8132.0,337848.5,-7496.5
2023-02-08,-7182.0,0.0,-7182.0,330666.5,-14678.5
2023-02-09,-4797.5,0.0,-4797.5,325869.0,-19476.0
2023-02-10,-3733.5,0.0,-3733.5,322135.5,-23209.5
2023-02-12,-1130.5,0.0,-1130.5,321005.0,-24340.0
2023-02-13,8816.0,0.0,8816.0,329821.0,-15524.0
2023-02-14,2622.0,0.0,2622.0,332443.0,-12902.0
2023-02-15,5272.5,0.0,5272.5,337715.5,-7629.5
2023-02-16,-12122.0,0.0,-12122.0,325593.5,-19751.5
2023-02-17,-1681.5,0.0,-1681.5,323912.0,-21433.0
2023-02-19,-902.5,0.0,-902.5,323009.5,-22335.5
2023-02-20,731.5,0.0,731.5,323741.0,-21604.0
2023-02-21,-10051.0,0.0,-10051.0,313690.0,-31655.0
2023-02-22,2023.5,0.0,2023.5,315713.5,-29631.5
2023-02-23,237.5,0.0,237.5,315951.0,-29394.0
2023-02-24,-6650.0,0.0,-6650.0,309301.0,-36044.0
2023-02-26,703.0,0.0,703.0,310004.0,-35341.0
2023-02-27,2888.0,0.0,2888.0,312892.0,-32453.0
2023-02-28,-2707.5,0.0,-2707.5,310184.5,-35160.5
2023-03-01,-1928.5,0.0,-1928.5,308256.0,-37089.0
2023-03-02,2498.5,0.0,2498.5,310754.5,-34590.5
2023-03-03,10991.5,0.0,10991.5,321746.0,-23599.0
2023-03-05,-1301.5,0.0,-1301.5,320444.5,-24900.5
2023-03-06,1453.5,0.0,1453.5,321898.0,-23447.0
2023-03-07,-5852.0,0.0,-5852.0,316046.0,-29299.0
2023-03-08,1843.0,0.0,1843.0,317889.0,-27456.0
2023-03-09,-9091.5,0.0,-9091.5,308797.5,-36547.5
2023-03-10,0.0,0.0,0.0,308797.5,-36547.5
2023-03-12,0.0,0.0,0.0,308797.5,-36547.5
2023-03-13,0.0,0.0,0.0,308797.5,-36547.5
2023-03-14,0.0,0.0,0.0,308797.5,-36547.5
2023-03-15,0.0,0.0,0.0,308797.5,-36547.5
2023-03-16,7680.0,0.0,7680.0,316477.5,-28867.5
2023-03-17,-1770.0,0.0,-1770.0,314707.5,-30637.5
2023-03-19,1350.0,0.0,1350.0,316057.5,-29287.5
2023-03-20,-312.0,0.0,-312.0,315745.5,-29599.5
2023-03-21,4212.0,0.0,4212.0,319957.5,-25387.5
2023-03-22,-3594.0,0.0,-3594.0,316363.5,-28981.5
2023-03-23,3510.0,0.0,3510.0,319873.5,-25471.5
2023-03-24,2157.0,0.0,2157.0,322030.5,-23314.5
2023-03-26,893.0,0.0,893.0,322923.5,-22421.5
2023-03-27,-4759.5,0.0,-4759.5,318164.0,-27181.0
2023-03-28,-2394.0,0.0,-2394.0,315770.0,-29575.0
2023-03-29,6973.0,0.0,6973.0,322743.0,-22602.0
2023-03-30,5814.0,0.0,5814.0,328557.0,-16788.0
2023-03-31,8075.0,5764.5,13839.5,342396.5,-2948.5
2023-04-02,-2603.0,-999.0,-3602.0,338794.5,-6550.5
2023-04-03,266.0,4441.5,4707.5,343502.0,-1843.0
2023-04-04,-237.5,-2484.0,-2721.5,340780.5,-4564.5
2023-04-05,-6982.5,0.0,-6982.5,333798.0,-11547.0
2023-04-06,3895.0,229.5,4124.5,337922.5,-7422.5
2023-04-07,807.5,1363.5,2171.0,340093.5,-5251.5
2023-04-09,-931.0,-540.0,-1471.0,338622.5,-6722.5
2023-04-10,608.0,1566.0,2174.0,340796.5,-4548.5
2023-04-11,-3144.5,1026.0,-2118.5,338678.0,-6667.0
2023-04-12,-6004.0,-904.5,-6908.5,331769.5,-13575.5
2023-04-13,9889.5,4590.0,14479.5,346249.0,0.0
2023-04-14,285.0,-486.0,-201.0,346048.0,-201.0
2023-04-16,-484.5,34.0,-450.5,345597.5,-651.5
2023-04-17,-294.5,442.0,147.5,345745.0,-504.0
2023-04-18,-142.5,-867.0,-1009.5,344735.5,-1513.5
2023-04-19,-1786.0,-867.0,-2653.0,342082.5,-4166.5
2023-04-20,-1738.5,-1972.0,-3710.5,338372.0,-7877.0
2023-04-21,-266.0,425.0,159.0,338531.0,-7718.0
2023-04-23,-266.0,-1479.0,-1745.0,336786.0,-9463.0
2023-04-24,-712.5,1853.0,1140.5,337926.5,-8322.5
2023-04-25,-3401.0,-4488.0,-7889.0,330037.5,-16211.5
2023-04-26,-114.0,-4029.0,-4143.0,325894.5,-20354.5
2023-04-27,9623.5,7395.0,17018.5,342913.0,-3336.0
2023-04-28,4436.5,5576.0,10012.5,352925.5,0.0
2023-04-30,-750.5,-68.0,-818.5,352107.0,-818.5
2023-05-01,-817.0,-1071.0,-1888.0,350219.0,-2706.5
2023-05-02,-3933.0,-5491.0,-9424.0,340795.0,-12130.5
2023-05-03,-3211.0,-5066.0,-8277.0,332518.0,-20407.5
2023-05-04,-152.0,0.0,-152.0,332366.0,-20559.5
2023-05-05,8236.5,0.0,8236.5,340602.5,-12323.0
2023-05-07,-237.5,0.0,-237.5,340365.0,-12560.5
2023-05-08,1244.5,0.0,1244.5,341609.5,-11316.0
2023-05-09,-2337.0,0.0,-2337.0,339272.5,-13653.0
2023-05-10,5557.5,0.0,5557.5,344830.0,-8095.5
2023-05-11,1254.0,0.0,1254.0,346084.0,-6841.5
2023-05-12,-3239.5,0.0,-3239.5,342844.5,-10081.0
2023-05-14,-123.5,0.0,-123.5,342721.0,-10204.5
2023-05-15,3496.0,0.0,3496.0,346217.0,-6708.5
2023-05-16,1567.5,0.0,1567.5,347784.5,-5141.0
2023-05-17,5462.5,0.0,5462.5,353247.0,0.0
2023-05-18,10877.5,0.0,10877.5,364124.5,0.0
2023-05-19,-3344.0,0.0,-3344.0,360780.5,-3344.0
2023-05-21,465.5,0.0,465.5,361246.0,-2878.5
2023-05-22,3401.0,0.0,3401.0,364647.0,0.0
2023-05-23,-7400.5,0.0,-7400.5,357246.5,-7400.5
2023-05-24,3752.5,0.0,3752.5,360999.0,-3648.0
2023-05-25,4484.0,0.0,4484.0,365483.0,0.0
2023-05-26,15428.0,0.0,15428.0,380911.0,0.0
2023-05-28,1729.0,0.0,1729.0,382640.0,0.0
2023-05-29,-1159.0,0.0,-1159.0,381481.0,-1159.0
2023-05-30,1358.5,0.0,1358.5,382839.5,0.0
2023-05-31,-4246.5,0.0,-4246.5,378593.0,-4246.5
2023-06-01,6583.5,0.0,6583.5,385176.5,0.0
2023-06-02,3923.5,8883.0,12806.5,397983.0,0.0
2023-06-04,-1900.0,202.5,-1697.5,396285.5,-1697.5
2023-06-05,1111.5,-2929.5,-1818.0,394467.5,-3515.5
2023-06-06,1111.5,229.5,1341.0,395808.5,-2174.5
2023-06-07,-10060.5,405.0,-9655.5,386153.0,-11830.0
2023-06-08,6450.5,2146.5,8597.0,394750.0,-3233.0
2023-06-09,2394.0,904.5,3298.5,398048.5,0.0
2023-06-11,1073.5,270.0,1343.5,399392.0,0.0
2023-06-12,15637.0,6750.0,22387.0,421779.0,0.0
2023-06-13,3895.0,526.5,4421.5,426200.5,0.0
2023-06-14,4142.0,-2457.0,1685.0,427885.5,0.0
2023-06-15,5510.0,5818.5,11328.5,439214.0,0.0
2023-06-16,-2204.0,-1576.0,-3780.0,435434.0,-3780.0
2023-06-18,66.5,-884.0,-817.5,434616.5,-4597.5
2023-06-19,-2071.0,-1105.0,-3176.0,431440.5,-7773.5
2023-06-20,503.5,-2193.0,-1689.5,429751.0,-9463.0
2023-06-21,-8398.0,-2074.0,-10472.0,419279.0,-19935.0
2023-06-22,6868.5,-2669.0,4199.5,423478.5,-15735.5
2023-06-23,-6317.5,-1768.0,-8085.5,415393.0,-23821.0
2023-06-25,1719.5,1394.0,3113.5,418506.5,-20707.5
2023-06-26,-7894.5,-357.0,-8251.5,410255.0,-28959.0
2023-06-27,6317.5,2482.0,8799.5,419054.5,-20159.5
2023-06-28,4294.0,-799.0,3495.0,422549.5,-16664.5
2023-06-29,-2109.0,3587.0,1478.0,424027.5,-15186.5
2023-06-30,7628.5,4624.0,12252.5,436280.0,-2934.0
2023-07-02,1273.0,493.0,1766.0,438046.0,-1168.0
2023-07-03,-503.5,34.0,-469.5,437576.5,-1637.5
2023-07-04,104.5,-731.0,-626.5,436950.0,-2264.0
2023-07-05,665.0,-3366.0,-2701.0,434249.0,-4965.0
2023-07-06,-4997.0,-4573.0,-9570.0,424679.0,-14535.0
2023-07-07,-1320.5,-2771.0,-4091.5,420587.5,-18626.5
2023-07-09,-408.5,-1343.0,-1751.5,418836.0,-20378.0
2023-07-10,437.0,4539.0,4976.0,423812.0,-15402.0
2023-07-11,2745.5,4896.0,7641.5,431453.5,-7760.5
2023-07-12,7875.5,2890.0,10765.5,442219.0,0.0
2023-07-13,9139.0,-1309.0,7830.0,450049.0,0.0
2023-07-14,-760.0,2040.0,1280.0,451329.0,0.0
2023-07-16,-969.0,-51.0,-1020.0,450309.0,-1020.0
2023-07-17,5747.5,1649.0,7396.5,457705.5,0.0
2023-07-18,5434.0,6885.0,12319.0,470024.5,0.0
2023-07-19,-3961.5,1615.0,-2346.5,467678.0,-2346.5
2023-07-20,-10526.0,3332.0,-7194.0,460484.0,-9540.5
2023-07-21,-950.0,-1122.0,-2072.0,458412.0,-11612.5
2023-07-23,-218.5,-51.0,-269.5,458142.5,-11882.0
2023-07-24,693.5,3196.0,3889.5,462032.0,-7992.5
2023-07-25,2669.5,85.0,2754.5,464786.5,-5238.0
2023-07-26,589.0,2057.0,2646.0,467432.5,-2592.0
2023-07-27,-2536.5,-4233.0,-6769.5,460663.0,-9361.5
2023-07-28,9842.0,2261.0,12103.0,472766.0,0.0
2023-07-30,1586.5,-850.0,736.5,473502.5,0.0
2023-07-31,-1026.0,2839.0,1813.0,475315.5,0.0
2023-08-01,-4075.5,-901.0,-4976.5,470339.0,-4976.5
2023-08-02,-9918.0,-2958.0,-12876.0,457463.0,-17852.5
2023-08-03,-408.5,-1632.0,-2040.5,455422.5,-19893.0
2023-08-04,-9.5,-3842.0,-3851.5,451571.0,-23744.5
2023-08-06,0.0,1853.0,1853.0,453424.0,-21891.5
2023-08-07,0.0,4063.0,4063.0,457487.0,-17828.5
2023-08-08,0.0,-1887.0,-1887.0,455600.0,-19715.5
2023-08-09,0.0,-765.0,-765.0,454835.0,-20480.5
2023-08-10,0.0,-1428.0,-1428.0,453407.0,-21908.5
2023-08-11,0.0,1955.0,1955.0,455362.0,-19953.5
2023-08-13,0.0,-1513.0,-1513.0,453849.0,-21466.5
2023-08-14,0.0,1887.0,1887.0,455736.0,-19579.5
2023-08-15,0.0,-6341.0,-6341.0,449395.0,-25920.5
2023-08-16,0.0,17.0,17.0,449412.0,-25903.5
2023-08-17,0.0,0.0,0.0,449412.0,-25903.5
2023-08-18,0.0,0.0,0.0,449412.0,-25903.5
2023-08-20,0.0,0.0,0.0,449412.0,-25903.5
2023-08-21,0.0,0.0,0.0,449412.0,-25903.5
2023-08-22,0.0,0.0,0.0,449412.0,-25903.5
2023-08-23,0.0,0.0,0.0,449412.0,-25903.5
2023-08-24,0.0,0.0,0.0,449412.0,-25903.5
2023-08-25,0.0,0.0,0.0,449412.0,-25903.5
2023-08-27,0.0,0.0,0.0,449412.0,-25903.5
2023-08-28,0.0,0.0,0.0,449412.0,-25903.5
2023-08-29,8106.0,0.0,8106.0,457518.0,-17797.5
2023-08-30,1632.0,0.0,1632.0,459150.0,-16165.5
2023-08-31,804.0,0.0,804.0,459954.0,-15361.5
2023-09-01,-576.0,0.0,-576.0,459378.0,-15937.5
2023-09-03,102.0,0.0,102.0,459480.0,-15835.5
2023-09-04,228.0,0.0,228.0,459708.0,-15607.5
2023-09-05,-102.0,0.0,-102.0,459606.0,-15709.5
2023-09-06,-3138.0,0.0,-3138.0,456468.0,-18847.5
2023-09-07,-2652.0,0.0,-2652.0,453816.0,-21499.5
2023-09-08,1382.0,0.0,1382.0,455198.0,-20117.5
2023-09-10,313.5,0.0,313.5,455511.5,-19804.0
2023-09-11,12758.5,0.0,12758.5,468270.0,-7045.5
2023-09-12,-5814.0,0.0,-5814.0,462456.0,-12859.5
2023-09-13,2812.0,0.0,2812.0,465268.0,-10047.5
2023-09-14,3705.0,4657.5,8362.5,473630.5,-1685.0
2023-09-15,-11172.0,-5292.0,-16464.0,457166.5,-18149.0
2023-09-17,1140.0,-27.0,1113.0,458279.5,-17036.0
2023-09-18,427.5,0.0,427.5,458707.0,-16608.5
2023-09-19,-1558.0,0.0,-1558.0,457149.0,-18166.5
2023-09-20,-10250.5,0.0,-10250.5,446898.5,-28417.0
2023-09-21,-28.5,0.0,-28.5,446870.0,-28445.5
2023-09-22,0.0,0.0,0.0,446870.0,-28445.5
2023-09-24,0.0,0.0,0.0,446870.0,-28445.5
2023-09-25,0.0,0.0,0.0,446870.0,-28445.5
2023-09-26,0.0,0.0,0.0,446870.0,-28445.5
2023-09-27,0.0,0.0,0.0,446870.0,-28445.5
2023-09-28,0.0,0.0,0.0,446870.0,-28445.5
2023-09-29,0.0,0.0,0.0,446870.0,-28445.5
2023-10-01,0.0,0.0,0.0,446870.0,-28445.5
2023-10-02,0.0,0.0,0.0,446870.0,-28445.5
2023-10-03,0.0,0.0,0.0,446870.0,-28445.5
2023-10-04,0.0,0.0,0.0,446870.0,-28445.5
2023-10-05,0.0,0.0,0.0,446870.0,-28445.5
2023-10-06,0.0,0.0,0.0,446870.0,-28445.5
2023-10-08,0.0,0.0,0.0,446870.0,-28445.5
2023-10-09,0.0,0.0,0.0,446870.0,-28445.5
2023-10-10,0.0,0.0,0.0,446870.0,-28445.5
2023-10-11,3060.0,0.0,3060.0,449930.0,-25385.5
2023-10-12,-2046.0,0.0,-2046.0,447884.0,-27431.5
2023-10-13,-5358.0,0.0,-5358.0,442526.0,-32789.5
2023-10-15,312.0,0.0,312.0,442838.0,-32477.5
2023-10-16,0.0,0.0,0.0,442838.0,-32477.5
2023-10-17,-1902.0,0.0,-1902.0,440936.0,-34379.5
2023-10-18,-24.0,0.0,-24.0,440912.0,-34403.5
2023-10-19,0.0,0.0,0.0,440912.0,-34403.5
2023-10-20,0.0,0.0,0.0,440912.0,-34403.5
2023-10-22,0.0,0.0,0.0,440912.0,-34403.5
2023-10-23,0.0,0.0,0.0,440912.0,-34403.5
2023-10-24,0.0,0.0,0.0,440912.0,-34403.5
2023-10-25,0.0,0.0,0.0,440912.0,-34403.5
2023-10-26,0.0,0.0,0.0,440912.0,-34403.5
2023-10-27,0.0,0.0,0.0,440912.0,-34403.5
2023-10-29,0.0,0.0,0.0,440912.0,-34403.5
2023-10-30,0.0,0.0,0.0,440912.0,-34403.5
2023-10-31,0.0,0.0,0.0,440912.0,-34403.5
2023-11-01,0.0,0.0,0.0,440912.0,-34403.5
2023-11-02,0.0,7776.0,7776.0,448688.0,-26627.5
2023-11-03,5784.0,2889.0,8673.0,457361.0,-17954.5
2023-11-05,-210.0,-67.5,-277.5,457083.5,-18232.0
2023-11-06,792.0,-1080.0,-288.0,456795.5,-18520.0
2023-11-07,3828.0,1539.0,5367.0,462162.5,-13153.0
2023-11-08,-246.0,-256.5,-502.5,461660.0,-13655.5
2023-11-09,-3006.0,-2416.5,-5422.5,456237.5,-19078.0
2023-11-10,8364.0,3964.0,12328.0,468565.5,-6750.0
2023-11-12,-504.0,-1462.0,-1966.0,466599.5,-8716.0
2023-11-13,-42.0,2941.0,2899.0,469498.5,-5817.0
2023-11-14,8310.0,9418.0,17728.0,487226.5,0.0
2023-11-15,-954.0,1258.0,304.0,487530.5,0.0
2023-11-16,498.0,748.0,1246.0,488776.5,0.0
2023-11-17,-271.5,-1173.0,-1444.5,487332.0,-1444.5
2023-11-19,-389.5,204.0,-185.5,487146.5,-1630.0
2023-11-20,9006.0,3876.0,12882.0,500028.5,0.0
2023-11-21,-5567.0,-867.0,-6434.0,493594.5,-6434.0
2023-11-22,3477.0,2074.0,5551.0,499145.5,-883.0
2023-11-23,712.5,646.0,1358.5,500504.0,0.0
2023-11-24,-2042.5,1666.0,-376.5,500127.5,-376.5
2023-11-26,-931.0,-1445.0,-2376.0,497751.5,-2752.5
2023-11-27,893.0,527.0,1420.0,499171.5,-1332.5
2023-11-28,1653.0,2023.0,3676.0,502847.5,0.0
2023-11-29,-237.5,1989.0,1751.5,504599.0,0.0
2023-11-30,-3135.0,7055.0,3920.0,508519.0,0.0
2023-12-01,2527.0,5015.0,7542.0,516061.0,0.0
2023-12-03,-1482.0,-357.0,-1839.0,514222.0,-1839.0
2023-12-04,-5415.0,-1683.0,-7098.0,507124.0,-8937.0
2023-12-05,2983.0,884.0,3867.0,510991.0,-5070.0
2023-12-06,-4237.0,-2941.0,-7178.0,503813.0,-12248.0
2023-12-07,7733.0,1666.0,9399.0,513212.0,-2849.0
2023-12-08,2755.0,1734.0,4489.0,517701.0,0.0
2023-12-10,456.0,6018.0,6474.0,524175.0,0.0
2023-12-11,13309.5,3060.0,16369.5,540544.5,0.0
2023-12-12,5880.5,3247.0,9127.5,549672.0,0.0
2023-12-13,7847.0,9894.0,17741.0,567413.0,0.0
2023-12-14,-2109.0,1700.0,-409.0,567004.0,-409.0
2023-12-15,2109.0,-459.0,1650.0,568654.0,0.0
2023-12-17,294.5,1241.0,1535.5,570189.5,0.0
2023-12-18,3819.0,-1173.0,2646.0,572835.5,0.0
2023-12-19,3933.0,4488.0,8421.0,581256.5,0.0
2023-12-20,-8208.0,-6817.0,-15025.0,566231.5,-15025.0
2023-12-21,4949.5,1666.0,6615.5,572847.0,-8409.5
2023-12-22,779.0,1224.0,2003.0,574850.0,-6406.5
2023-12-25,1577.0,1343.0,2920.0,577770.0,-3486.5
2023-12-26,3249.0,1819.0,5068.0,582838.0,0.0
2023-12-27,1225.5,2057.0,3282.5,586120.5,0.0
2023-12-28,-798.0,595.0,-203.0,585917.5,-203.0
2023-12-29,-3676.5,-1377.0,-5053.5,580864.0,-5256.5
2024-01-01,1493.5,1775.0,3268.5,584132.5,-1988.0
2024-01-02,-17704.5,-1600.0,-19304.5,564828.0,-21292.5
2024-01-03,14.5,-6175.0,-6160.5,558667.5,-27453.0
2024-01-04,0.0,325.0,325.0,558992.5,-27128.0
2024-01-05,0.0,-700.0,-700.0,558292.5,-27828.0
2024-01-07,0.0,-3025.0,-3025.0,555267.5,-30853.0
2024-01-08,0.0,7325.0,7325.0,562592.5,-23528.0
2024-01-09,0.0,-4150.0,-4150.0,558442.5,-27678.0
2024-01-10,0.0,6875.0,6875.0,565317.5,-20803.0
2024-01-11,0.0,-2500.0,-2500.0,562817.5,-23303.0
2024-01-12,0.0,-3375.0,-3375.0,559442.5,-26678.0
2024-01-14,0.0,1600.0,1600.0,561042.5,-25078.0
2024-01-15,0.0,-3575.0,-3575.0,557467.5,-28653.0
2024-01-16,1914.0,-4550.0,-2636.0,554831.5,-31289.0
2024-01-17,-5522.0,-1900.0,-7422.0,547409.5,-38711.0
2024-01-18,0.0,5200.0,5200.0,552609.5,-33511.0
2024-01-19,13860.0,10550.0,24410.0,577019.5,-9101.0
2024-01-21,902.0,1375.0,2277.0,579296.5,-6824.0
2024-01-22,-847.0,1925.0,1078.0,580374.5,-5746.0
2024-01-23,4906.0,-1925.0,2981.0,583355.5,-2765.0
2024-01-24,1804.0,-1400.0,404.0,583759.5,-2361.0
2024-01-25,-3278.0,625.0,-2653.0,581106.5,-5014.0
2024-01-26,-1661.0,4300.0,2639.0,583745.5,-2375.0
2024-01-28,-1100.0,-1225.0,-2325.0,581420.5,-4700.0
2024-01-29,10659.0,5975.0,16634.0,598054.5,0.0
2024-01-30,-12045.0,4925.0,-7120.0,590934.5,-7120.0
2024-01-31,-7293.0,-7400.0,-14693.0,576241.5,-21813.0
2024-02-01,13684.0,7350.0,21034.0,597275.5,-779.0
2024-02-02,3156.5,2750.0,5906.5,603182.0,0.0
2024-02-04,1247.0,-1550.0,-303.0,602879.0,-303.0
2024-02-05,-652.5,-5325.0,-5977.5,596901.5,-6280.5
2024-02-06,-2566.5,3975.0,1408.5,598310.0,-4872.0
2024-02-07,11049.0,3925.0,14974.0,613284.0,0.0
2024-02-08,1435.5,200.0,1635.5,614919.5,0.0
2024-02-09,9889.0,-1800.0,8089.0,623008.5,0.0
2024-02-11,-159.5,525.0,365.5,623374.0,0.0
2024-02-12,-5669.5,2250.0,-3419.5,619954.5,-3419.5
2024-02-13,-14326.0,-12800.0,-27126.0,592828.5,-30545.5
2024-02-14,10933.0,4475.0,15408.0,608236.5,-15137.5
2024-02-15,4277.5,7550.0,11827.5,620064.0,-3310.0
2024-02-16,-13412.5,-3450.0,-16862.5,603201.5,-20172.5
2024-02-18,3262.5,1500.0,4762.5,607964.0,-15410.0
2024-02-19,-1696.5,-3350.0,-5046.5,602917.5,-20456.5
2024-02-20,-10440.0,425.0,-10015.0,592902.5,-30471.5
2024-02-21,7873.5,3075.0,10948.5,603851.0,-19523.0
2024-02-22,19575.0,11150.0,30725.0,634576.0,0.0
2024-02-23,-4669.0,-500.0,-5169.0,629407.0,-5169.0
2024-02-25,1247.0,-275.0,972.0,630379.0,-4197.0
2024-02-26,-1131.0,-1025.0,-2156.0,628223.0,-6353.0
2024-02-27,2436.0,-2800.0,-364.0,627859.0,-6717.0
2024-02-28,-7844.5,300.0,-7544.5,620314.5,-14261.5
2024-02-29,11005.5,1625.0,12630.5,632945.0,-1631.0
2024-03-01,15196.0,400.0,15596.0,648541.0,0.0
2024-03-03,1276.0,100.0,1376.0,649917.0,0.0
2024-03-04,-6974.5,-3025.0,-9999.5,639917.5,-9999.5
2024-03-05,-15123.5,-8950.0,-24073.5,615844.0,-34073.0
2024-03-06,3248.0,1375.0,4623.0,620467.0,-29450.0
2024-03-07,14369.5,3725.0,18094.5,638561.5,-11355.5
2024-03-08,-12238.0,-750.0,-12988.0,625573.5,-24343.5
2024-03-10,-725.0,8850.0,8125.0,633698.5,-16218.5
2024-03-11,14572.5,3550.0,18122.5,651821.0,0.0
2024-03-12,10701.0,4375.0,15076.0,666897.0,0.0
2024-03-13,-6119.0,2375.0,-3744.0,663153.0,-3744.0
2024-03-14,-7801.0,-5100.0,-12901.0,650252.0,-16645.0
2024-03-15,-10150.0,-5025.0,-15175.0,635077.0,-31820.0
2024-03-17,899.0,650.0,1549.0,636626.0,-30271.0
2024-03-18,6525.0,950.0,7475.0,644101.0,-22796.0
2024-03-19,4466.0,8000.0,12466.0,656567.0,-10330.0
2024-03-20,17994.5,13250.0,31244.5,687811.5,0.0
2024-03-21,594.5,4175.0,4769.5,692581.0,0.0
2024-03-22,-1450.0,-9900.0,-11350.0,681231.0,-11350.0
2024-03-24,1276.0,-450.0,826.0,682057.0,-10524.0
2024-03-25,-2639.0,-2175.0,-4814.0,677243.0,-15338.0
2024-03-26,-2972.5,1725.0,-1247.5,675995.5,-16585.5
2024-03-27,-522.0,8050.0,7528.0,683523.5,-9057.5
2024-03-28,-870.0,750.0,-120.0,683403.5,-9177.5
2024-03-31,8308.5,4400.0,12708.5,696112.0,0.0
2024-04-01,-8018.5,-13800.0,-21818.5,674293.5,-21818.5
2024-04-02,-8221.5,-7650.0,-15871.5,658422.0,-37690.0
2024-04-03,6800.5,1925.0,8725.5,667147.5,-28964.5
2024-04-04,-20546.5,50.0,-20496.5,646651.0,-49461.0
2024-04-05,12702.0,0.0,12702.0,659353.0,-36759.0
2024-04-07,493.0,0.0,493.0,659846.0,-36266.0
2024-04-08,-1000.5,0.0,-1000.5,658845.5,-37266.5
2024-04-09,3842.5,0.0,3842.5,662688.0,-33424.0
2024-04-10,-12151.0,0.0,-12151.0,650537.0,-45575.0
2024-04-11,19241.5,0.0,19241.5,669778.5,-26333.5
2024-04-12,-18487.5,0.0,-18487.5,651291.0,-44821.0
2024-04-14,3842.5,0.0,3842.5,655133.5,-40978.5
2024-04-15,14.5,0.0,14.5,655148.0,-40964.0
2024-04-16,0.0,0.0,0.0,655148.0,-40964.0
2024-04-17,0.0,0.0,0.0,655148.0,-40964.0
2024-04-18,0.0,0.0,0.0,655148.0,-40964.0
2024-04-19,0.0,0.0,0.0,655148.0,-40964.0
2024-04-21,0.0,0.0,0.0,655148.0,-40964.0
2024-04-22,0.0,0.0,0.0,655148.0,-40964.0
2024-04-23,0.0,0.0,0.0,655148.0,-40964.0
2024-04-24,0.0,0.0,0.0,655148.0,-40964.0
2024-04-25,0.0,0.0,0.0,655148.0,-40964.0
2024-04-26,0.0,0.0,0.0,655148.0,-40964.0
2024-04-28,0.0,0.0,0.0,655148.0,-40964.0
2024-04-29,0.0,0.0,0.0,655148.0,-40964.0
2024-04-30,0.0,0.0,0.0,655148.0,-40964.0
2024-05-01,0.0,0.0,0.0,655148.0,-40964.0
2024-05-02,0.0,0.0,0.0,655148.0,-40964.0
2024-05-03,0.0,0.0,0.0,655148.0,-40964.0
2024-05-05,0.0,0.0,0.0,655148.0,-40964.0
2024-05-06,7876.0,0.0,7876.0,663024.0,-33088.0
2024-05-07,902.0,0.0,902.0,663926.0,-32186.0
2024-05-08,-1870.0,0.0,-1870.0,662056.0,-34056.0
2024-05-09,3058.0,8643.0,11701.0,673757.0,-22355.0
2024-05-10,363.0,1075.0,1438.0,675195.0,-20917.0
2024-05-12,264.0,494.5,758.5,675953.5,-20158.5
2024-05-13,1683.0,-1913.5,-230.5,675723.0,-20389.0
2024-05-14,5863.0,3547.5,9410.5,685133.5,-10978.5
2024-05-15,13376.0,8729.0,22105.0,707238.5,0.0
2024-05-16,-3069.0,-2924.0,-5993.0,701245.5,-5993.0
2024-05-17,-588.0,3258.5,2670.5,703916.0,-3322.5
2024-05-19,1928.5,950.0,2878.5,706794.5,-444.0
2024-05-20,4915.5,-5650.0,-734.5,706060.0,-1178.5
2024-05-21,3581.5,1700.0,5281.5,711341.5,0.0
2024-05-22,3552.5,-4050.0,-497.5,710844.0,-497.5
2024-05-23,-10077.5,0.0,-10077.5,700766.5,-10575.0
2024-05-24,9889.0,0.0,9889.0,710655.5,-686.0
2024-05-26,-2044.5,0.0,-2044.5,708611.0,-2730.5
2024-05-27,4161.5,0.0,4161.5,712772.5,0.0
2024-05-28,1261.5,0.0,1261.5,714034.0,0.0
2024-05-29,-11977.0,0.0,-11977.0,702057.0,-11977.0
2024-05-30,-9541.0,0.0,-9541.0,692516.0,-21518.0
2024-05-31,739.5,0.0,739.5,693255.5,-20778.5
2024-06-02,1174.5,0.0,1174.5,694430.0,-19604.0
2024-06-03,3393.0,0.0,3393.0,697823.0,-16211.0
2024-06-04,5060.5,0.0,5060.5,702883.5,-11150.5
2024-06-05,20503.0,0.0,20503.0,723386.5,0.0
2024-06-06,-942.5,0.0,-942.5,722444.0,-942.5
2024-06-07,-2552.0,0.0,-2552.0,719892.0,-3494.5
2024-06-09,-232.0,0.0,-232.0,719660.0,-3726.5
2024-06-10,3349.5,0.0,3349.5,723009.5,-377.0
2024-06-11,9976.0,0.0,9976.0,732985.5,0.0
2024-06-12,19923.0,0.0,19923.0,752908.5,0.0
2024-06-13,1058.5,0.0,1058.5,753967.0,0.0
2024-06-14,4509.5,0.0,4509.5,758476.5,0.0
2024-06-16,884.5,0.0,884.5,759361.0,0.0
2024-06-17,28623.0,5869.5,34492.5,793853.5,0.0
2024-06-18,1058.5,-150.5,908.0,794761.5,0.0
2024-06-19,739.5,0.0,739.5,795501.0,0.0
2024-06-20,-9657.0,6987.5,-2669.5,792831.5,-2669.5
2024-06-21,-3509.0,107.5,-3401.5,789430.0,-6071.0
2024-06-23,-43.5,-1763.0,-1806.5,787623.5,-7877.5
2024-06-24,-13717.0,8879.5,-4837.5,782786.0,-12715.0
2024-06-25,11252.0,-8621.5,2630.5,785416.5,-10084.5
2024-06-26,-2726.0,-2042.5,-4768.5,780648.0,-14853.0
2024-06-27,10251.5,2881.0,13132.5,793780.5,-1720.5
2024-06-28,-7453.0,-191.5,-7644.5,786136.0,-9365.0
2024-06-30,-1218.0,-150.0,-1368.0,784768.0,-10733.0
2024-07-01,4234.0,-1825.0,2409.0,787177.0,-8324.0
2024-07-02,12687.5,4825.0,17512.5,804689.5,0.0
2024-07-03,9541.0,-225.0,9316.0,814005.5,0.0
2024-07-04,-681.5,1200.0,518.5,814524.0,0.0
2024-07-05,11585.5,-525.0,11060.5,825584.5,0.0
2024-07-07,14.5,-550.0,-535.5,825049.0,-535.5
2024-07-08,8569.5,2275.0,10844.5,835893.5,0.0
2024-07-09,-2363.5,-3625.0,-5988.5,829905.0,-5988.5
2024-07-10,10657.5,11475.0,22132.5,852037.5,0.0
2024-07-11,-27071.5,1750.0,-25321.5,826716.0,-25321.5
2024-07-12,7264.5,5425.0,12689.5,839405.5,-12632.0
2024-07-14,1174.5,1050.0,2224.5,841630.0,-10407.5
2024-07-15,4161.5,5025.0,9186.5,850816.5,-1221.0
2024-07-16,-3857.0,17975.0,14118.0,864934.5,0.0
2024-07-17,0.0,7650.0,7650.0,872584.5,0.0
2024-07-18,0.0,-15350.0,-15350.0,857234.5,-15350.0
2024-07-19,0.0,-10825.0,-10825.0,846409.5,-26175.0
2024-07-21,0.0,800.0,800.0,847209.5,-25375.0
2024-07-22,0.0,1750.0,1750.0,848959.5,-23625.0
2024-07-23,0.0,-3225.0,-3225.0,845734.5,-26850.0
2024-07-24,0.0,75.0,75.0,845809.5,-26775.0
2024-07-25,0.0,0.0,0.0,845809.5,-26775.0
2024-07-26,0.0,0.0,0.0,845809.5,-26775.0
2024-07-28,0.0,0.0,0.0,845809.5,-26775.0
2024-07-29,0.0,0.0,0.0,845809.5,-26775.0
2024-07-30,0.0,0.0,0.0,845809.5,-26775.0
2024-07-31,0.0,0.0,0.0,845809.5,-26775.0
2024-08-01,0.0,0.0,0.0,845809.5,-26775.0
2024-08-02,0.0,0.0,0.0,845809.5,-26775.0
2024-08-04,0.0,0.0,0.0,845809.5,-26775.0
2024-08-05,0.0,0.0,0.0,845809.5,-26775.0
2024-08-06,0.0,0.0,0.0,845809.5,-26775.0
2024-08-07,0.0,0.0,0.0,845809.5,-26775.0
2024-08-08,0.0,0.0,0.0,845809.5,-26775.0
2024-08-09,0.0,0.0,0.0,845809.5,-26775.0
2024-08-11,0.0,0.0,0.0,845809.5,-26775.0
2024-08-12,0.0,0.0,0.0,845809.5,-26775.0
2024-08-13,20339.0,0.0,20339.0,866148.5,-6436.0
2024-08-14,-429.0,0.0,-429.0,865719.5,-6865.0
2024-08-15,22308.0,11997.0,34305.0,900024.5,0.0
2024-08-16,-418.0,1247.0,829.0,900853.5,0.0
2024-08-18,1936.0,150.5,2086.5,902940.0,0.0
2024-08-19,9350.0,4106.5,13456.5,916396.5,0.0
2024-08-20,-3124.0,43.0,-3081.0,913315.5,-3081.0
2024-08-21,6446.0,-731.0,5715.0,919030.5,0.0
2024-08-22,-13101.0,-1526.5,-14627.5,904403.0,-14627.5
2024-08-23,6308.5,8036.5,14345.0,918748.0,-282.5
2024-08-25,-855.5,-875.0,-1730.5,917017.5,-2013.0
2024-08-26,-11121.5,1900.0,-9221.5,907796.0,-11234.5
2024-08-27,913.5,1075.0,1988.5,909784.5,-9246.0
2024-08-28,-22866.5,-2075.0,-24941.5,884843.0,-34187.5
2024-08-29,13760.5,4375.0,18135.5,902978.5,-16052.0
2024-08-30,9512.0,4775.0,14287.0,917265.5,-1765.0
2024-09-01,-464.0,-475.0,-939.0,916326.5,-2704.0
2024-09-02,-319.0,-1025.0,-1344.0,914982.5,-4048.0
2024-09-03,-36134.0,-17250.0,-53384.0,861598.5,-57432.0
2024-09-04,-1435.5,3175.0,1739.5,863338.0,-55692.5
2024-09-05,-1174.5,-4100.0,-5274.5,858063.5,-60967.0
2024-09-06,-58.0,-75.0,-133.0,857930.5,-61100.0
2024-09-08,0.0,0.0,0.0,857930.5,-61100.0
2024-09-09,0.0,0.0,0.0,857930.5,-61100.0
2024-09-10,0.0,0.0,0.0,857930.5,-61100.0
2024-09-11,0.0,0.0,0.0,857930.5,-61100.0
2024-09-12,0.0,0.0,0.0,857930.5,-61100.0
2024-09-13,2255.0,0.0,2255.0,860185.5,-58845.0
2024-09-15,1518.0,0.0,1518.0,861703.5,-57327.0
2024-09-16,5918.0,3397.0,9315.0,871018.5,-48012.0
2024-09-17,1430.0,1075.0,2505.0,873523.5,-45507.0
2024-09-18,2552.0,2343.5,4895.5,878419.0,-40611.5
2024-09-19,12573.0,5418.0,17991.0,896410.0,-22620.5
2024-09-20,-1529.0,21.5,-1507.5,894902.5,-24128.0
2024-09-22,2101.0,1526.5,3627.5,898530.0,-20500.5
2024-09-23,275.0,-1784.5,-1509.5,897020.5,-22010.0
2024-09-24,4895.0,1806.0,6701.0,903721.5,-15309.0
2024-09-25,4312.0,-2881.0,1431.0,905152.5,-13878.0
2024-09-26,2915.0,3483.0,6398.0,911550.5,-7480.0
2024-09-27,-6897.5,1646.0,-5251.5,906299.0,-12731.5
2024-09-29,4582.0,1325.0,5907.0,912206.0,-6824.5
2024-09-30,-1450.0,-1100.0,-2550.0,909656.0,-9374.5
2024-10-01,-18270.0,-5325.0,-23595.0,886061.0,-32969.5
2024-10-02,7090.5,1075.0,8165.5,894226.5,-24804.0
2024-10-03,-4161.5,-3750.0,-7911.5,886315.0,-32715.5
2024-10-04,12774.5,8000.0,20774.5,907089.5,-11941.0
2024-10-06,1580.5,100.0,1680.5,908770.0,-10260.5
2024-10-07,-14355.0,-10550.0,-24905.0,883865.0,-35165.5
2024-10-08,16820.0,3000.0,19820.0,903685.0,-15345.5
2024-10-09,10280.5,12500.0,22780.5,926465.5,0.0
2024-10-10,72.5,-1900.0,-1827.5,924638.0,-1827.5
2024-10-11,-2305.5,8650.0,6344.5,930982.5,0.0
2024-10-13,855.5,1000.0,1855.5,932838.0,0.0
2024-10-14,11875.5,6900.0,18775.5,951613.5,0.0
2024-10-15,-16240.0,-10125.0,-26365.0,925248.5,-26365.0
2024-10-16,-2204.0,6700.0,4496.0,929744.5,-21869.0
2024-10-17,5292.5,4925.0,10217.5,939962.0,-11651.5
2024-10-18,4596.5,1350.0,5946.5,945908.5,-5705.0
2024-10-20,1696.5,300.0,1996.5,947905.0,-3708.5
2024-10-21,130.5,-10825.0,-10694.5,937210.5,-14403.0
2024-10-22,797.5,-1950.0,-1152.5,936058.0,-15555.5
2024-10-23,-13891.0,-9050.0,-22941.0,913117.0,-38496.5
2024-10-24,5278.0,-2225.0,3053.0,916170.0,-35443.5
2024-10-25,5582.5,75.0,5657.5,921827.5,-29786.0
2024-10-27,7032.5,0.0,7032.5,928860.0,-22753.5
2024-10-28,-5249.0,0.0,-5249.0,923611.0,-28002.5
2024-10-29,13920.0,0.0,13920.0,937531.0,-14082.5
2024-10-30,-18647.0,0.0,-18647.0,918884.0,-32729.5
2024-10-31,-20445.0,0.0,-20445.0,898439.0,-53174.5
2024-11-01,5539.0,0.0,5539.0,903978.0,-47635.5
2024-11-03,-2001.0,0.0,-2001.0,901977.0,-49636.5
2024-11-04,-2711.5,0.0,-2711.5,899265.5,-52348.0
2024-11-05,14833.5,0.0,14833.5,914099.0,-37514.5
2024-11-06,31726.0,22919.0,54645.0,968744.0,0.0
2024-11-07,19473.5,-2386.5,17087.0,985831.0,0.0
2024-11-08,29.0,5246.0,5275.0,991106.0,0.0
2024-11-10,4466.0,774.0,5240.0,996346.0,0.0
2024-11-11,-5104.0,4644.0,-460.0,995886.0,-460.0
2024-11-12,-3248.0,-8041.0,-11289.0,984597.0,-11749.0
2024-11-13,348.0,1397.5,1745.5,986342.5,-10003.5
2024-11-14,-12557.0,-6127.5,-18684.5,967658.0,-28688.0
2024-11-15,-25868.0,-4301.0,-30169.0,937489.0,-58857.0
2024-11-17,3755.5,-325.0,3430.5,940919.5,-55426.5
2024-11-18,3132.0,750.0,3882.0,944801.5,-51544.5
2024-11-19,9323.5,-2825.0,6498.5,951300.0,-45046.0
2024-11-20,-1769.0,225.0,-1544.0,949756.0,-46590.0
2024-11-21,1218.0,12300.0,13518.0,963274.0,-33072.0
2024-11-22,6075.5,11425.0,17500.5,980774.5,-15571.5
2024-11-24,3320.5,5000.0,8320.5,989095.0,-7251.0
2024-11-25,-5887.0,4700.0,-1187.0,987908.0,-8438.0
2024-11-26,8787.0,3550.0,12337.0,1000245.0,0.0
2024-11-27,-9425.0,-2325.0,-11750.0,988495.0,-11750.0
2024-11-28,3741.0,2050.0,5791.0,994286.0,-5959.0
2024-11-29,6017.5,2250.0,8267.5,1002553.5,0.0
2024-12-01,-1566.0,-2000.0,-3566.0,998987.5,-3566.0
2024-12-02,14456.5,-1950.0,12506.5,1011494.0,0.0
2024-12-03,6902.0,1125.0,8027.0,1019521.0,0.0
2024-12-04,10295.0,3625.0,13920.0,1033441.0,0.0
2024-12-05,-3161.0,-6550.0,-9711.0,1023730.0,-9711.0
2024-12-06,10338.5,-3350.0,6988.5,1030718.5,-2722.5
2024-12-08,1377.5,-525.0,852.5,1031571.0,-1870.0
2024-12-09,-11150.5,-5250.0,-16400.5,1015170.5,-18270.5
2024-12-10,-2146.0,-3450.0,-5596.0,1009574.5,-23866.5
2024-12-11,19125.5,-4750.0,14375.5,1023950.0,-9491.0
2024-12-12,-797.5,-3725.0,-4522.5,1019427.5,-14013.5
2024-12-13,928.0,25.0,953.0,1020380.5,-13060.5
2024-12-15,1667.5,0.0,1667.5,1022048.0,-11393.0
2024-12-16,17965.5,0.0,17965.5,1040013.5,0.0
2024-12-17,10164.5,0.0,10164.5,1050178.0,0.0
2024-12-18,0.0,0.0,0.0,1050178.0,0.0
2024-12-19,0.0,0.0,0.0,1050178.0,0.0
2024-12-20,0.0,0.0,0.0,1050178.0,0.0
2024-12-22,0.0,0.0,0.0,1050178.0,0.0
2024-12-23,0.0,0.0,0.0,1050178.0,0.0
2024-12-24,0.0,0.0,0.0,1050178.0,0.0
2024-12-25,0.0,0.0,0.0,1050178.0,0.0
2024-12-26,0.0,0.0,0.0,1050178.0,0.0
2024-12-27,0.0,0.0,0.0,1050178.0,0.0
2024-12-29,0.0,0.0,0.0,1050178.0,0.0
2024-12-30,0.0,0.0,0.0,1050178.0,0.0
2024-12-31,0.0,0.0,0.0,1050178.0,0.0
2025-01-01,0.0,0.0,0.0,1050178.0,0.0
2025-01-02,0.0,0.0,0.0,1050178.0,0.0
2025-01-03,0.0,0.0,0.0,1050178.0,0.0
2025-01-05,0.0,0.0,0.0,1050178.0,0.0
2025-01-06,0.0,0.0,0.0,1050178.0,0.0
2025-01-07,0.0,0.0,0.0,1050178.0,0.0
2025-01-08,0.0,0.0,0.0,1050178.0,0.0
2025-01-09,0.0,0.0,0.0,1050178.0,0.0
2025-01-10,0.0,0.0,0.0,1050178.0,0.0
2025-01-12,0.0,0.0,0.0,1050178.0,0.0
2025-01-13,0.0,0.0,0.0,1050178.0,0.0
2025-01-14,0.0,0.0,0.0,1050178.0,0.0
2025-01-15,0.0,15501.5,15501.5,1065679.5,0.0
2025-01-16,0.0,-1526.5,-1526.5,1064153.0,-1526.5
2025-01-17,0.0,5461.0,5461.0,1069614.0,0.0
2025-01-19,0.0,580.5,580.5,1070194.5,0.0
2025-01-20,0.0,2343.5,2343.5,1072538.0,0.0
2025-01-21,0.0,9610.5,9610.5,1082148.5,0.0
2025-01-22,13083.0,1655.5,14738.5,1096887.0,0.0
2025-01-23,3801.0,8213.0,12014.0,1108901.0,0.0
2025-01-24,-8589.0,-2752.0,-11341.0,1097560.0,-11341.0
2025-01-26,-20370.0,-3975.0,-24345.0,1073215.0,-35686.0
2025-01-27,-21.0,10000.0,9979.0,1083194.0,-25707.0
2025-01-28,0.0,4850.0,4850.0,1088044.0,-20857.0
2025-01-29,0.0,-1075.0,-1075.0,1086969.0,-21932.0
2025-01-30,0.0,2850.0,2850.0,1089819.0,-19082.0
2025-01-31,0.0,-9925.0,-9925.0,1079894.0,-29007.0
2025-02-02,0.0,-17000.0,-17000.0,1062894.0,-46007.0
2025-02-03,0.0,14300.0,14300.0,1077194.0,-31707.0
2025-02-04,0.0,75.0,75.0,1077269.0,-31632.0
2025-02-05,0.0,12350.0,12350.0,1089619.0,-19282.0
2025-02-06,0.0,-6450.0,-6450.0,1083169.0,-25732.0
2025-02-07,-23331.0,-10300.0,-33631.0,1049538.0,-59363.0
2025-02-09,-9303.0,1775.0,-7528.0,1042010.0,-66891.0
2025-02-10,0.0,550.0,550.0,1042560.0,-66341.0
2025-02-11,0.0,4300.0,4300.0,1046860.0,-62041.0
2025-02-12,6531.0,-3500.0,3031.0,1049891.0,-59010.0
2025-02-13,16485.0,8025.0,24510.0,1074401.0,-34500.0
2025-02-14,9954.0,-5625.0,4329.0,1078730.0,-30171.0
2025-02-16,714.0,975.0,1689.0,1080419.0,-28482.0
2025-02-17,756.0,125.0,881.0,1081300.0,-27601.0
2025-02-18,2520.0,75.0,2595.0,1083895.0,-25006.0
2025-02-19,-2772.0,-1775.0,-4547.0,1079348.0,-29553.0
2025-02-20,-4704.0,-8800.0,-13504.0,1065844.0,-43057.0
2025-02-21,-42168.0,50.0,-42118.0,1023726.0,-85175.0
2025-02-23,3465.0,0.0,3465.0,1027191.0,-81710.0
2025-02-24,0.0,0.0,0.0,1027191.0,-81710.0
2025-02-25,0.0,0.0,0.0,1027191.0,-81710.0
2025-02-26,0.0,0.0,0.0,1027191.0,-81710.0
2025-02-27,0.0,0.0,0.0,1027191.0,-81710.0
2025-02-28,0.0,0.0,0.0,1027191.0,-81710.0
2025-03-02,0.0,0.0,0.0,1027191.0,-81710.0
2025-03-03,0.0,0.0,0.0,1027191.0,-81710.0
2025-03-04,0.0,0.0,0.0,1027191.0,-81710.0
2025-03-05,0.0,0.0,0.0,1027191.0,-81710.0
2025-03-06,0.0,0.0,0.0,1027191.0,-81710.0
2025-03-07,0.0,0.0,0.0,1027191.0,-81710.0
2025-03-09,0.0,0.0,0.0,1027191.0,-81710.0
2025-03-10,0.0,0.0,0.0,1027191.0,-81710.0
2025-03-11,0.0,0.0,0.0,1027191.0,-81710.0
2025-03-12,0.0,0.0,0.0,1027191.0,-81710.0
2025-03-13,0.0,0.0,0.0,1027191.0,-81710.0
2025-03-14,0.0,0.0,0.0,1027191.0,-81710.0
2025-03-16,0.0,0.0,0.0,1027191.0,-81710.0
2025-03-17,0.0,0.0,0.0,1027191.0,-81710.0
2025-03-18,0.0,0.0,0.0,1027191.0,-81710.0
2025-03-19,0.0,0.0,0.0,1027191.0,-81710.0
2025-03-20,0.0,0.0,0.0,1027191.0,-81710.0
2025-03-21,0.0,0.0,0.0,1027191.0,-81710.0
2025-03-23,0.0,0.0,0.0,1027191.0,-81710.0
2025-03-24,0.0,0.0,0.0,1027191.0,-81710.0
2025-03-25,0.0,0.0,0.0,1027191.0,-81710.0
2025-03-26,0.0,0.0,0.0,1027191.0,-81710.0
2025-03-27,0.0,0.0,0.0,1027191.0,-81710.0
2025-03-28,0.0,0.0,0.0,1027191.0,-81710.0
2025-03-30,0.0,0.0,0.0,1027191.0,-81710.0
2025-03-31,0.0,0.0,0.0,1027191.0,-81710.0
2025-04-01,0.0,0.0,0.0,1027191.0,-81710.0
2025-04-02,0.0,0.0,0.0,1027191.0,-81710.0
2025-04-03,0.0,0.0,0.0,1027191.0,-81710.0
2025-04-04,0.0,0.0,0.0,1027191.0,-81710.0
2025-04-06,0.0,0.0,0.0,1027191.0,-81710.0
2025-04-07,0.0,0.0,0.0,1027191.0,-81710.0
2025-04-08,0.0,0.0,0.0,1027191.0,-81710.0
2025-04-09,194985.0,76862.5,271847.5,1299038.5,0.0
2025-04-10,-80346.0,-22575.0,-102921.0,1196117.5,-102921.0
2025-04-11,38829.0,14964.0,53793.0,1249910.5,-49128.0
2025-04-13,16296.0,1376.0,17672.0,1267582.5,-31456.0
2025-04-14,-13671.0,4687.0,-8984.0,1258598.5,-40440.0
2025-04-15,-10248.0,-6256.5,-16504.5,1242094.0,-56944.5
2025-04-16,-27363.0,-6966.0,-34329.0,1207765.0,-91273.5
2025-04-17,2310.0,-15157.5,-12847.5,1194917.5,-104121.0
2025-04-20,-9723.0,-8729.0,-18452.0,1176465.5,-122573.0
2025-04-21,-26124.0,-11889.5,-38013.5,1138452.0,-160586.5
2025-04-22,63672.0,29197.0,92869.0,1231321.0,-67717.5
2025-04-23,6573.0,-3096.0,3477.0,1234798.0,-64240.5
2025-04-24,48132.0,13803.0,61935.0,1296733.0,-2305.5
2025-04-25,13076.0,-175.5,12900.5,1309633.5,0.0
2025-04-27,-9849.0,-4950.0,-14799.0,1294834.5,-14799.0
2025-04-28,7276.5,8425.0,15701.5,1310536.0,0.0
2025-04-29,3405.5,3525.0,6930.5,1317466.5,0.0
2025-04-30,34667.5,11325.0,45992.5,1363459.0,0.0
2025-05-01,-12421.5,4900.0,-7521.5,1355937.5,-7521.5
2025-05-02,40204.5,5850.0,46054.5,1401992.0,0.0
2025-05-04,-11294.5,-7025.0,-18319.5,1383672.5,-18319.5
2025-05-05,-7521.5,3450.0,-4071.5,1379601.0,-22391.0
2025-05-06,5782.0,-3825.0,1957.0,1381558.0,-20434.0
2025-05-07,-11294.5,7500.0,-3794.5,1377763.5,-24228.5
2025-05-08,18326.0,875.0,19201.0,1396964.5,-5027.5
2025-05-09,710.5,-2700.0,-1989.5,1394975.0,-7017.0
2025-05-11,30037.0,10375.0,40412.0,1435387.0,0.0
2025-05-12,44639.0,14850.0,59489.0,1494876.0,0.0
2025-05-13,37607.5,-3600.0,34007.5,1528883.5,0.0
2025-05-14,8158.5,-7025.0,1133.5,1530017.0,0.0
2025-05-15,3846.5,10925.0,14771.5,1544788.5,0.0
2025-05-16,-1029.0,3750.0,2721.0,1547509.5,0.0
2025-05-18,-2229.5,-3425.0,-5654.5,1541855.0,-5654.5
2025-05-19,15508.5,10625.0,26133.5,1567988.5,0.0
2025-05-20,-10584.0,-4375.0,-14959.0,1553029.5,-14959.0
2025-05-21,-27881.0,-17750.0,-45631.0,1507398.5,-60590.0
2025-05-22,3087.0,325.0,3412.0,1510810.5,-57178.0
2025-05-23,-22099.0,-7225.0,-29324.0,1481486.5,-86502.0
2025-05-25,23079.0,9275.0,32354.0,1513840.5,-54148.0
2025-05-26,4630.5,-1100.0,3530.5,1517371.0,-50617.5
2025-05-27,22981.0,9700.0,32681.0,1550052.0,-17936.5
2025-05-28,28959.0,7850.0,36809.0,1586861.0,0.0
2025-05-29,-44002.0,-12050.0,-56052.0,1530809.0,-56052.0
2025-05-30,5096.0,1425.0,6521.0,1537330.0,-49531.0
2025-06-01,-6419.0,-3400.0,-9819.0,1527511.0,-59350.0
2025-06-02,18742.5,2075.0,20817.5,1548328.5,-38532.5
2025-06-03,20629.0,8650.0,29279.0,1577607.5,-9253.5
2025-06-04,3528.0,-2250.0,1278.0,1578885.5,-7975.5
2025-06-05,-19134.5,250.0,-18884.5,1560001.0,-26860.0
2025-06-06,25847.5,8550.0,34397.5,1594398.5,0.0
2025-06-08,-4704.0,-2200.0,-6904.0,1587494.5,-6904.0
2025-06-09,6884.5,4425.0,11309.5,1598804.0,0.0
2025-06-10,12029.5,-2675.0,9354.5,1608158.5,0.0
2025-06-11,-11392.5,-1425.0,-12817.5,1595341.0,-12817.5
2025-06-12,-5341.0,-8600.0,-13941.0,1581400.0,-26758.5
2025-06-13,-12740.0,-5900.0,-18640.0,1562760.0,-45398.5
2025-06-15,3258.5,9250.0,12508.5,1575268.5,-32890.0
2025-06-16,32193.0,4550.0,36743.0,1612011.5,0.0
2025-06-17,-10804.5,-4275.0,-15079.5,1596932.0,-15079.5
2025-06-18,4238.5,-2450.0,1788.5,1598720.5,-13291.0
2025-06-19,-6051.5,-1575.0,-7626.5,1591094.0,-20917.5
2025-06-20,-1274.0,4375.0,3101.0,1594195.0,-17816.5
2025-06-22,-11098.5,-4675.0,-15773.5,1578421.5,-33590.0
2025-06-23,46599.0,18475.0,65074.0,1643495.5,0.0
2025-06-24,18424.0,7425.0,25849.0,1669344.5,0.0
2025-06-25,3993.5,-2000.0,1993.5,1671338.0,0.0
2025-06-26,20849.5,11400.0,32249.5,1703587.5,0.0
2025-06-27,6125.0,11250.0,17375.0,1720962.5,0.0
2025-06-29,7546.0,3100.0,10646.0,1731608.5,0.0
2025-06-30,6296.5,-450.0,5846.5,1737455.0,0.0
2025-07-01,-16978.5,12900.0,-4078.5,1733376.5,-4078.5
2025-07-02,13744.5,-1625.0,12119.5,1745496.0,0.0
2025-07-03,18252.5,4600.0,22852.5,1768348.5,0.0
2025-07-04,-12764.5,-3675.0,-16439.5,1751909.0,-16439.5
2025-07-06,7766.5,3350.0,11116.5,1763025.5,-5323.0
2025-07-07,-10755.5,-8625.0,-19380.5,1743645.0,-24703.5
2025-07-08,2670.5,-4125.0,-1454.5,1742190.5,-26158.0
2025-07-09,13107.5,3675.0,16782.5,1758973.0,-9375.5
2025-07-10,931.0,3975.0,4906.0,1763879.0,-4469.5
2025-07-11,-10510.5,-5300.0,-15810.5,1748068.5,-20280.0
2025-07-13,-6933.5,-3850.0,-10783.5,1737285.0,-31063.5
2025-07-14,14210.0,6325.0,20535.0,1757820.0,-10528.5
2025-07-15,269.5,-12200.0,-11930.5,1745889.5,-22459.0
2025-07-16,2572.5,5400.0,7972.5,1753862.0,-14486.5
2025-07-17,23495.5,10275.0,33770.5,1787632.5,0.0
2025-07-18,-5047.0,-6550.0,-11597.0,1776035.5,-11597.0
2025-07-20,3062.5,900.0,3962.5,1779998.0,-7634.5
2025-07-21,8477.0,475.0,8952.0,1788950.0,0.0
2025-07-22,-8305.5,5800.0,-2505.5,1786444.5,-2505.5
2025-07-23,13646.5,6500.0,20146.5,1806591.0,0.0
2025-07-24,514.5,-1375.0,-860.5,1805730.5,-860.5
2025-07-25,4018.0,1425.0,5443.0,1811173.5,0.0
2025-07-27,8526.0,4325.0,12851.0,1824024.5,0.0
2025-07-28,-563.5,-5175.0,-5738.5,1818286.0,-5738.5
2025-07-29,-5267.5,-5075.0,-10342.5,1807943.5,-16081.0
2025-07-30,24524.5,-2350.0,22174.5,1830118.0,0.0
2025-07-31,-41895.0,-12775.0,-54670.0,1775448.0,-54670.0
2025-08-01,73.5,-75.0,-1.5,1775446.5,-54671.5
2025-08-03,0.0,0.0,0.0,1775446.5,-54671.5
2025-08-04,0.0,0.0,0.0,1775446.5,-54671.5
2025-08-05,0.0,0.0,0.0,1775446.5,-54671.5
2025-08-06,0.0,0.0,0.0,1775446.5,-54671.5
2025-08-07,0.0,0.0,0.0,1775446.5,-54671.5
2025-08-08,19110.0,0.0,19110.0,1794556.5,-35561.5
2025-08-10,-4998.0,0.0,-4998.0,1789558.5,-40559.5
2025-08-11,-5964.0,0.0,-5964.0,1783594.5,-46523.5
2025-08-12,27195.0,0.0,27195.0,1810789.5,-19328.5
2025-08-13,-945.0,0.0,-945.0,1809844.5,-20273.5
2025-08-14,-5082.0,5762.0,680.0,1810524.5,-19593.5
2025-08-15,-7749.0,-5848.0,-13597.0,1796927.5,-33190.5
2025-08-17,4578.0,129.0,4707.0,1801634.5,-28483.5
2025-08-18,-3885.0,-3182.0,-7067.0,1794567.5,-35550.5
2025-08-19,-32151.0,43.0,-32108.0,1762459.5,-67658.5
2025-08-20,63.0,0.0,63.0,1762522.5,-67595.5
2025-08-21,0.0,0.0,0.0,1762522.5,-67595.5
2025-08-22,0.0,0.0,0.0,1762522.5,-67595.5
2025-08-24,-2142.0,-1311.5,-3453.5,1759069.0,-71049.0
2025-08-25,-6552.0,-7976.5,-14528.5,1744540.5,-85577.5
2025-08-26,-21.0,5117.0,5096.0,1749636.5,-80481.5
2025-08-27,-8925.0,4171.0,-4754.0,1744882.5,-85235.5
2025-08-28,0.0,-1849.0,-1849.0,1743033.5,-87084.5
2025-08-29,-24612.0,-172.0,-24784.0,1718249.5,-111868.5
2025-08-31,2016.0,-666.5,1349.5,1719599.0,-110519.0
2025-09-01,0.0,-193.5,-193.5,1719405.5,-110712.5
2025-09-02,0.0,-8191.5,-8191.5,1711214.0,-118904.0
2025-09-03,0.0,1161.0,1161.0,1712375.0,-117743.0
2025-09-04,0.0,9331.0,9331.0,1721706.0,-108412.0
2025-09-05,-2793.0,-5021.0,-7814.0,1713892.0,-116226.0
2025-09-07,8799.0,1025.0,9824.0,1723716.0,-106402.0
2025-09-08,2478.0,2950.0,5428.0,1729144.0,-100974.0
2025-09-09,6594.0,2175.0,8769.0,1737913.0,-92205.0
2025-09-10,1260.0,-3475.0,-2215.0,1735698.0,-94420.0
2025-09-11,9954.0,14450.0,24404.0,1760102.0,-70016.0
2025-09-12,8001.0,-7350.0,651.0,1760753.0,-69365.0
2025-09-14,-294.0,8975.0,8681.0,1769434.0,-60684.0
2025-09-15,16296.0,1775.0,18071.0,1787505.0,-42613.0
2025-09-16,19992.0,-4925.0,15067.0,1802572.0,-27546.0
2025-09-17,3444.0,10325.0,13769.0,1816341.0,-13777.0
2025-09-18,13104.0,1525.0,14629.0,1830970.0,0.0
2025-09-19,10426.5,1175.0,11601.5,1842571.5,0.0
2025-09-21,-980.0,-200.0,-1180.0,1841391.5,-1180.0
2025-09-22,14332.5,3050.0,17382.5,1858774.0,0.0
2025-09-23,-15361.5,-1000.0,-16361.5,1842412.5,-16361.5
2025-09-24,-8330.0,-3775.0,-12105.0,1830307.5,-28466.5
2025-09-25,-13622.0,-6425.0,-20047.0,1810260.5,-48513.5
2025-09-26,10853.5,7075.0,17928.5,1828189.0,-30585.0
2025-09-28,4385.5,2850.0,7235.5,1835424.5,-23349.5
2025-09-29,5071.5,-1725.0,3346.5,1838771.0,-20003.0
2025-09-30,612.5,-2625.0,-2012.5,1836758.5,-22015.5
2025-10-01,18840.5,5350.0,24190.5,1860949.0,0.0
2025-10-02,9971.5,4350.0,14321.5,1875270.5,0.0
2025-10-03,-13989.5,3850.0,-10139.5,1865131.0,-10139.5
2025-10-05,8354.5,2200.0,10554.5,1875685.5,0.0
2025-10-06,7374.5,-6575.0,799.5,1876485.0,0.0
2025-10-07,-10633.0,1025.0,-9608.0,1866877.0,-9608.0
2025-10-08,33859.0,-2300.0,31559.0,1898436.0,0.0
2025-10-09,-4312.0,-4275.0,-8587.0,1889849.0,-8587.0
2025-10-10,49.0,25.0,74.0,1889923.0,-8513.0
2025-10-12,0.0,0.0,0.0,1889923.0,-8513.0
2025-10-13,0.0,0.0,0.0,1889923.0,-8513.0
2025-10-14,0.0,0.0,0.0,1889923.0,-8513.0
2025-10-15,0.0,0.0,0.0,1889923.0,-8513.0
2025-10-16,0.0,0.0,0.0,1889923.0,-8513.0
2025-10-17,0.0,0.0,0.0,1889923.0,-8513.0
2025-10-19,0.0,0.0,0.0,1889923.0,-8513.0
2025-10-20,0.0,0.0,0.0,1889923.0,-8513.0
2025-10-21,0.0,0.0,0.0,1889923.0,-8513.0
2025-10-22,0.0,0.0,0.0,1889923.0,-8513.0
2025-10-23,0.0,0.0,0.0,1889923.0,-8513.0
2025-10-24,0.0,8879.5,8879.5,1898802.5,0.0
2025-10-26,1575.0,5848.0,7423.0,1906225.5,0.0
2025-10-27,23310.0,1204.0,24514.0,1930739.5,0.0
2025-10-28,15897.0,2795.0,18692.0,1949431.5,0.0
2025-10-29,4347.0,774.0,5121.0,1954552.5,0.0
2025-10-30,-5481.0,-3827.0,-9308.0,1945244.5,-9308.0
2025-10-31,-15687.0,602.0,-15085.0,1930159.5,-24393.0
2025-11-02,8148.0,924.5,9072.5,1939232.0,-15320.5
2025-11-03,-987.0,-10062.0,-11049.0,1928183.0,-26369.5
2025-11-04,-47481.0,-1397.5,-48878.5,1879304.5,-75248.0
2025-11-05,42.0,4042.0,4084.0,1883388.5,-71164.0
2025-11-06,-38304.0,-7955.0,-46259.0,1837129.5,-117423.0
2025-11-07,0.0,2701.5,2701.5,1839831.0,-114721.5
2025-11-09,0.0,0.0,0.0,1839831.0,-114721.5
2025-11-10,0.0,7800.0,7800.0,1847631.0,-106921.5
2025-11-11,-7707.0,14875.0,7168.0,1854799.0,-99753.5
2025-11-12,21.0,10275.0,10296.0,1865095.0,-89457.5
2025-11-13,0.0,-23175.0,-23175.0,1841920.0,-112632.5
2025-11-14,0.0,-6900.0,-6900.0,1835020.0,-119532.5
2025-11-16,0.0,75.0,75.0,1835095.0,-119457.5
2025-11-17,0.0,0.0,0.0,1835095.0,-119457.5
2025-11-18,0.0,0.0,0.0,1835095.0,-119457.5
2025-11-19,0.0,0.0,0.0,1835095.0,-119457.5
2025-11-20,0.0,0.0,0.0,1835095.0,-119457.5
2025-11-21,0.0,0.0,0.0,1835095.0,-119457.5
2025-11-23,0.0,0.0,0.0,1835095.0,-119457.5
2025-11-24,0.0,0.0,0.0,1835095.0,-119457.5
2025-11-25,0.0,0.0,0.0,1835095.0,-119457.5
2025-11-26,0.0,0.0,0.0,1835095.0,-119457.5
2025-11-27,0.0,0.0,0.0,1835095.0,-119457.5
2025-11-28,0.0,0.0,0.0,1835095.0,-119457.5
2025-11-30,0.0,0.0,0.0,1835095.0,-119457.5
2025-12-01,0.0,0.0,0.0,1835095.0,-119457.5
2025-12-02,0.0,0.0,0.0,1835095.0,-119457.5
2025-12-03,0.0,7675.5,7675.5,1842770.5,-111782.0
2025-12-04,0.0,-1634.0,-1634.0,1841136.5,-113416.0
2025-12-05,0.0,1483.5,1483.5,1842620.0,-111932.5
2025-12-07,0.0,150.5,150.5,1842770.5,-111782.0
2025-12-08,0.0,-4665.5,-4665.5,1838105.0,-116447.5
2025-12-09,0.0,-3397.0,-3397.0,1834708.0,-119844.5
2025-12-10,0.0,0.0,0.0,1834708.0,-119844.5
2025-12-11,0.0,20081.0,20081.0,1854789.0,-99763.5
2025-12-12,0.0,-7052.0,-7052.0,1847737.0,-106815.5
2025-12-14,0.0,10879.0,10879.0,1858616.0,-95936.5
2025-12-15,0.0,-6428.5,-6428.5,1852187.5,-102365.0
2025-12-16,0.0,-6600.5,-6600.5,1845587.0,-108965.5
2025-12-17,0.0,-4386.0,-4386.0,1841201.0,-113351.5
2025-12-18,0.0,408.5,408.5,1841609.5,-112943.0
2025-12-19,0.0,5669.0,5669.0,1847278.5,-107274.0
2025-12-21,0.0,250.0,250.0,1847528.5,-107024.0
2025-12-22,0.0,3575.0,3575.0,1851103.5,-103449.0
2025-12-23,0.0,2000.0,2000.0,1853103.5,-101449.0
2025-12-24,4347.0,7425.0,11772.0,1864875.5,-89677.0
2025-12-25,2142.0,375.0,2517.0,1867392.5,-87160.0
2025-12-26,-2541.0,-750.0,-3291.0,1864101.5,-90451.0
2025-12-28,1092.0,-250.0,842.0,1864943.5,-89609.0
2025-12-29,-13692.0,-6000.0,-19692.0,1845251.5,-109301.0
2025-12-30,21.0,-3175.0,-3154.0,1842097.5,-112455.0
2025-12-31,0.0,-7125.0,-7125.0,1834972.5,-119580.0
2026-01-01,0.0,2675.0,2675.0,1837647.5,-116905.0
2026-01-02,0.0,3700.0,3700.0,1841347.5,-113205.0
2026-01-04,0.0,825.0,825.0,1842172.5,-112380.0
2026-01-05,0.0,15350.0,15350.0,1857522.5,-97030.0
2026-01-06,0.0,13775.0,13775.0,1871297.5,-83255.0
2026-01-07,-150.5,-16025.0,-16175.5,1855122.0,-99430.5
2026-01-08,-12706.5,8600.0,-4106.5,1851015.5,-103537.0
2026-01-09,-43.0,5825.0,5782.0,1856797.5,-97755.0
2026-01-11,-4515.0,-6375.0,-10890.0,1845907.5,-108645.0
2026-01-12,150.5,8025.0,8175.5,1854083.0,-100469.5
2026-01-13,-408.5,-13075.0,-13483.5,1840599.5,-113953.0
2026-01-14,-24553.0,650.0,-23903.0,1816696.5,-137856.0
2026-01-15,0.0,11100.0,11100.0,1827796.5,-126756.0
2026-01-16,0.0,-4775.0,-4775.0,1823021.5,-131531.0
2026-01-18,0.0,-9475.0,-9475.0,1813546.5,-141006.0
2026-01-19,0.0,-2400.0,-2400.0,1811146.5,-143406.0
2026-01-20,0.0,-7900.0,-7900.0,1803246.5,-151306.0
2026-01-21,0.0,14800.0,14800.0,1818046.5,-136506.0
2026-01-22,0.0,6000.0,6000.0,1824046.5,-130506.0
2026-01-23,0.0,-10425.0,-10425.0,1813621.5,-140931.0
2026-01-25,0.0,-1100.0,-1100.0,1812521.5,-142031.0
2026-01-26,0.0,9550.0,9550.0,1822071.5,-132481.0
2026-01-27,21328.0,-9300.0,12028.0,1834099.5,-120453.0
2026-01-28,2730.5,-525.0,2205.5,1836305.0,-118247.5
2026-01-29,-17028.0,-3650.0,-20678.0,1815627.0,-138925.5
2026-01-30,-28659.5,75.0,-28584.5,1787042.5,-167510.0
2026-02-01,-9352.5,-8300.0,-17652.5,1769390.0,-185162.5
2026-02-02,0.0,22950.0,22950.0,1792340.0,-162212.5
2026-02-03,-44763.0,-4125.0,-48888.0,1743452.0,-211100.5
2026-02-04,-43.0,3250.0,3207.0,1746659.0,-207893.5
2026-02-05,0.0,-16450.0,-16450.0,1730209.0,-224343.5
2026-02-06,0.0,33175.0,33175.0,1763384.0,-191168.5
2026-02-08,0.0,2000.0,2000.0,1765384.0,-189168.5
2026-02-09,0.0,-1125.0,-1125.0,1764259.0,-190293.5
2026-02-10,0.0,3900.0,3900.0,1768159.0,-186393.5
2026-02-11,0.0,-1050.0,-1050.0,1767109.0,-187443.5
2026-02-12,0.0,-21325.0,-21325.0,1745784.0,-208768.5
2026-02-13,0.0,675.0,675.0,1746459.0,-208093.5
2026-02-15,0.0,2900.0,2900.0,1749359.0,-205193.5
2026-02-16,0.0,-5350.0,-5350.0,1744009.0,-210543.5
2026-02-17,0.0,5550.0,5550.0,1749559.0,-204993.5
2026-02-18,0.0,1250.0,1250.0,1750809.0,-203743.5
2026-02-19,0.0,-4500.0,-4500.0,1746309.0,-208243.5
2026-02-20,0.0,4025.0,4025.0,1750334.0,-204218.5
2026-02-22,0.0,-8075.0,-8075.0,1742259.0,-212293.5
2026-02-23,0.0,-10550.0,-10550.0,1731709.0,-222843.5
2026-02-24,0.0,7425.0,7425.0,1739134.0,-215418.5
2026-02-25,0.0,5325.0,5325.0,1744459.0,-210093.5
2026-02-26,0.0,-3800.0,-3800.0,1740659.0,-213893.5
2026-02-27,0.0,-9650.0,-9650.0,1731009.0,-223543.5
2026-03-01,0.0,-9775.0,-9775.0,1721234.0,-233318.5
2026-03-02,0.0,0.0,0.0,1721234.0,-233318.5
2026-03-03,0.0,0.0,0.0,1721234.0,-233318.5
2026-03-04,0.0,0.0,0.0,1721234.0,-233318.5
2026-03-05,0.0,0.0,0.0,1721234.0,-233318.5
2026-03-06,0.0,0.0,0.0,1721234.0,-233318.5
2026-03-08,0.0,0.0,0.0,1721234.0,-233318.5
