date,mnq_pnl,mym_pnl,combined_pnl,combined_equity,combined_drawdown
2019-05-05,0.0,0.0,0.0,63114.0,0.0
2019-05-06,0.0,0.0,0.0,63114.0,0.0
2019-05-07,0.0,0.0,0.0,63114.0,0.0
2019-05-08,0.0,0.0,0.0,63114.0,0.0
2019-05-09,0.0,0.0,0.0,63114.0,0.0
2019-05-10,0.0,0.0,0.0,63114.0,0.0
2019-05-12,0.0,0.0,0.0,63114.0,0.0
2019-05-13,0.0,0.0,0.0,63114.0,0.0
2019-05-14,0.0,0.0,0.0,63114.0,0.0
2019-05-15,0.0,0.0,0.0,63114.0,0.0
2019-05-16,0.0,0.0,0.0,63114.0,0.0
2019-05-17,0.0,0.0,0.0,63114.0,0.0
2019-05-19,0.0,0.0,0.0,63114.0,0.0
2019-05-20,0.0,0.0,0.0,63114.0,0.0
2019-05-21,0.0,0.0,0.0,63114.0,0.0
2019-05-22,0.0,0.0,0.0,63114.0,0.0
2019-05-23,0.0,0.0,0.0,63114.0,0.0
2019-05-24,0.0,0.0,0.0,63114.0,0.0
2019-05-26,0.0,0.0,0.0,63114.0,0.0
2019-05-27,0.0,0.0,0.0,63114.0,0.0
2019-05-28,0.0,0.0,0.0,63114.0,0.0
2019-05-29,0.0,0.0,0.0,63114.0,0.0
2019-05-30,0.0,0.0,0.0,63114.0,0.0
2019-05-31,0.0,0.0,0.0,63114.0,0.0
2019-06-02,0.0,0.0,0.0,63114.0,0.0
2019-06-03,0.0,0.0,0.0,63114.0,0.0
2019-06-04,0.0,0.0,0.0,63114.0,0.0
2019-06-05,0.0,82.0,82.0,63196.0,0.0
2019-06-06,0.0,106.5,106.5,63302.5,0.0
2019-06-07,305.5,127.5,433.0,63735.5,0.0
2019-06-09,54.5,18.5,73.0,63808.5,0.0
2019-06-10,103.5,30.5,134.0,63942.5,0.0
2019-06-11,13.0,-39.5,-26.5,63916.0,-26.5
2019-06-12,-48.5,-41.0,-89.5,63826.5,-116.0
2019-06-13,11.5,92.0,103.5,63930.0,-12.5
2019-06-14,-23.0,-14.0,-37.0,63893.0,-49.5
2019-06-16,84.0,63.0,147.0,64040.0,0.0
2019-06-17,73.5,-63.0,10.5,64050.5,0.0
2019-06-18,244.5,386.0,630.5,64681.0,0.0
2019-06-19,84.5,98.0,182.5,64863.5,0.0
2019-06-20,73.0,98.0,171.0,65034.5,0.0
2019-06-21,-79.5,-36.0,-115.5,64919.0,-115.5
2019-06-23,95.0,90.0,185.0,65104.0,0.0
2019-06-24,-45.0,-61.0,-106.0,64998.0,-106.0
2019-06-25,-531.0,-146.0,-677.0,64321.0,-783.0
2019-06-26,110.0,47.0,157.0,64478.0,-626.0
2019-06-27,168.0,-27.0,141.0,64619.0,-485.0
2019-06-28,113.0,159.0,272.0,64891.0,-213.0
2019-06-30,314.0,310.0,624.0,65515.0,0.0
2019-07-01,-100.0,-160.0,-260.0,65255.0,-260.0
2019-07-02,232.0,76.0,308.0,65563.0,0.0
2019-07-03,218.0,382.0,600.0,66163.0,0.0
2019-07-04,57.0,70.0,127.0,66290.0,0.0
2019-07-05,-240.0,-178.0,-418.0,65872.0,-418.0
2019-07-07,-96.0,-144.0,-240.0,65632.0,-658.0
2019-07-08,-390.0,-280.0,-670.0,64962.0,-1328.0
2019-07-09,424.0,164.0,588.0,65550.0,-740.0
2019-07-10,642.0,290.0,932.0,66482.0,0.0
2019-07-11,-44.0,492.0,448.0,66930.0,0.0
2019-07-12,290.0,312.0,602.0,67532.0,0.0
2019-07-14,-48.0,75.0,27.0,67559.0,0.0
2019-07-15,340.0,51.0,391.0,67950.0,0.0
2019-07-16,-424.0,-54.0,-478.0,67472.0,-478.0
2019-07-17,-548.0,-555.0,-1103.0,66369.0,-1581.0
2019-07-18,582.0,474.0,1056.0,67425.0,-525.0
2019-07-19,-1182.0,-693.0,-1875.0,65550.0,-2400.0
2019-07-21,384.0,165.0,549.0,66099.0,-1851.0
2019-07-22,933.0,228.0,1161.0,67260.0,-690.0
2019-07-23,297.0,381.0,678.0,67938.0,-12.0
2019-07-24,759.0,-168.0,591.0,68529.0,0.0
2019-07-25,-288.0,-402.0,-690.0,67839.0,-690.0
2019-07-26,267.0,-50.0,217.0,68056.0,-473.0
2019-07-28,36.0,-72.0,-36.0,68020.0,-509.0
2019-07-29,-96.0,428.0,332.0,68352.0,-177.0
2019-07-30,-246.0,28.0,-218.0,68134.0,-395.0
2019-07-31,-1824.0,-1432.0,-3256.0,64878.0,-3651.0
2019-08-01,-621.0,-8.0,-629.0,64249.0,-4280.0
2019-08-02,12.0,0.0,12.0,64261.0,-4268.0
2019-08-04,0.0,0.0,0.0,64261.0,-4268.0
2019-08-05,0.0,0.0,0.0,64261.0,-4268.0
2019-08-06,0.0,0.0,0.0,64261.0,-4268.0
2019-08-07,0.0,0.0,0.0,64261.0,-4268.0
2019-08-08,0.0,0.0,0.0,64261.0,-4268.0
2019-08-09,0.0,0.0,0.0,64261.0,-4268.0
2019-08-11,0.0,0.0,0.0,64261.0,-4268.0
2019-08-12,0.0,0.0,0.0,64261.0,-4268.0
2019-08-13,0.0,0.0,0.0,64261.0,-4268.0
2019-08-14,0.0,0.0,0.0,64261.0,-4268.0
2019-08-15,0.0,0.0,0.0,64261.0,-4268.0
2019-08-16,0.0,0.0,0.0,64261.0,-4268.0
2019-08-18,0.0,0.0,0.0,64261.0,-4268.0
2019-08-19,0.0,0.0,0.0,64261.0,-4268.0
2019-08-20,0.0,0.0,0.0,64261.0,-4268.0
2019-08-21,0.0,0.0,0.0,64261.0,-4268.0
2019-08-22,0.0,0.0,0.0,64261.0,-4268.0
2019-08-23,0.0,0.0,0.0,64261.0,-4268.0
2019-08-25,0.0,0.0,0.0,64261.0,-4268.0
2019-08-26,0.0,0.0,0.0,64261.0,-4268.0
2019-08-27,0.0,0.0,0.0,64261.0,-4268.0
2019-08-28,0.0,0.0,0.0,64261.0,-4268.0
2019-08-29,0.0,0.0,0.0,64261.0,-4268.0
2019-08-30,0.0,0.0,0.0,64261.0,-4268.0
2019-09-01,0.0,0.0,0.0,64261.0,-4268.0
2019-09-02,0.0,0.0,0.0,64261.0,-4268.0
2019-09-03,0.0,0.0,0.0,64261.0,-4268.0
2019-09-04,0.0,231.0,231.0,64492.0,-4037.0
2019-09-05,300.5,63.0,363.5,64855.5,-3673.5
2019-09-06,-15.0,34.0,19.0,64874.5,-3654.5
2019-09-08,-2.5,4.5,2.0,64876.5,-3652.5
2019-09-09,-42.0,-11.0,-53.0,64823.5,-3705.5
2019-09-10,-64.0,37.0,-27.0,64796.5,-3732.5
2019-09-11,282.0,191.5,473.5,65270.0,-3259.0
2019-09-12,-37.0,-26.0,-63.0,65207.0,-3322.0
2019-09-13,-59.0,-12.0,-71.0,65136.0,-3393.0
2019-09-15,-288.0,-135.0,-423.0,64713.0,-3816.0
2019-09-16,183.0,-24.0,159.0,64872.0,-3657.0
2019-09-17,105.0,9.0,114.0,64986.0,-3543.0
2019-09-18,-21.0,-3.0,-24.0,64962.0,-3567.0
2019-09-19,84.0,27.0,111.0,65073.0,-3456.0
2019-09-20,-381.0,-208.0,-589.0,64484.0,-4045.0
2019-09-22,177.0,101.0,278.0,64762.0,-3767.0
2019-09-23,35.0,38.0,73.0,64835.0,-3694.0
2019-09-24,-530.0,-150.0,-680.0,64155.0,-4374.0
2019-09-25,254.0,59.0,313.0,64468.0,-4061.0
2019-09-26,-156.0,-92.0,-248.0,64220.0,-4309.0
2019-09-27,-247.0,65.0,-182.0,64038.0,-4491.0
2019-09-29,48.0,124.0,172.0,64210.0,-4319.0
2019-09-30,115.5,186.0,301.5,64511.5,-4017.5
2019-10-01,-118.5,-822.0,-940.5,63571.0,-4958.0
2019-10-02,-2.0,0.0,-2.0,63569.0,-4960.0
2019-10-03,0.0,0.0,0.0,63569.0,-4960.0
2019-10-04,0.0,0.0,0.0,63569.0,-4960.0
2019-10-06,0.0,0.0,0.0,63569.0,-4960.0
2019-10-07,0.0,0.0,0.0,63569.0,-4960.0
2019-10-08,0.0,0.0,0.0,63569.0,-4960.0
2019-10-09,0.0,0.0,0.0,63569.0,-4960.0
2019-10-10,0.0,0.0,0.0,63569.0,-4960.0
2019-10-11,0.0,0.0,0.0,63569.0,-4960.0
2019-10-13,0.0,0.0,0.0,63569.0,-4960.0
2019-10-14,0.0,0.0,0.0,63569.0,-4960.0
2019-10-15,0.0,63.5,63.5,63632.5,-4896.5
2019-10-16,0.0,-1.0,-1.0,63631.5,-4897.5
2019-10-17,0.0,22.0,22.0,63653.5,-4875.5
2019-10-18,0.0,-101.0,-101.0,63552.5,-4976.5
2019-10-20,0.0,-18.5,-18.5,63534.0,-4995.0
2019-10-21,0.0,14.5,14.5,63548.5,-4980.5
2019-10-22,0.0,-72.5,-72.5,63476.0,-5053.0
2019-10-23,0.0,2.0,2.0,63478.0,-5051.0
2019-10-24,0.0,-19.0,-19.0,63459.0,-5070.0
2019-10-25,229.0,1.0,230.0,63689.0,-4840.0
2019-10-27,37.0,13.0,50.0,63739.0,-4790.0
2019-10-28,111.5,46.0,157.5,63896.5,-4632.5
2019-10-29,-107.5,-14.0,-121.5,63775.0,-4754.0
2019-10-30,128.5,67.0,195.5,63970.5,-4558.5
2019-10-31,-67.5,-58.5,-126.0,63844.5,-4684.5
2019-11-01,147.0,114.5,261.5,64106.0,-4423.0
2019-11-03,27.5,28.0,55.5,64161.5,-4367.5
2019-11-04,126.0,56.0,182.0,64343.5,-4185.5
2019-11-05,-53.0,-12.0,-65.0,64278.5,-4250.5
2019-11-06,-20.0,1.0,-19.0,64259.5,-4269.5
2019-11-07,68.0,101.5,169.5,64429.0,-4100.0
2019-11-08,69.5,27.5,97.0,64526.0,-4003.0
2019-11-10,-31.0,-91.0,-122.0,64404.0,-4125.0
2019-11-11,-33.0,82.0,49.0,64453.0,-4076.0
2019-11-12,82.0,-48.0,34.0,64487.0,-4042.0
2019-11-13,-1.0,154.0,153.0,64640.0,-3889.0
2019-11-14,29.0,99.0,128.0,64768.0,-3761.0
2019-11-15,209.0,120.0,329.0,65097.0,-3432.0
2019-11-17,-54.0,-13.0,-67.0,65030.0,-3499.0
2019-11-18,70.0,85.0,155.0,65185.0,-3344.0
2019-11-19,-40.0,-175.0,-215.0,64970.0,-3559.0
2019-11-20,-190.0,-124.0,-314.0,64656.0,-3873.0
2019-11-21,-1.0,50.0,49.0,64705.0,-3824.0
2019-11-22,111.0,119.0,230.0,64935.0,-3594.0
2019-11-24,198.0,138.0,336.0,65271.0,-3258.0
2019-11-25,550.0,266.0,816.0,66087.0,-2442.0
2019-11-26,208.0,142.0,350.0,66437.0,-2092.0
2019-11-27,192.0,-126.0,66.0,66503.0,-2026.0
2019-11-28,190.0,-10.0,180.0,66683.0,-1846.0
2019-11-29,-224.0,4.0,-220.0,66463.0,-2066.0
2019-12-01,78.0,180.0,258.0,66721.0,-1808.0
2019-12-02,-1014.0,-650.0,-1664.0,65057.0,-3472.0
2019-12-03,-340.0,-2.0,-342.0,64715.0,-3814.0
2019-12-04,232.0,0.0,232.0,64947.0,-3582.0
2019-12-05,192.0,0.0,192.0,65139.0,-3390.0
2019-12-06,711.0,0.0,711.0,65850.0,-2679.0
2019-12-08,15.0,0.0,15.0,65865.0,-2664.0
2019-12-09,-555.0,0.0,-555.0,65310.0,-3219.0
2019-12-10,33.0,0.0,33.0,65343.0,-3186.0
2019-12-11,645.0,0.0,645.0,65988.0,-2541.0
2019-12-12,1047.0,152.0,1199.0,67187.0,-1342.0
2019-12-13,243.0,-38.0,205.0,67392.0,-1137.0
2019-12-15,159.0,3.5,162.5,67554.5,-974.5
2019-12-16,759.0,36.0,795.0,68349.5,-179.5
2019-12-17,54.0,14.0,68.0,68417.5,-111.5
2019-12-18,225.0,-9.5,215.5,68633.0,0.0
2019-12-19,696.0,68.0,764.0,69397.0,0.0
2019-12-20,410.0,31.0,441.0,69838.0,0.0
2019-12-22,192.0,25.0,217.0,70055.0,0.0
2019-12-23,112.0,64.0,176.0,70231.0,0.0
2019-12-24,12.0,-52.0,-40.0,70191.0,-40.0
2019-12-25,4.0,33.0,37.0,70228.0,-3.0
2019-12-26,1244.0,131.0,1375.0,71603.0,0.0
2019-12-27,-468.0,-69.0,-537.0,71066.0,-537.0
2019-12-29,304.0,50.0,354.0,71420.0,-183.0
2019-12-30,-1004.0,-181.0,-1185.0,70235.0,-1368.0
2019-12-31,584.0,81.0,665.0,70900.0,-703.0
2020-01-01,72.0,43.0,115.0,71015.0,-588.0
2020-01-02,1964.0,71.0,2035.0,73050.0,0.0
2020-01-03,-1437.0,-58.0,-1495.0,71555.0,-1495.0
2020-01-05,-580.5,-158.0,-738.5,70816.5,-2233.5
2020-01-06,1278.0,378.0,1656.0,72472.5,-577.5
2020-01-07,-1746.0,-732.0,-2478.0,69994.5,-3055.5
2020-01-08,3600.0,896.0,4496.0,74490.5,0.0
2020-01-09,1143.0,406.0,1549.0,76039.5,0.0
2020-01-10,-670.5,-462.0,-1132.5,74907.0,-1132.5
2020-01-12,166.5,162.0,328.5,75235.5,-804.0
2020-01-13,2115.0,44.0,2159.0,77394.5,0.0
2020-01-14,-1332.0,-24.0,-1356.0,76038.5,-1356.0
2020-01-15,778.5,408.0,1186.5,77225.0,-169.5
2020-01-16,1287.0,420.0,1707.0,78932.0,0.0
2020-01-17,460.0,-17.0,443.0,79375.0,0.0
2020-01-19,270.0,81.0,351.0,79726.0,0.0
2020-01-20,-295.0,-357.0,-652.0,79074.0,-652.0
2020-01-21,165.0,306.0,471.0,79545.0,-181.0
2020-01-22,85.0,-555.0,-470.0,79075.0,-651.0
2020-01-23,1750.0,210.0,1960.0,81035.0,0.0
2020-01-24,-2655.0,-783.0,-3438.0,77597.0,-3438.0
2020-01-26,-2455.0,-696.0,-3151.0,74446.0,-6589.0
2020-01-27,-715.0,9.0,-706.0,73740.0,-7295.0
2020-01-28,2425.0,0.0,2425.0,76165.0,-4870.0
2020-01-29,435.0,0.0,435.0,76600.0,-4435.0
2020-01-30,1925.0,0.0,1925.0,78525.0,-2510.0
2020-01-31,-4110.0,0.0,-4110.0,74415.0,-6620.0
2020-02-02,155.0,0.0,155.0,74570.0,-6465.0
2020-02-03,1390.0,0.0,1390.0,75960.0,-5075.0
2020-02-04,4965.0,0.0,4965.0,80925.0,-110.0
2020-02-05,860.0,337.5,1197.5,82122.5,0.0
2020-02-06,1715.0,-78.0,1637.0,83759.5,0.0
2020-02-07,-1335.0,-123.5,-1458.5,82301.0,-1458.5
2020-02-09,-875.0,1.0,-874.0,81427.0,-2332.5
2020-02-10,3380.0,146.0,3526.0,84953.0,0.0
2020-02-11,320.0,-17.5,302.5,85255.5,0.0
2020-02-12,705.0,60.5,765.5,86021.0,0.0
2020-02-13,665.0,35.0,700.0,86721.0,0.0
2020-02-14,420.0,-26.5,393.5,87114.5,0.0
2020-02-16,665.0,40.0,705.0,87819.5,0.0
2020-02-17,-1225.0,-123.0,-1348.0,86471.5,-1348.0
2020-02-18,1230.0,-12.0,1218.0,87689.5,-130.0
2020-02-19,1615.0,-5.0,1610.0,89299.5,0.0
2020-02-20,-3445.0,-209.0,-3654.0,85645.5,-3654.0
2020-02-21,-2330.0,-104.0,-2434.0,83211.5,-6088.0
2020-02-23,-1810.0,-393.0,-2203.0,81008.5,-8291.0
2020-02-24,0.0,1.0,1.0,81009.5,-8290.0
2020-02-25,0.0,0.0,0.0,81009.5,-8290.0
2020-02-26,0.0,0.0,0.0,81009.5,-8290.0
2020-02-27,0.0,0.0,0.0,81009.5,-8290.0
2020-02-28,0.0,0.0,0.0,81009.5,-8290.0
2020-03-01,0.0,0.0,0.0,81009.5,-8290.0
2020-03-02,0.0,0.0,0.0,81009.5,-8290.0
2020-03-03,0.0,0.0,0.0,81009.5,-8290.0
2020-03-04,0.0,0.0,0.0,81009.5,-8290.0
2020-03-05,0.0,0.0,0.0,81009.5,-8290.0
2020-03-06,0.0,0.0,0.0,81009.5,-8290.0
2020-03-08,0.0,0.0,0.0,81009.5,-8290.0
2020-03-09,0.0,0.0,0.0,81009.5,-8290.0
2020-03-10,0.0,0.0,0.0,81009.5,-8290.0
2020-03-11,0.0,0.0,0.0,81009.5,-8290.0
2020-03-12,0.0,0.0,0.0,81009.5,-8290.0
2020-03-13,0.0,0.0,0.0,81009.5,-8290.0
2020-03-15,0.0,0.0,0.0,81009.5,-8290.0
2020-03-16,0.0,0.0,0.0,81009.5,-8290.0
2020-03-17,0.0,0.0,0.0,81009.5,-8290.0
2020-03-18,0.0,0.0,0.0,81009.5,-8290.0
2020-03-19,0.0,0.0,0.0,81009.5,-8290.0
2020-03-20,0.0,0.0,0.0,81009.5,-8290.0
2020-03-22,0.0,0.0,0.0,81009.5,-8290.0
2020-03-23,0.0,0.0,0.0,81009.5,-8290.0
2020-03-24,0.0,0.0,0.0,81009.5,-8290.0
2020-03-25,0.0,0.0,0.0,81009.5,-8290.0
2020-03-26,0.0,0.0,0.0,81009.5,-8290.0
2020-03-27,0.0,0.0,0.0,81009.5,-8290.0
2020-03-29,0.0,0.0,0.0,81009.5,-8290.0
2020-03-30,0.0,0.0,0.0,81009.5,-8290.0
2020-03-31,0.0,0.0,0.0,81009.5,-8290.0
2020-04-01,0.0,0.0,0.0,81009.5,-8290.0
2020-04-02,0.0,0.0,0.0,81009.5,-8290.0
2020-04-03,0.0,0.0,0.0,81009.5,-8290.0
2020-04-05,0.0,0.0,0.0,81009.5,-8290.0
2020-04-06,0.0,345.5,345.5,81355.0,-7944.5
2020-04-07,0.0,83.0,83.0,81438.0,-7861.5
2020-04-08,366.0,384.0,750.0,82188.0,-7111.5
2020-04-09,31.0,205.0,236.0,82424.0,-6875.5
2020-04-12,-243.0,-193.0,-436.0,81988.0,-7311.5
2020-04-13,494.5,163.0,657.5,82645.5,-6654.0
2020-04-14,616.0,68.0,684.0,83329.5,-5970.0
2020-04-15,-281.5,-245.5,-527.0,82802.5,-6497.0
2020-04-16,801.0,487.0,1288.0,84090.5,-5209.0
2020-04-17,-250.5,-46.0,-296.5,83794.0,-5505.5
2020-04-19,-122.0,-1.5,-123.5,83670.5,-5629.0
2020-04-20,-33.5,-436.0,-469.5,83201.0,-6098.5
2020-04-21,-544.5,-154.0,-698.5,82502.5,-6797.0
2020-04-22,317.0,148.0,465.0,82967.5,-6332.0
2020-04-23,-128.5,-7.0,-135.5,82832.0,-6467.5
2020-04-24,418.0,171.5,589.5,83421.5,-5878.0
2020-04-26,-55.0,151.0,96.0,83517.5,-5782.0
2020-04-27,280.0,133.0,413.0,83930.5,-5369.0
2020-04-28,-223.0,329.0,106.0,84036.5,-5263.0
2020-04-29,1293.0,452.0,1745.0,85781.5,-3518.0
2020-04-30,-1011.0,-777.0,-1788.0,83993.5,-5306.0
2020-05-01,-545.0,-339.0,-884.0,83109.5,-6190.0
2020-05-03,-476.0,-109.0,-585.0,82524.5,-6775.0
2020-05-04,963.0,263.0,1226.0,83750.5,-5549.0
2020-05-05,530.0,33.0,563.0,84313.5,-4986.0
2020-05-06,34.0,-140.0,-106.0,84207.5,-5092.0
2020-05-07,706.0,493.0,1199.0,85406.5,-3893.0
2020-05-08,383.0,240.0,623.0,86029.5,-3270.0
2020-05-10,258.0,284.0,542.0,86571.5,-2728.0
2020-05-11,190.0,-976.0,-786.0,85785.5,-3514.0
2020-05-12,-2104.0,-682.0,-2786.0,82999.5,-6300.0
2020-05-13,-22.0,-874.0,-896.0,82103.5,-7196.0
2020-05-14,770.0,732.0,1502.0,83605.5,-5694.0
2020-05-15,96.0,66.0,162.0,83767.5,-5532.0
2020-05-17,360.0,432.0,792.0,84559.5,-4740.0
2020-05-18,1436.0,1332.0,2768.0,87327.5,-1972.0
2020-05-19,-208.0,-288.0,-496.0,86831.5,-2468.0
2020-05-20,1340.0,124.0,1464.0,88295.5,-1004.0
2020-05-21,-664.0,-300.0,-964.0,87331.5,-1968.0
2020-05-22,244.0,534.0,778.0,88109.5,-1190.0
2020-05-24,399.0,141.0,540.0,88649.5,-650.0
2020-05-25,651.0,999.0,1650.0,90299.5,0.0
2020-05-26,-1389.0,987.0,-402.0,89897.5,-402.0
2020-05-27,573.0,1341.0,1914.0,91811.5,0.0
2020-05-28,-288.0,-843.0,-1131.0,90680.5,-1131.0
2020-05-29,2049.0,474.0,2523.0,93203.5,0.0
2020-05-31,-981.0,-432.0,-1413.0,91790.5,-1413.0
2020-06-01,702.0,9.0,711.0,92501.5,-702.0
2020-06-02,1311.0,1338.0,2649.0,95150.5,0.0
2020-06-03,261.0,1191.0,1452.0,96602.5,0.0
2020-06-04,-936.0,606.0,-330.0,96272.5,-330.0
2020-06-05,2276.0,1987.0,4263.0,100535.5,0.0
2020-06-07,1012.0,304.0,1316.0,101851.5,0.0
2020-06-08,148.0,1548.0,1696.0,103547.5,0.0
2020-06-09,1748.0,-388.0,1360.0,104907.5,0.0
2020-06-10,868.0,-3168.0,-2300.0,102607.5,-2300.0
2020-06-11,-5836.0,-4.0,-5840.0,96767.5,-8140.0
2020-06-12,-584.0,0.0,-584.0,96183.5,-8724.0
2020-06-14,-1664.0,0.0,-1664.0,94519.5,-10388.0
2020-06-15,5232.0,0.0,5232.0,99751.5,-5156.0
2020-06-16,1900.0,0.0,1900.0,101651.5,-3256.0
2020-06-17,-552.0,0.0,-552.0,101099.5,-3808.0
2020-06-18,1140.0,0.0,1140.0,102239.5,-2668.0
2020-06-19,-1663.5,0.0,-1663.5,100576.0,-4331.5
2020-06-21,-351.0,0.0,-351.0,100225.0,-4682.5
2020-06-22,4405.5,0.0,4405.5,104630.5,-277.0
2020-06-23,558.0,0.0,558.0,105188.5,0.0
2020-06-24,-3730.5,0.0,-3730.5,101458.0,-3730.5
2020-06-25,2389.5,0.0,2389.5,103847.5,-1341.0
2020-06-26,-4720.5,0.0,-4720.5,99127.0,-6061.5
2020-06-28,-306.0,0.0,-306.0,98821.0,-6367.5
2020-06-29,2983.5,0.0,2983.5,101804.5,-3384.0
2020-06-30,756.0,0.0,756.0,102560.5,-2628.0
2020-07-01,4225.5,0.0,4225.5,106786.0,0.0
2020-07-02,1449.0,0.0,1449.0,108235.0,0.0
2020-07-03,-445.5,0.0,-445.5,107789.5,-445.5
2020-07-05,1355.0,0.0,1355.0,109144.5,0.0
2020-07-06,4940.0,0.0,4940.0,114084.5,0.0
2020-07-07,-1795.0,0.0,-1795.0,112289.5,-1795.0
2020-07-08,2645.0,0.0,2645.0,114934.5,0.0
2020-07-09,1435.0,0.0,1435.0,116369.5,0.0
2020-07-10,1770.0,0.0,1770.0,118139.5,0.0
2020-07-12,680.0,0.0,680.0,118819.5,0.0
2020-07-13,-4625.0,0.0,-4625.0,114194.5,-4625.0
2020-07-14,1440.0,0.0,1440.0,115634.5,-3185.0
2020-07-15,-1405.0,0.0,-1405.0,114229.5,-4590.0
2020-07-16,-1610.0,0.0,-1610.0,112619.5,-6200.0
2020-07-17,1135.0,0.0,1135.0,113754.5,-5065.0
2020-07-19,480.0,0.0,480.0,114234.5,-4585.0
2020-07-20,6045.0,0.0,6045.0,120279.5,0.0
2020-07-21,-1530.0,0.0,-1530.0,118749.5,-1530.0
2020-07-22,-1005.0,0.0,-1005.0,117744.5,-2535.0
2020-07-23,-4805.0,0.0,-4805.0,112939.5,-7340.0
2020-07-24,-2395.0,0.0,-2395.0,110544.5,-9735.0
2020-07-26,-480.0,0.0,-480.0,110064.5,-10215.0
2020-07-27,5190.0,0.0,5190.0,115254.5,-5025.0
2020-07-28,-2690.0,0.0,-2690.0,112564.5,-7715.0
2020-07-29,2310.0,0.0,2310.0,114874.5,-5405.0
2020-07-30,4520.0,0.0,4520.0,119394.5,-885.0
2020-07-31,200.0,0.0,200.0,119594.5,-685.0
2020-08-02,-75.0,0.0,-75.0,119519.5,-760.0
2020-08-03,2495.0,0.0,2495.0,122014.5,0.0
2020-08-04,745.0,0.0,745.0,122759.5,0.0
2020-08-05,310.0,164.0,474.0,123233.5,0.0
2020-08-06,3265.0,30.5,3295.5,126529.0,0.0
2020-08-07,-2430.0,102.5,-2327.5,124201.5,-2327.5
2020-08-09,-475.0,26.0,-449.0,123752.5,-2776.5
2020-08-10,-665.0,186.0,-479.0,123273.5,-3255.5
2020-08-11,-3025.0,-55.0,-3080.0,120193.5,-6335.5
2020-08-12,4180.0,100.0,4280.0,124473.5,-2055.5
2020-08-13,1470.0,-8.5,1461.5,125935.0,-594.0
2020-08-14,-1190.0,-3.0,-1193.0,124742.0,-1787.0
2020-08-16,315.0,101.0,416.0,125158.0,-1371.0
2020-08-17,2870.0,-138.0,2732.0,127890.0,0.0
2020-08-18,2230.0,-11.0,2219.0,130109.0,0.0
2020-08-19,-2520.0,-274.0,-2794.0,127315.0,-2794.0
2020-08-20,4180.0,261.0,4441.0,131756.0,0.0
2020-08-21,1270.0,119.0,1389.0,133145.0,0.0
2020-08-23,410.0,69.0,479.0,133624.0,0.0
2020-08-24,1265.0,466.0,1731.0,135355.0,0.0
2020-08-25,2000.0,-235.0,1765.0,137120.0,0.0
2020-08-26,4420.0,101.0,4521.0,141641.0,0.0
2020-08-27,30.0,422.0,452.0,142093.0,0.0
2020-08-28,690.0,-109.0,581.0,142674.0,0.0
2020-08-30,880.0,290.0,1170.0,143844.0,0.0
2020-08-31,1550.0,-664.0,886.0,144730.0,0.0
2020-09-01,4705.0,512.0,5217.0,149947.0,0.0
2020-09-02,1225.0,796.0,2021.0,151968.0,0.0
2020-09-03,-5.0,-1662.0,-1667.0,150301.0,-1667.0
2020-09-04,0.0,-396.0,-396.0,149905.0,-2063.0
2020-09-06,0.0,142.0,142.0,150047.0,-1921.0
2020-09-07,0.0,278.0,278.0,150325.0,-1643.0
2020-09-08,0.0,2.0,2.0,150327.0,-1641.0
2020-09-09,0.0,0.0,0.0,150327.0,-1641.0
2020-09-10,0.0,0.0,0.0,150327.0,-1641.0
2020-09-11,0.0,0.0,0.0,150327.0,-1641.0
2020-09-13,0.0,0.0,0.0,150327.0,-1641.0
2020-09-14,0.0,0.0,0.0,150327.0,-1641.0
2020-09-15,0.0,0.0,0.0,150327.0,-1641.0
2020-09-16,0.0,0.0,0.0,150327.0,-1641.0
2020-09-17,0.0,0.0,0.0,150327.0,-1641.0
2020-09-18,0.0,0.0,0.0,150327.0,-1641.0
2020-09-20,0.0,0.0,0.0,150327.0,-1641.0
2020-09-21,0.0,0.0,0.0,150327.0,-1641.0
2020-09-22,0.0,0.0,0.0,150327.0,-1641.0
2020-09-23,0.0,0.0,0.0,150327.0,-1641.0
2020-09-24,0.0,0.0,0.0,150327.0,-1641.0
2020-09-25,0.0,0.0,0.0,150327.0,-1641.0
2020-09-27,0.0,0.0,0.0,150327.0,-1641.0
2020-09-28,0.0,0.0,0.0,150327.0,-1641.0
2020-09-29,0.0,0.0,0.0,150327.0,-1641.0
2020-09-30,0.0,0.0,0.0,150327.0,-1641.0
2020-10-01,0.0,0.0,0.0,150327.0,-1641.0
2020-10-02,0.0,0.0,0.0,150327.0,-1641.0
2020-10-04,0.0,0.0,0.0,150327.0,-1641.0
2020-10-05,0.0,0.0,0.0,150327.0,-1641.0
2020-10-06,0.0,0.0,0.0,150327.0,-1641.0
2020-10-07,0.0,0.0,0.0,150327.0,-1641.0
2020-10-08,0.0,92.0,92.0,150419.0,-1549.0
2020-10-09,0.0,52.5,52.5,150471.5,-1496.5
2020-10-11,29.5,-18.5,11.0,150482.5,-1485.5
2020-10-12,731.5,90.0,821.5,151304.0,-664.0
2020-10-13,11.0,-19.5,-8.5,151295.5,-672.5
2020-10-14,-307.5,-176.5,-484.0,150811.5,-1156.5
2020-10-15,-91.0,39.5,-51.5,150760.0,-1208.0
2020-10-16,-244.5,-34.0,-278.5,150481.5,-1486.5
2020-10-18,159.5,144.0,303.5,150785.0,-1183.0
2020-10-19,-316.0,-370.0,-686.0,150099.0,-1869.0
2020-10-20,0.5,0.0,0.5,150099.5,-1868.5
2020-10-21,0.0,-213.0,-213.0,149886.5,-2081.5
2020-10-22,0.0,-0.5,-0.5,149886.0,-2082.0
2020-10-23,0.0,-43.5,-43.5,149842.5,-2125.5
2020-10-25,0.0,-17.5,-17.5,149825.0,-2143.0
2020-10-26,0.0,0.0,0.0,149825.0,-2143.0
2020-10-27,0.0,0.0,0.0,149825.0,-2143.0
2020-10-28,0.0,0.0,0.0,149825.0,-2143.0
2020-10-29,0.0,0.0,0.0,149825.0,-2143.0
2020-10-30,0.0,0.0,0.0,149825.0,-2143.0
2020-11-01,0.0,0.0,0.0,149825.0,-2143.0
2020-11-02,0.0,0.0,0.0,149825.0,-2143.0
2020-11-03,0.0,0.0,0.0,149825.0,-2143.0
2020-11-04,956.0,252.5,1208.5,151033.5,-934.5
2020-11-05,543.5,97.5,641.0,151674.5,-293.5
2020-11-06,56.0,74.0,130.0,151804.5,-163.5
2020-11-08,275.5,154.0,429.5,152234.0,0.0
2020-11-09,-756.5,118.0,-638.5,151595.5,-638.5
2020-11-10,-513.5,282.0,-231.5,151364.0,-870.0
2020-11-11,598.0,-159.0,439.0,151803.0,-431.0
2020-11-12,-90.0,-48.0,-138.0,151665.0,-569.0
2020-11-13,215.0,206.0,421.0,152086.0,-148.0
2020-11-15,397.0,236.0,633.0,152719.0,0.0
2020-11-16,13.0,133.0,146.0,152865.0,0.0
2020-11-17,-278.0,-113.0,-391.0,152474.0,-391.0
2020-11-18,-395.0,-302.0,-697.0,151777.0,-1088.0
2020-11-19,228.0,-108.0,120.0,151897.0,-968.0
2020-11-20,-105.0,-85.0,-190.0,151707.0,-1158.0
2020-11-22,81.0,123.0,204.0,151911.0,-954.0
2020-11-23,82.0,524.0,606.0,152517.0,-348.0
2020-11-24,697.0,224.0,921.0,153438.0,0.0
2020-11-25,214.0,-201.0,13.0,153451.0,0.0
2020-11-26,-100.0,-49.0,-149.0,153302.0,-149.0
2020-11-27,476.0,94.0,570.0,153872.0,0.0
2020-11-29,346.0,-418.0,-72.0,153800.0,-72.0
2020-11-30,256.0,366.0,622.0,154422.0,0.0
2020-12-01,816.0,-346.0,470.0,154892.0,0.0
2020-12-02,122.0,276.0,398.0,155290.0,0.0
2020-12-03,152.0,318.0,470.0,155760.0,0.0
2020-12-04,200.0,320.0,520.0,156280.0,0.0
2020-12-06,276.0,-18.0,258.0,156538.0,0.0
2020-12-07,244.0,-296.0,-52.0,156486.0,-52.0
2020-12-08,576.0,556.0,1132.0,157618.0,0.0
2020-12-09,-2272.0,-358.0,-2630.0,154988.0,-2630.0
2020-12-10,320.0,-168.0,152.0,155140.0,-2478.0
2020-12-11,-191.0,-80.0,-271.0,154869.0,-2749.0
2020-12-13,600.0,507.0,1107.0,155976.0,-1642.0
2020-12-14,756.0,-1005.0,-249.0,155727.0,-1891.0
2020-12-15,1386.0,906.0,2292.0,158019.0,0.0
2020-12-16,1053.0,177.0,1230.0,159249.0,0.0
2020-12-17,807.0,-105.0,702.0,159951.0,0.0
2020-12-18,-21.0,495.0,474.0,160425.0,0.0
2020-12-20,9.0,-456.0,-447.0,159978.0,-447.0
2020-12-21,-573.0,-399.0,-972.0,159006.0,-1419.0
2020-12-22,228.0,-342.0,-114.0,158892.0,-1533.0
2020-12-23,-786.0,648.0,-138.0,158754.0,-1671.0
2020-12-24,591.0,6.0,597.0,159351.0,-1074.0
2020-12-27,363.0,423.0,786.0,160137.0,-288.0
2020-12-28,1410.0,645.0,2055.0,162192.0,0.0
2020-12-29,-87.0,-426.0,-513.0,161679.0,-513.0
2020-12-30,48.0,-6.0,42.0,161721.0,-471.0
2020-12-31,429.0,543.0,972.0,162693.0,0.0
2021-01-03,-656.0,36.0,-620.0,162073.0,-620.0
2021-01-04,-6048.0,-2550.0,-8598.0,153475.0,-9218.0
2021-01-05,3840.0,906.0,4746.0,158221.0,-4472.0
2021-01-06,-3904.0,3714.0,-190.0,158031.0,-4662.0
2021-01-07,8496.0,1452.0,9948.0,167979.0,0.0
2021-01-08,5960.0,-372.0,5588.0,173567.0,0.0
2021-01-10,-1344.0,-1338.0,-2682.0,170885.0,-2682.0
2021-01-11,-5136.0,552.0,-4584.0,166301.0,-7266.0
2021-01-12,-808.0,894.0,86.0,166387.0,-7180.0
2021-01-13,2344.0,276.0,2620.0,169007.0,-4560.0
2021-01-14,-1696.0,-1776.0,-3472.0,165535.0,-8032.0
2021-01-15,-4904.0,-990.0,-5894.0,159641.0,-13926.0
2021-01-17,-568.0,336.0,-232.0,159409.0,-14158.0
2021-01-18,2736.0,1230.0,3966.0,163375.0,-10192.0
2021-01-19,6984.0,-462.0,6522.0,169897.0,-3670.0
2021-01-20,8472.0,2022.0,10494.0,180391.0,0.0
2021-01-21,2216.0,-942.0,1274.0,181665.0,0.0
2021-01-22,-1024.0,-522.0,-1546.0,180119.0,-1546.0
2021-01-24,1480.0,534.0,2014.0,182133.0,0.0
2021-01-25,2048.0,-1764.0,284.0,182417.0,0.0
2021-01-26,3112.0,396.0,3508.0,185925.0,0.0
2021-01-27,-18600.0,-3672.0,-22272.0,163653.0,-22272.0
2021-01-28,5080.0,468.0,5548.0,169201.0,-16724.0
2021-01-29,8.0,-12.0,-4.0,169197.0,-16728.0
2021-01-31,0.0,0.0,0.0,169197.0,-16728.0
2021-02-01,0.0,0.0,0.0,169197.0,-16728.0
2021-02-02,0.0,0.0,0.0,169197.0,-16728.0
2021-02-03,0.0,0.0,0.0,169197.0,-16728.0
2021-02-04,1536.5,0.0,1536.5,170733.5,-15191.5
2021-02-05,700.0,106.5,806.5,171540.0,-14385.0
2021-02-07,490.0,171.0,661.0,172201.0,-13724.0
2021-02-08,598.5,108.0,706.5,172907.5,-13017.5
2021-02-09,84.0,156.0,240.0,173147.5,-12777.5
2021-02-10,-472.5,10.5,-462.0,172685.5,-13239.5
2021-02-11,1081.5,-85.5,996.0,173681.5,-12243.5
2021-02-12,1820.0,150.0,1970.0,175651.5,-10273.5
2021-02-14,112.0,186.0,298.0,175949.5,-9975.5
2021-02-15,903.0,168.0,1071.0,177020.5,-8904.5
2021-02-16,-3542.0,-294.0,-3836.0,173184.5,-12740.5
2021-02-17,-798.0,109.5,-688.5,172496.0,-13429.0
2021-02-18,-2450.0,-270.0,-2720.0,169776.0,-16149.0
2021-02-19,-1218.0,52.5,-1165.5,168610.5,-17314.5
2021-02-21,560.0,-63.0,497.0,169107.5,-16817.5
2021-02-22,0.0,564.0,564.0,169671.5,-16253.5
2021-02-23,0.0,-498.0,-498.0,169173.5,-16751.5
2021-02-24,0.0,1746.0,1746.0,170919.5,-15005.5
2021-02-25,0.0,-2268.0,-2268.0,168651.5,-17273.5
2021-02-26,0.0,-1062.0,-1062.0,167589.5,-18335.5
2021-02-28,0.0,222.0,222.0,167811.5,-18113.5
2021-03-01,0.0,442.5,442.5,168254.0,-17671.0
2021-03-02,0.0,85.5,85.5,168339.5,-17585.5
2021-03-03,0.0,-519.0,-519.0,167820.5,-18104.5
2021-03-04,0.0,-483.0,-483.0,167337.5,-18587.5
2021-03-05,0.0,0.0,0.0,167337.5,-18587.5
2021-03-07,0.0,-132.0,-132.0,167205.5,-18719.5
2021-03-08,0.0,762.0,762.0,167967.5,-17957.5
2021-03-09,0.0,-271.5,-271.5,167696.0,-18229.0
2021-03-10,0.0,916.5,916.5,168612.5,-17312.5
2021-03-11,0.0,264.0,264.0,168876.5,-17048.5
2021-03-12,0.0,151.5,151.5,169028.0,-16897.0
2021-03-14,0.0,76.5,76.5,169104.5,-16820.5
2021-03-15,0.0,109.5,109.5,169214.0,-16711.0
2021-03-16,0.0,-174.0,-174.0,169040.0,-16885.0
2021-03-17,0.0,424.5,424.5,169464.5,-16460.5
2021-03-18,0.0,-256.5,-256.5,169208.0,-16717.0
2021-03-19,0.0,-601.5,-601.5,168606.5,-17318.5
2021-03-21,0.0,-249.0,-249.0,168357.5,-17567.5
2021-03-22,0.0,474.0,474.0,168831.5,-17093.5
2021-03-23,0.0,-837.0,-837.0,167994.5,-17930.5
2021-03-24,0.0,321.0,321.0,168315.5,-17609.5
2021-03-25,0.0,531.0,531.0,168846.5,-17078.5
2021-03-26,0.0,1110.0,1110.0,169956.5,-15968.5
2021-03-28,0.0,-303.0,-303.0,169653.5,-16271.5
2021-03-29,0.0,705.0,705.0,170358.5,-15566.5
2021-03-30,0.0,-435.0,-435.0,169923.5,-16001.5
2021-03-31,0.0,-261.0,-261.0,169662.5,-16262.5
2021-04-01,0.0,513.0,513.0,170175.5,-15749.5
2021-04-02,0.0,564.0,564.0,170739.5,-15185.5
2021-04-04,0.0,200.0,200.0,170939.5,-14985.5
2021-04-05,3710.0,365.0,4075.0,175014.5,-10910.5
2021-04-06,-308.0,90.0,-218.0,174796.5,-11128.5
2021-04-07,612.5,170.0,782.5,175579.0,-10346.0
2021-04-08,2296.0,90.0,2386.0,177965.0,-7960.0
2021-04-09,94.5,1195.0,1289.5,179254.5,-6670.5
2021-04-11,-420.0,-260.0,-680.0,178574.5,-7350.5
2021-04-12,539.0,325.0,864.0,179438.5,-6486.5
2021-04-13,2093.0,-600.0,1493.0,180931.5,-4993.5
2021-04-14,-2173.5,755.0,-1418.5,179513.0,-6412.0
2021-04-15,2782.5,1045.0,3827.5,183340.5,-2584.5
2021-04-16,112.0,747.0,859.0,184199.5,-1725.5
2021-04-18,-875.0,-414.0,-1289.0,182910.5,-3014.5
2021-04-19,-2065.0,360.0,-1705.0,181205.5,-4719.5
2021-04-20,-4795.0,-2256.0,-7051.0,174154.5,-11770.5
2021-04-21,3843.0,1860.0,5703.0,179857.5,-6067.5
2021-04-22,-3465.0,-1368.0,-4833.0,175024.5,-10900.5
2021-04-23,4088.0,960.0,5048.0,180072.5,-5852.5
2021-04-25,133.0,414.0,547.0,180619.5,-5305.5
2021-04-26,3283.0,-462.0,2821.0,183440.5,-2484.5
2021-04-27,-1806.0,-384.0,-2190.0,181250.5,-4674.5
2021-04-28,252.0,-186.0,66.0,181316.5,-4608.5
2021-04-29,-1575.0,528.0,-1047.0,180269.5,-5655.5
2021-04-30,-1366.0,-594.0,-1960.0,178309.5,-7615.5
2021-05-02,456.0,582.0,1038.0,179347.5,-6577.5
2021-05-03,-3544.0,384.0,-3160.0,176187.5,-9737.5
2021-05-04,-7824.0,888.0,-6936.0,169251.5,-16673.5
2021-05-05,-776.0,48.0,-728.0,168523.5,-17401.5
2021-05-06,3568.0,2046.0,5614.0,174137.5,-11787.5
2021-05-07,3376.0,1446.0,4822.0,178959.5,-6965.5
2021-05-09,680.0,456.0,1136.0,180095.5,-5829.5
2021-05-10,8.0,-1158.0,-1150.0,178945.5,-6979.5
2021-05-11,0.0,-3840.0,-3840.0,175105.5,-10819.5
2021-05-12,0.0,-6.0,-6.0,175099.5,-10825.5
2021-05-13,0.0,0.0,0.0,175099.5,-10825.5
2021-05-14,0.0,0.0,0.0,175099.5,-10825.5
2021-05-16,0.0,0.0,0.0,175099.5,-10825.5
2021-05-17,0.0,0.0,0.0,175099.5,-10825.5
2021-05-18,0.0,0.0,0.0,175099.5,-10825.5
2021-05-19,0.0,0.0,0.0,175099.5,-10825.5
2021-05-20,0.0,0.0,0.0,175099.5,-10825.5
2021-05-21,0.0,0.0,0.0,175099.5,-10825.5
2021-05-23,0.0,0.0,0.0,175099.5,-10825.5
2021-05-24,0.0,0.0,0.0,175099.5,-10825.5
2021-05-25,0.0,0.0,0.0,175099.5,-10825.5
2021-05-26,0.0,0.0,0.0,175099.5,-10825.5
2021-05-27,0.0,0.0,0.0,175099.5,-10825.5
2021-05-28,0.0,0.0,0.0,175099.5,-10825.5
2021-05-30,0.0,0.0,0.0,175099.5,-10825.5
2021-05-31,0.0,0.0,0.0,175099.5,-10825.5
2021-06-01,0.0,0.0,0.0,175099.5,-10825.5
2021-06-02,0.0,0.0,0.0,175099.5,-10825.5
2021-06-03,0.0,0.0,0.0,175099.5,-10825.5
2021-06-04,3647.0,0.0,3647.0,178746.5,-7178.5
2021-06-06,49.0,0.0,49.0,178795.5,-7129.5
2021-06-07,773.5,0.0,773.5,179569.0,-6356.0
2021-06-08,-80.5,0.0,-80.5,179488.5,-6436.5
2021-06-09,-28.0,0.0,-28.0,179460.5,-6464.5
2021-06-10,2138.5,0.0,2138.5,181599.0,-4326.0
2021-06-11,238.0,0.0,238.0,181837.0,-4088.0
2021-06-13,346.5,0.0,346.5,182183.5,-3741.5
2021-06-14,1354.5,0.0,1354.5,183538.0,-2387.0
2021-06-15,-1050.0,0.0,-1050.0,182488.0,-3437.0
2021-06-16,-2026.5,0.0,-2026.5,180461.5,-5463.5
2021-06-17,4046.0,0.0,4046.0,184507.5,-1417.5
2021-06-18,-2828.0,0.0,-2828.0,181679.5,-4245.5
2021-06-20,567.0,0.0,567.0,182246.5,-3678.5
2021-06-21,2709.0,0.0,2709.0,184955.5,-969.5
2021-06-22,3850.0,0.0,3850.0,188805.5,0.0
2021-06-23,385.0,0.0,385.0,189190.5,0.0
2021-06-24,1687.0,552.0,2239.0,191429.5,0.0
2021-06-25,-427.0,217.5,-209.5,191220.0,-209.5
2021-06-27,658.0,-39.0,619.0,191839.0,0.0
2021-06-28,3836.0,-330.0,3506.0,195345.0,0.0
2021-06-29,2688.0,133.5,2821.5,198166.5,0.0
2021-06-30,-763.0,363.0,-400.0,197766.5,-400.0
2021-07-01,-770.0,132.0,-638.0,197128.5,-1038.0
2021-07-02,4630.0,78.0,4708.0,201836.5,0.0
2021-07-04,448.0,-72.0,376.0,202212.5,0.0
2021-07-05,-8.0,318.0,310.0,202522.5,0.0
2021-07-06,1616.0,-861.0,755.0,203277.5,0.0
2021-07-07,1456.0,123.0,1579.0,204856.5,0.0
2021-07-08,-3784.0,-804.0,-4588.0,200268.5,-4588.0
2021-07-09,3920.0,1632.0,5552.0,205820.5,0.0
2021-07-11,480.0,-189.0,291.0,206111.5,0.0
2021-07-12,1608.0,534.0,2142.0,208253.5,0.0
2021-07-13,-1112.0,-384.0,-1496.0,206757.5,-1496.0
2021-07-14,1896.0,54.0,1950.0,208707.5,0.0
2021-07-15,-4712.0,324.0,-4388.0,204319.5,-4388.0
2021-07-16,-2760.0,-899.0,-3659.0,200660.5,-8047.0
2021-07-18,-880.0,-720.0,-1600.0,199060.5,-9647.0
2021-07-19,-1704.0,-2565.0,-4269.0,194791.5,-13916.0
2021-07-20,4912.0,2515.0,7427.0,202218.5,-6489.0
2021-07-21,2960.0,1590.0,4550.0,206768.5,-1939.0
2021-07-22,4328.0,210.0,4538.0,211306.5,0.0
2021-07-23,3896.0,785.0,4681.0,215987.5,0.0
2021-07-25,912.0,-600.0,312.0,216299.5,0.0
2021-07-26,-304.0,915.0,611.0,216910.5,0.0
2021-07-27,-6120.0,-520.0,-6640.0,210270.5,-6640.0
2021-07-28,2176.0,-265.0,1911.0,212181.5,-4729.0
2021-07-29,-3784.0,235.0,-3549.0,208632.5,-8278.0
2021-07-30,3096.0,58.0,3154.0,211786.5,-5124.0
2021-08-01,1104.0,672.0,1776.0,213562.5,-3348.0
2021-08-02,-1296.0,-1116.0,-2412.0,211150.5,-5760.0
2021-08-03,2232.0,1008.0,3240.0,214390.5,-2520.0
2021-08-04,1688.0,-1302.0,386.0,214776.5,-2134.0
2021-08-05,2456.0,1002.0,3458.0,218234.5,0.0
2021-08-06,-2168.0,1074.0,-1094.0,217140.5,-1094.0
2021-08-08,-2264.0,-282.0,-2546.0,214594.5,-3640.0
2021-08-09,3096.0,-654.0,2442.0,217036.5,-1198.0
2021-08-10,-2664.0,1200.0,-1464.0,215572.5,-2662.0
2021-08-11,-1272.0,1512.0,240.0,215812.5,-2422.0
2021-08-12,2304.0,84.0,2388.0,218200.5,-34.0
2021-08-13,1792.0,6.0,1798.0,219998.5,0.0
2021-08-15,-312.0,-690.0,-1002.0,218996.5,-1002.0
2021-08-16,528.0,876.0,1404.0,220400.5,0.0
2021-08-17,-5552.0,-1026.0,-6578.0,213822.5,-6578.0
2021-08-18,-3568.0,-2346.0,-5914.0,207908.5,-12492.0
2021-08-19,2280.0,-552.0,1728.0,209636.5,-10764.0
2021-08-20,5704.0,1668.0,7372.0,217008.5,-3392.0
2021-08-22,392.0,798.0,1190.0,218198.5,-2202.0
2021-08-23,7112.0,930.0,8042.0,226240.5,0.0
2021-08-24,904.0,-468.0,436.0,226676.5,0.0
2021-08-25,128.0,336.0,464.0,227140.5,0.0
2021-08-26,-2672.0,-714.0,-3386.0,223754.5,-3386.0
2021-08-27,4792.0,1230.0,6022.0,229776.5,0.0
2021-08-29,784.0,102.0,886.0,230662.5,0.0
2021-08-30,4664.0,-186.0,4478.0,235140.5,0.0
2021-08-31,-40.0,192.0,152.0,235292.5,0.0
2021-09-01,688.0,-1104.0,-416.0,234876.5,-416.0
2021-09-02,-688.0,1398.0,710.0,235586.5,0.0
2021-09-03,1808.0,-834.0,974.0,236560.5,0.0
2021-09-05,-104.0,54.0,-50.0,236510.5,-50.0
2021-09-06,1248.0,318.0,1566.0,238076.5,0.0
2021-09-07,-872.0,-1926.0,-2798.0,235278.5,-2798.0
2021-09-08,-1984.0,-1002.0,-2986.0,232292.5,-5784.0
2021-09-09,-1152.0,264.0,-888.0,231404.5,-6672.0
2021-09-10,-4040.0,-708.0,-4748.0,226656.5,-11420.0
2021-09-12,1496.0,0.0,1496.0,228152.5,-9924.0
2021-09-13,-1256.0,0.0,-1256.0,226896.5,-11180.0
2021-09-14,-1224.0,0.0,-1224.0,225672.5,-12404.0
2021-09-15,3032.0,0.0,3032.0,228704.5,-9372.0
2021-09-16,-648.0,0.0,-648.0,228056.5,-10020.0
2021-09-17,0.0,0.0,0.0,228056.5,-10020.0
2021-09-19,0.0,0.0,0.0,228056.5,-10020.0
2021-09-20,0.0,0.0,0.0,228056.5,-10020.0
2021-09-21,0.0,0.0,0.0,228056.5,-10020.0
2021-09-22,0.0,0.0,0.0,228056.5,-10020.0
2021-09-23,0.0,0.0,0.0,228056.5,-10020.0
2021-09-24,0.0,0.0,0.0,228056.5,-10020.0
2021-09-26,0.0,0.0,0.0,228056.5,-10020.0
2021-09-27,0.0,0.0,0.0,228056.5,-10020.0
2021-09-28,0.0,0.0,0.0,228056.5,-10020.0
2021-09-29,0.0,0.0,0.0,228056.5,-10020.0
2021-09-30,0.0,0.0,0.0,228056.5,-10020.0
2021-10-01,0.0,0.0,0.0,228056.5,-10020.0
2021-10-03,0.0,0.0,0.0,228056.5,-10020.0
2021-10-04,0.0,0.0,0.0,228056.5,-10020.0
2021-10-05,0.0,0.0,0.0,228056.5,-10020.0
2021-10-06,0.0,0.0,0.0,228056.5,-10020.0
2021-10-07,0.0,0.0,0.0,228056.5,-10020.0
2021-10-08,0.0,0.0,0.0,228056.5,-10020.0
2021-10-10,0.0,0.0,0.0,228056.5,-10020.0
2021-10-11,0.0,0.0,0.0,228056.5,-10020.0
2021-10-12,0.0,0.0,0.0,228056.5,-10020.0
2021-10-13,0.0,0.0,0.0,228056.5,-10020.0
2021-10-14,0.0,792.0,792.0,228848.5,-9228.0
2021-10-15,0.0,448.5,448.5,229297.0,-8779.5
2021-10-17,0.0,-6.0,-6.0,229291.0,-8785.5
2021-10-18,2940.0,-100.5,2839.5,232130.5,-5946.0
2021-10-19,1641.5,325.5,1967.0,234097.5,-3979.0
2021-10-20,-1036.0,147.0,-889.0,233208.5,-4868.0
2021-10-21,791.0,124.5,915.5,234124.0,-3952.5
2021-10-22,-948.5,-127.5,-1076.0,233048.0,-5028.5
2021-10-24,-248.5,207.0,-41.5,233006.5,-5070.0
2021-10-25,3258.5,315.0,3573.5,236580.0,-1496.5
2021-10-26,294.0,-84.0,210.0,236790.0,-1286.5
2021-10-27,927.5,-594.0,333.5,237123.5,-953.0
2021-10-28,644.0,435.0,1079.0,238202.5,0.0
2021-10-29,3703.0,462.0,4165.0,242367.5,0.0
2021-10-31,322.0,126.0,448.0,242815.5,0.0
2021-11-01,-119.0,-189.0,-308.0,242507.5,-308.0
2021-11-02,1862.0,519.0,2381.0,244888.5,0.0
2021-11-03,6811.0,348.0,7159.0,252047.5,0.0
2021-11-04,4319.0,-69.0,4250.0,256297.5,0.0
2021-11-05,84.0,456.0,540.0,256837.5,0.0
2021-11-07,-868.0,60.0,-808.0,256029.5,-808.0
2021-11-08,-42.0,190.0,148.0,256177.5,-660.0
2021-11-09,-3500.0,-665.0,-4165.0,252012.5,-4825.0
2021-11-10,-5467.0,-650.0,-6117.0,245895.5,-10942.0
2021-11-11,2072.0,-375.0,1697.0,247592.5,-9245.0
2021-11-12,3925.0,735.0,4660.0,252252.5,-4585.0
2021-11-14,784.0,-90.0,694.0,252946.5,-3891.0
2021-11-15,-1168.0,0.0,-1168.0,251778.5,-5059.0
2021-11-16,3696.0,285.0,3981.0,255759.5,-1078.0
2021-11-17,776.0,-985.0,-209.0,255550.5,-1287.0
2021-11-18,5328.0,310.0,5638.0,261188.5,0.0
2021-11-19,2952.0,-1687.0,1265.0,262453.5,0.0
2021-11-21,16.0,450.0,466.0,262919.5,0.0
2021-11-22,-6144.0,-330.0,-6474.0,256445.5,-6474.0
2021-11-23,-3528.0,498.0,-3030.0,253415.5,-9504.0
2021-11-24,2280.0,1080.0,3360.0,256775.5,-6144.0
2021-11-25,424.0,6.0,430.0,257205.5,-5714.0
2021-11-26,-24.0,0.0,-24.0,257181.5,-5738.0
2021-11-28,0.0,0.0,0.0,257181.5,-5738.0
2021-11-29,0.0,0.0,0.0,257181.5,-5738.0
2021-11-30,0.0,0.0,0.0,257181.5,-5738.0
2021-12-01,0.0,0.0,0.0,257181.5,-5738.0
2021-12-02,0.0,0.0,0.0,257181.5,-5738.0
2021-12-03,0.0,0.0,0.0,257181.5,-5738.0
2021-12-05,0.0,0.0,0.0,257181.5,-5738.0
2021-12-06,0.0,0.0,0.0,257181.5,-5738.0
2021-12-07,0.0,675.0,675.0,257856.5,-5063.0
2021-12-08,0.0,-184.5,-184.5,257672.0,-5247.5
2021-12-09,0.0,90.0,90.0,257762.0,-5157.5
2021-12-10,0.0,213.0,213.0,257975.0,-4944.5
2021-12-12,0.0,172.5,172.5,258147.5,-4772.0
2021-12-13,0.0,-624.0,-624.0,257523.5,-5396.0
2021-12-14,0.0,-120.0,-120.0,257403.5,-5516.0
2021-12-15,0.0,547.5,547.5,257951.0,-4968.5
2021-12-16,0.0,-150.0,-150.0,257801.0,-5118.5
2021-12-17,0.0,-649.5,-649.5,257151.5,-5768.0
2021-12-19,0.0,-124.5,-124.5,257027.0,-5892.5
2021-12-20,0.0,0.0,0.0,257027.0,-5892.5
2021-12-21,0.0,0.0,0.0,257027.0,-5892.5
2021-12-22,0.0,403.5,403.5,257430.5,-5489.0
2021-12-23,0.0,298.5,298.5,257729.0,-5190.5
2021-12-26,0.0,-22.5,-22.5,257706.5,-5213.0
2021-12-27,2975.0,469.5,3444.5,261151.0,-1768.5
2021-12-28,-217.0,226.5,9.5,261160.5,-1759.0
2021-12-29,-1064.0,105.0,-959.0,260201.5,-2718.0
2021-12-30,-350.0,-216.0,-566.0,259635.5,-3284.0
2021-12-31,-1466.5,51.0,-1415.5,258220.0,-4699.5
2022-01-02,516.0,315.0,831.0,259051.0,-3868.5
2022-01-03,2394.0,553.0,2947.0,261998.0,-921.5
2022-01-04,-6024.0,336.0,-5688.0,256310.0,-6609.5
2022-01-05,6.0,-1480.5,-1474.5,254835.5,-8084.0
2022-01-06,0.0,73.5,73.5,254909.0,-8010.5
2022-01-07,0.0,-402.5,-402.5,254506.5,-8413.0
2022-01-09,0.0,-91.0,-91.0,254415.5,-8504.0
2022-01-10,0.0,-1106.0,-1106.0,253309.5,-9610.0
2022-01-11,0.0,1519.0,1519.0,254828.5,-8091.0
2022-01-12,0.0,-308.0,-308.0,254520.5,-8399.0
2022-01-13,0.0,-756.0,-756.0,253764.5,-9155.0
2022-01-14,0.0,-1281.0,-1281.0,252483.5,-10436.0
2022-01-16,0.0,-651.0,-651.0,251832.5,-11087.0
2022-01-17,0.0,-161.0,-161.0,251671.5,-11248.0
2022-01-18,0.0,28.0,28.0,251699.5,-11220.0
2022-01-19,0.0,0.0,0.0,251699.5,-11220.0
2022-01-20,0.0,0.0,0.0,251699.5,-11220.0
2022-01-21,0.0,0.0,0.0,251699.5,-11220.0
2022-01-23,0.0,0.0,0.0,251699.5,-11220.0
2022-01-24,0.0,0.0,0.0,251699.5,-11220.0
2022-01-25,0.0,0.0,0.0,251699.5,-11220.0
2022-01-26,0.0,0.0,0.0,251699.5,-11220.0
2022-01-27,0.0,0.0,0.0,251699.5,-11220.0
2022-01-28,0.0,0.0,0.0,251699.5,-11220.0
2022-01-30,0.0,0.0,0.0,251699.5,-11220.0
2022-01-31,0.0,0.0,0.0,251699.5,-11220.0
2022-02-01,0.0,0.0,0.0,251699.5,-11220.0
2022-02-02,0.0,735.0,735.0,252434.5,-10485.0
2022-02-03,0.0,-1095.5,-1095.5,251339.0,-11580.5
2022-02-04,0.0,-3.5,-3.5,251335.5,-11584.0
2022-02-06,0.0,0.0,0.0,251335.5,-11584.0
2022-02-07,0.0,0.0,0.0,251335.5,-11584.0
2022-02-08,0.0,0.0,0.0,251335.5,-11584.0
2022-02-09,0.0,570.5,570.5,251906.0,-11013.5
2022-02-10,0.0,-2530.5,-2530.5,249375.5,-13544.0
2022-02-11,0.0,3.5,3.5,249379.0,-13540.5
2022-02-13,0.0,0.0,0.0,249379.0,-13540.5
2022-02-14,0.0,0.0,0.0,249379.0,-13540.5
2022-02-15,0.0,0.0,0.0,249379.0,-13540.5
2022-02-16,0.0,0.0,0.0,249379.0,-13540.5
2022-02-17,0.0,0.0,0.0,249379.0,-13540.5
2022-02-18,0.0,0.0,0.0,249379.0,-13540.5
2022-02-20,0.0,0.0,0.0,249379.0,-13540.5
2022-02-21,0.0,0.0,0.0,249379.0,-13540.5
2022-02-22,0.0,0.0,0.0,249379.0,-13540.5
2022-02-23,0.0,0.0,0.0,249379.0,-13540.5
2022-02-24,0.0,0.0,0.0,249379.0,-13540.5
2022-02-25,0.0,0.0,0.0,249379.0,-13540.5
2022-02-27,0.0,0.0,0.0,249379.0,-13540.5
2022-02-28,0.0,0.0,0.0,249379.0,-13540.5
2022-03-01,0.0,0.0,0.0,249379.0,-13540.5
2022-03-02,0.0,0.0,0.0,249379.0,-13540.5
2022-03-03,0.0,0.0,0.0,249379.0,-13540.5
2022-03-04,0.0,0.0,0.0,249379.0,-13540.5
2022-03-06,0.0,0.0,0.0,249379.0,-13540.5
2022-03-07,0.0,0.0,0.0,249379.0,-13540.5
2022-03-08,0.0,0.0,0.0,249379.0,-13540.5
2022-03-09,0.0,0.0,0.0,249379.0,-13540.5
2022-03-10,0.0,0.0,0.0,249379.0,-13540.5
2022-03-11,0.0,0.0,0.0,249379.0,-13540.5
2022-03-13,0.0,0.0,0.0,249379.0,-13540.5
2022-03-14,0.0,0.0,0.0,249379.0,-13540.5
2022-03-15,0.0,0.0,0.0,249379.0,-13540.5
2022-03-16,0.0,0.0,0.0,249379.0,-13540.5
2022-03-17,0.0,0.0,0.0,249379.0,-13540.5
2022-03-18,0.0,0.0,0.0,249379.0,-13540.5
2022-03-20,0.0,0.0,0.0,249379.0,-13540.5
2022-03-21,0.0,0.0,0.0,249379.0,-13540.5
2022-03-22,7824.0,0.0,7824.0,257203.0,-5716.5
2022-03-23,-4626.0,0.0,-4626.0,252577.0,-10342.5
2022-03-24,6624.0,0.0,6624.0,259201.0,-3718.5
2022-03-25,60.0,0.0,60.0,259261.0,-3658.5
2022-03-27,-756.0,0.0,-756.0,258505.0,-4414.5
2022-03-28,6048.0,770.0,6818.0,265323.0,0.0
2022-03-29,5964.0,917.0,6881.0,272204.0,0.0
2022-03-30,-2826.0,31.5,-2794.5,269409.5,-2794.5
2022-03-31,-4590.0,-1456.0,-6046.0,263363.5,-8840.5
2022-04-01,-67.5,-84.0,-151.5,263212.0,-8992.0
2022-04-03,-1449.0,28.0,-1421.0,261791.0,-10413.0
2022-04-04,13996.5,234.5,14231.0,276022.0,0.0
2022-04-05,-13324.5,-962.5,-14287.0,261735.0,-14287.0
2022-04-06,-16222.5,7.0,-16215.5,245519.5,-30502.5
2022-04-07,4924.5,0.0,4924.5,250444.0,-25578.0
2022-04-08,-9975.0,0.0,-9975.0,240469.0,-35553.0
2022-04-10,241.5,0.0,241.5,240710.5,-35311.5
2022-04-11,0.0,0.0,0.0,240710.5,-35311.5
2022-04-12,0.0,0.0,0.0,240710.5,-35311.5
2022-04-13,0.0,0.0,0.0,240710.5,-35311.5
2022-04-14,0.0,0.0,0.0,240710.5,-35311.5
2022-04-17,0.0,0.0,0.0,240710.5,-35311.5
2022-04-18,0.0,0.0,0.0,240710.5,-35311.5
2022-04-19,0.0,0.0,0.0,240710.5,-35311.5
2022-04-20,0.0,1246.0,1246.0,241956.5,-34065.5
2022-04-21,0.0,-2016.0,-2016.0,239940.5,-36081.5
2022-04-22,0.0,3.5,3.5,239944.0,-36078.0
2022-04-24,0.0,0.0,0.0,239944.0,-36078.0
2022-04-25,0.0,0.0,0.0,239944.0,-36078.0
2022-04-26,0.0,0.0,0.0,239944.0,-36078.0
2022-04-27,0.0,0.0,0.0,239944.0,-36078.0
2022-04-28,0.0,0.0,0.0,239944.0,-36078.0
2022-04-29,0.0,0.0,0.0,239944.0,-36078.0
2022-05-01,0.0,0.0,0.0,239944.0,-36078.0
2022-05-02,0.0,0.0,0.0,239944.0,-36078.0
2022-05-03,0.0,0.0,0.0,239944.0,-36078.0
2022-05-04,0.0,0.0,0.0,239944.0,-36078.0
2022-05-05,0.0,0.0,0.0,239944.0,-36078.0
2022-05-06,0.0,0.0,0.0,239944.0,-36078.0
2022-05-08,0.0,0.0,0.0,239944.0,-36078.0
2022-05-09,0.0,0.0,0.0,239944.0,-36078.0
2022-05-10,0.0,0.0,0.0,239944.0,-36078.0
2022-05-11,0.0,0.0,0.0,239944.0,-36078.0
2022-05-12,0.0,0.0,0.0,239944.0,-36078.0
2022-05-13,0.0,0.0,0.0,239944.0,-36078.0
2022-05-15,0.0,0.0,0.0,239944.0,-36078.0
2022-05-16,0.0,0.0,0.0,239944.0,-36078.0
2022-05-17,0.0,0.0,0.0,239944.0,-36078.0
2022-05-18,0.0,0.0,0.0,239944.0,-36078.0
2022-05-19,0.0,0.0,0.0,239944.0,-36078.0
2022-05-20,0.0,0.0,0.0,239944.0,-36078.0
2022-05-22,0.0,0.0,0.0,239944.0,-36078.0
2022-05-23,0.0,0.0,0.0,239944.0,-36078.0
2022-05-24,0.0,0.0,0.0,239944.0,-36078.0
2022-05-25,0.0,0.0,0.0,239944.0,-36078.0
2022-05-26,0.0,0.0,0.0,239944.0,-36078.0
2022-05-27,0.0,2467.5,2467.5,242411.5,-33610.5
2022-05-29,0.0,-73.5,-73.5,242338.0,-33684.0
2022-05-30,0.0,-126.0,-126.0,242212.0,-33810.0
2022-05-31,0.0,-143.5,-143.5,242068.5,-33953.5
2022-06-01,0.0,-1256.5,-1256.5,240812.0,-35210.0
2022-06-02,9900.0,1585.5,11485.5,252297.5,-23724.5
2022-06-03,-8928.0,-1151.5,-10079.5,242218.0,-33804.0
2022-06-05,0.0,378.0,378.0,242596.0,-33426.0
2022-06-06,1278.0,-861.0,417.0,243013.0,-33009.0
2022-06-07,1620.0,1050.0,2670.0,245683.0,-30339.0
2022-06-08,-1110.0,-633.5,-1743.5,243939.5,-32082.5
2022-06-09,-8064.0,-2012.5,-10076.5,233863.0,-42159.0
2022-06-10,-6.0,-105.0,-111.0,233752.0,-42270.0
2022-06-12,0.0,0.0,0.0,233752.0,-42270.0
2022-06-13,0.0,0.0,0.0,233752.0,-42270.0
2022-06-14,0.0,0.0,0.0,233752.0,-42270.0
2022-06-15,0.0,0.0,0.0,233752.0,-42270.0
2022-06-16,0.0,0.0,0.0,233752.0,-42270.0
2022-06-17,0.0,0.0,0.0,233752.0,-42270.0
2022-06-19,0.0,0.0,0.0,233752.0,-42270.0
2022-06-20,0.0,0.0,0.0,233752.0,-42270.0
2022-06-21,0.0,0.0,0.0,233752.0,-42270.0
2022-06-22,0.0,0.0,0.0,233752.0,-42270.0
2022-06-23,0.0,0.0,0.0,233752.0,-42270.0
2022-06-24,0.0,0.0,0.0,233752.0,-42270.0
2022-06-26,0.0,0.0,0.0,233752.0,-42270.0
2022-06-27,0.0,0.0,0.0,233752.0,-42270.0
2022-06-28,0.0,0.0,0.0,233752.0,-42270.0
2022-06-29,0.0,0.0,0.0,233752.0,-42270.0
2022-06-30,0.0,0.0,0.0,233752.0,-42270.0
2022-07-01,0.0,0.0,0.0,233752.0,-42270.0
2022-07-03,0.0,0.0,0.0,233752.0,-42270.0
2022-07-04,0.0,0.0,0.0,233752.0,-42270.0
2022-07-05,0.0,0.0,0.0,233752.0,-42270.0
2022-07-06,0.0,0.0,0.0,233752.0,-42270.0
2022-07-07,0.0,0.0,0.0,233752.0,-42270.0
2022-07-08,0.0,0.0,0.0,233752.0,-42270.0
2022-07-10,0.0,0.0,0.0,233752.0,-42270.0
2022-07-11,0.0,0.0,0.0,233752.0,-42270.0
2022-07-12,0.0,0.0,0.0,233752.0,-42270.0
2022-07-13,0.0,0.0,0.0,233752.0,-42270.0
2022-07-14,0.0,0.0,0.0,233752.0,-42270.0
2022-07-15,0.0,0.0,0.0,233752.0,-42270.0
2022-07-17,0.0,0.0,0.0,233752.0,-42270.0
2022-07-18,0.0,0.0,0.0,233752.0,-42270.0
2022-07-19,0.0,3090.5,3090.5,236842.5,-39179.5
2022-07-20,2958.0,-490.0,2468.0,239310.5,-36711.5
2022-07-21,2688.0,542.5,3230.5,242541.0,-33481.0
2022-07-22,-2898.0,-381.5,-3279.5,239261.5,-36760.5
2022-07-24,-576.0,-38.5,-614.5,238647.0,-37375.0
2022-07-25,-2514.0,17.5,-2496.5,236150.5,-39871.5
2022-07-26,6.0,-63.0,-57.0,236093.5,-39928.5
2022-07-27,0.0,994.0,994.0,237087.5,-38934.5
2022-07-28,7584.0,1330.0,8914.0,246001.5,-30020.5
2022-07-29,1962.0,910.0,2872.0,248873.5,-27148.5
2022-07-31,-1326.0,-959.0,-2285.0,246588.5,-29433.5
2022-08-01,756.0,-35.0,721.0,247309.5,-28712.5
2022-08-02,-1146.0,-1617.0,-2763.0,244546.5,-31475.5
2022-08-03,7950.0,2212.0,10162.0,254708.5,-21313.5
2022-08-04,2376.0,112.0,2488.0,257196.5,-18825.5
2022-08-05,-2947.5,-371.0,-3318.5,253878.0,-22144.0
2022-08-07,-1554.0,35.0,-1519.0,252359.0,-23663.0
2022-08-08,1806.0,1078.0,2884.0,255243.0,-20779.0
2022-08-09,-7056.0,-1029.0,-8085.0,247158.0,-28864.0
2022-08-10,14542.5,4431.0,18973.5,266131.5,-9890.5
2022-08-11,-2656.5,-133.0,-2789.5,263342.0,-12680.0
2022-08-12,10279.5,2656.0,12935.5,276277.5,0.0
2022-08-14,-1690.5,-544.0,-2234.5,274043.0,-2234.5
2022-08-15,5922.0,1784.0,7706.0,281749.0,0.0
2022-08-16,-1228.5,2024.0,795.5,282544.5,0.0
2022-08-17,-8253.0,-1464.0,-9717.0,272827.5,-9717.0
2022-08-18,3013.5,-40.0,2973.5,275801.0,-6743.5
2022-08-19,-11655.0,-1912.0,-13567.0,262234.0,-20310.5
2022-08-21,-2614.5,-960.0,-3574.5,258659.5,-23885.0
2022-08-22,-9733.5,-3792.0,-13525.5,245134.0,-37410.5
2022-08-23,-2530.5,8.0,-2522.5,242611.5,-39933.0
2022-08-24,1638.0,0.0,1638.0,244249.5,-38295.0
2022-08-25,8820.0,0.0,8820.0,253069.5,-29475.0
2022-08-26,21.0,0.0,21.0,253090.5,-29454.0
2022-08-28,0.0,0.0,0.0,253090.5,-29454.0
2022-08-29,0.0,0.0,0.0,253090.5,-29454.0
2022-08-30,0.0,0.0,0.0,253090.5,-29454.0
2022-08-31,0.0,0.0,0.0,253090.5,-29454.0
2022-09-01,0.0,0.0,0.0,253090.5,-29454.0
2022-09-02,0.0,0.0,0.0,253090.5,-29454.0
2022-09-04,0.0,0.0,0.0,253090.5,-29454.0
2022-09-05,0.0,0.0,0.0,253090.5,-29454.0
2022-09-06,0.0,0.0,0.0,253090.5,-29454.0
2022-09-07,0.0,0.0,0.0,253090.5,-29454.0
2022-09-08,0.0,0.0,0.0,253090.5,-29454.0
2022-09-09,0.0,0.0,0.0,253090.5,-29454.0
2022-09-11,0.0,0.0,0.0,253090.5,-29454.0
2022-09-12,0.0,0.0,0.0,253090.5,-29454.0
2022-09-13,0.0,0.0,0.0,253090.5,-29454.0
2022-09-14,0.0,0.0,0.0,253090.5,-29454.0
2022-09-15,0.0,0.0,0.0,253090.5,-29454.0
2022-09-16,0.0,0.0,0.0,253090.5,-29454.0
2022-09-18,0.0,0.0,0.0,253090.5,-29454.0
2022-09-19,0.0,0.0,0.0,253090.5,-29454.0
2022-09-20,0.0,0.0,0.0,253090.5,-29454.0
2022-09-21,0.0,0.0,0.0,253090.5,-29454.0
2022-09-22,0.0,0.0,0.0,253090.5,-29454.0
2022-09-23,0.0,0.0,0.0,253090.5,-29454.0
2022-09-25,0.0,0.0,0.0,253090.5,-29454.0
2022-09-26,0.0,0.0,0.0,253090.5,-29454.0
2022-09-27,0.0,0.0,0.0,253090.5,-29454.0
2022-09-28,0.0,0.0,0.0,253090.5,-29454.0
2022-09-29,0.0,0.0,0.0,253090.5,-29454.0
2022-09-30,0.0,0.0,0.0,253090.5,-29454.0
2022-10-02,0.0,0.0,0.0,253090.5,-29454.0
2022-10-03,0.0,0.0,0.0,253090.5,-29454.0
2022-10-04,0.0,0.0,0.0,253090.5,-29454.0
2022-10-05,0.0,0.0,0.0,253090.5,-29454.0
2022-10-06,0.0,0.0,0.0,253090.5,-29454.0
2022-10-07,0.0,0.0,0.0,253090.5,-29454.0
2022-10-09,0.0,0.0,0.0,253090.5,-29454.0
2022-10-10,0.0,0.0,0.0,253090.5,-29454.0
2022-10-11,0.0,0.0,0.0,253090.5,-29454.0
2022-10-12,0.0,0.0,0.0,253090.5,-29454.0
2022-10-13,0.0,0.0,0.0,253090.5,-29454.0
2022-10-14,0.0,0.0,0.0,253090.5,-29454.0
2022-10-16,0.0,0.0,0.0,253090.5,-29454.0
2022-10-17,0.0,2670.5,2670.5,255761.0,-26783.5
2022-10-18,0.0,497.0,497.0,256258.0,-26286.5
2022-10-19,0.0,-1270.5,-1270.5,254987.5,-27557.0
2022-10-20,0.0,-182.0,-182.0,254805.5,-27739.0
2022-10-21,0.0,3038.0,3038.0,257843.5,-24701.0
2022-10-23,0.0,-213.5,-213.5,257630.0,-24914.5
2022-10-24,0.0,1463.0,1463.0,259093.0,-23451.5
2022-10-25,0.0,920.5,920.5,260013.5,-22531.0
2022-10-26,0.0,868.0,868.0,260881.5,-21663.0
2022-10-27,0.0,175.0,175.0,261056.5,-21488.0
2022-10-28,0.0,3503.5,3503.5,264560.0,-17984.5
2022-10-30,0.0,-756.0,-756.0,263804.0,-18740.5
2022-10-31,0.0,14.0,14.0,263818.0,-18726.5
2022-11-01,0.0,-1099.0,-1099.0,262719.0,-19825.5
2022-11-02,0.0,-3423.0,-3423.0,259296.0,-23248.5
2022-11-03,0.0,-1687.0,-1687.0,257609.0,-24935.5
2022-11-04,0.0,2660.0,2660.0,260269.0,-22275.5
2022-11-06,0.0,70.0,70.0,260339.0,-22205.5
2022-11-07,0.0,3213.0,3213.0,263552.0,-18992.5
2022-11-08,0.0,2233.0,2233.0,265785.0,-16759.5
2022-11-09,0.0,-4095.0,-4095.0,261690.0,-20854.5
2022-11-10,0.0,8498.0,8498.0,270188.0,-12356.5
2022-11-11,3840.0,-302.0,3538.0,273726.0,-8818.5
2022-11-13,-576.0,-560.0,-1136.0,272590.0,-9954.5
2022-11-14,-1062.0,-152.0,-1214.0,271376.0,-11168.5
2022-11-15,3162.0,-1000.0,2162.0,273538.0,-9006.5
2022-11-16,-2850.0,384.0,-2466.0,271072.0,-11472.5
2022-11-17,-1446.0,-520.0,-1966.0,269106.0,-13438.5
2022-11-18,-246.0,1888.0,1642.0,270748.0,-11796.5
2022-11-20,-12.0,-520.0,-532.0,270216.0,-12328.5
2022-11-21,-2760.0,432.0,-2328.0,267888.0,-14656.5
2022-11-22,6.0,2960.0,2966.0,270854.0,-11690.5
2022-11-23,3444.0,1080.0,4524.0,275378.0,-7166.5
2022-11-24,702.0,-104.0,598.0,275976.0,-6568.5
2022-11-25,-3210.0,1056.0,-2154.0,273822.0,-8722.5
2022-11-27,-1374.0,-1440.0,-2814.0,271008.0,-11536.5
2022-11-28,-2592.0,-2088.0,-4680.0,266328.0,-16216.5
2022-11-29,-6.0,-328.0,-334.0,265994.0,-16550.5
2022-11-30,0.0,5680.0,5680.0,271674.0,-10870.5
2022-12-01,-792.0,-1792.0,-2584.0,269090.0,-13454.5
2022-12-02,-1446.0,80.0,-1366.0,267724.0,-14820.5
2022-12-04,522.0,336.0,858.0,268582.0,-13962.5
2022-12-05,-4374.0,-3272.0,-7646.0,260936.0,-21608.5
2022-12-06,-5784.0,-2704.0,-8488.0,252448.0,-30096.5
2022-12-07,12.0,-656.0,-644.0,251804.0,-30740.5
2022-12-08,0.0,1960.0,1960.0,253764.0,-28780.5
2022-12-09,0.0,-2920.0,-2920.0,250844.0,-31700.5
2022-12-11,0.0,1968.0,1968.0,252812.0,-29732.5
2022-12-12,0.0,4336.0,4336.0,257148.0,-25396.5
2022-12-13,3168.0,1704.0,4872.0,262020.0,-20524.5
2022-12-14,-1842.0,-1808.0,-3650.0,258370.0,-24174.5
2022-12-15,-10182.0,-6888.0,-17070.0,241300.0,-41244.5
2022-12-16,0.0,16.0,16.0,241316.0,-41228.5
2022-12-18,0.0,0.0,0.0,241316.0,-41228.5
2022-12-19,0.0,0.0,0.0,241316.0,-41228.5
2022-12-20,0.0,0.0,0.0,241316.0,-41228.5
2022-12-21,0.0,0.0,0.0,241316.0,-41228.5
2022-12-22,0.0,0.0,0.0,241316.0,-41228.5
2022-12-23,0.0,0.0,0.0,241316.0,-41228.5
2022-12-26,0.0,0.0,0.0,241316.0,-41228.5
2022-12-27,0.0,0.0,0.0,241316.0,-41228.5
2022-12-28,0.0,0.0,0.0,241316.0,-41228.5
2022-12-29,0.0,0.0,0.0,241316.0,-41228.5
2022-12-30,0.0,0.0,0.0,241316.0,-41228.5
2023-01-02,0.0,0.0,0.0,241316.0,-41228.5
2023-01-03,0.0,0.0,0.0,241316.0,-41228.5
2023-01-04,0.0,0.0,0.0,241316.0,-41228.5
2023-01-05,0.0,0.0,0.0,241316.0,-41228.5
2023-01-06,0.0,0.0,0.0,241316.0,-41228.5
2023-01-08,0.0,0.0,0.0,241316.0,-41228.5
2023-01-09,0.0,0.0,0.0,241316.0,-41228.5
2023-01-10,0.0,0.0,0.0,241316.0,-41228.5
2023-01-11,0.0,0.0,0.0,241316.0,-41228.5
2023-01-12,0.0,0.0,0.0,241316.0,-41228.5
2023-01-13,0.0,0.0,0.0,241316.0,-41228.5
2023-01-15,0.0,0.0,0.0,241316.0,-41228.5
2023-01-16,0.0,0.0,0.0,241316.0,-41228.5
2023-01-17,0.0,0.0,0.0,241316.0,-41228.5
2023-01-18,0.0,0.0,0.0,241316.0,-41228.5
2023-01-19,0.0,0.0,0.0,241316.0,-41228.5
2023-01-20,5845.0,0.0,5845.0,247161.0,-35383.5
2023-01-22,-360.0,0.0,-360.0,246801.0,-35743.5
2023-01-23,5205.0,0.0,5205.0,252006.0,-30538.5
2023-01-24,-1570.0,0.0,-1570.0,250436.0,-32108.5
2023-01-25,1345.0,0.0,1345.0,251781.0,-30763.5
2023-01-26,2650.0,0.0,2650.0,254431.0,-28113.5
2023-01-27,3600.0,0.0,3600.0,258031.0,-24513.5
2023-01-29,-285.0,0.0,-285.0,257746.0,-24798.5
2023-01-30,-4065.0,0.0,-4065.0,253681.0,-28863.5
2023-01-31,2020.0,0.0,2020.0,255701.0,-26843.5
2023-02-01,8840.0,0.0,8840.0,264541.0,-18003.5
2023-02-02,2365.0,0.0,2365.0,266906.0,-15638.5
2023-02-03,-791.0,0.0,-791.0,266115.0,-16429.5
2023-02-05,-978.5,0.0,-978.5,265136.5,-17408.0
2023-02-06,-2080.5,0.0,-2080.5,263056.0,-19488.5
2023-02-07,8132.0,0.0,8132.0,271188.0,-11356.5
2023-02-08,-7182.0,0.0,-7182.0,264006.0,-18538.5
2023-02-09,-4797.5,0.0,-4797.5,259208.5,-23336.0
2023-02-10,-3733.5,0.0,-3733.5,255475.0,-27069.5
2023-02-12,-1130.5,0.0,-1130.5,254344.5,-28200.0
2023-02-13,8816.0,0.0,8816.0,263160.5,-19384.0
2023-02-14,2622.0,0.0,2622.0,265782.5,-16762.0
2023-02-15,5272.5,0.0,5272.5,271055.0,-11489.5
2023-02-16,-12122.0,0.0,-12122.0,258933.0,-23611.5
2023-02-17,-1681.5,0.0,-1681.5,257251.5,-25293.0
2023-02-19,-902.5,0.0,-902.5,256349.0,-26195.5
2023-02-20,731.5,0.0,731.5,257080.5,-25464.0
2023-02-21,-10051.0,0.0,-10051.0,247029.5,-35515.0
2023-02-22,2023.5,0.0,2023.5,249053.0,-33491.5
2023-02-23,237.5,0.0,237.5,249290.5,-33254.0
2023-02-24,-6650.0,0.0,-6650.0,242640.5,-39904.0
2023-02-26,703.0,0.0,703.0,243343.5,-39201.0
2023-02-27,2888.0,0.0,2888.0,246231.5,-36313.0
2023-02-28,-2707.5,0.0,-2707.5,243524.0,-39020.5
2023-03-01,-1928.5,0.0,-1928.5,241595.5,-40949.0
2023-03-02,2498.5,0.0,2498.5,244094.0,-38450.5
2023-03-03,10991.5,0.0,10991.5,255085.5,-27459.0
2023-03-05,-1301.5,0.0,-1301.5,253784.0,-28760.5
2023-03-06,1453.5,0.0,1453.5,255237.5,-27307.0
2023-03-07,-5852.0,0.0,-5852.0,249385.5,-33159.0
2023-03-08,1843.0,0.0,1843.0,251228.5,-31316.0
2023-03-09,-9091.5,0.0,-9091.5,242137.0,-40407.5
2023-03-10,0.0,0.0,0.0,242137.0,-40407.5
2023-03-12,0.0,0.0,0.0,242137.0,-40407.5
2023-03-13,0.0,0.0,0.0,242137.0,-40407.5
2023-03-14,0.0,0.0,0.0,242137.0,-40407.5
2023-03-15,0.0,0.0,0.0,242137.0,-40407.5
2023-03-16,6400.0,0.0,6400.0,248537.0,-34007.5
2023-03-17,-1475.0,0.0,-1475.0,247062.0,-35482.5
2023-03-19,1125.0,0.0,1125.0,248187.0,-34357.5
2023-03-20,-260.0,0.0,-260.0,247927.0,-34617.5
2023-03-21,3510.0,0.0,3510.0,251437.0,-31107.5
2023-03-22,-2995.0,0.0,-2995.0,248442.0,-34102.5
2023-03-23,2925.0,0.0,2925.0,251367.0,-31177.5
2023-03-24,2130.0,0.0,2130.0,253497.0,-29047.5
2023-03-26,893.0,0.0,893.0,254390.0,-28154.5
2023-03-27,-4759.5,0.0,-4759.5,249630.5,-32914.0
2023-03-28,-2394.0,0.0,-2394.0,247236.5,-35308.0
2023-03-29,6973.0,0.0,6973.0,254209.5,-28335.0
2023-03-30,5814.0,0.0,5814.0,260023.5,-22521.0
2023-03-31,8075.0,2562.0,10637.0,270660.5,-11884.0
2023-04-02,-2603.0,-444.0,-3047.0,267613.5,-14931.0
2023-04-03,266.0,1974.0,2240.0,269853.5,-12691.0
2023-04-04,-237.5,-1104.0,-1341.5,268512.0,-14032.5
2023-04-05,-6982.5,0.0,-6982.5,261529.5,-21015.0
2023-04-06,3895.0,102.0,3997.0,265526.5,-17018.0
2023-04-07,807.5,606.0,1413.5,266940.0,-15604.5
2023-04-09,-931.0,-240.0,-1171.0,265769.0,-16775.5
2023-04-10,608.0,696.0,1304.0,267073.0,-15471.5
2023-04-11,-3144.5,456.0,-2688.5,264384.5,-18160.0
2023-04-12,-6004.0,-402.0,-6406.0,257978.5,-24566.0
2023-04-13,9889.5,2040.0,11929.5,269908.0,-12636.5
2023-04-14,285.0,-57.0,228.0,270136.0,-12408.5
2023-04-16,-484.5,21.0,-463.5,269672.5,-12872.0
2023-04-17,-294.5,273.0,-21.5,269651.0,-12893.5
2023-04-18,-142.5,-535.5,-678.0,268973.0,-13571.5
2023-04-19,-1786.0,-535.5,-2321.5,266651.5,-15893.0
2023-04-20,-1738.5,-1218.0,-2956.5,263695.0,-18849.5
2023-04-21,-266.0,262.5,-3.5,263691.5,-18853.0
2023-04-23,-266.0,-913.5,-1179.5,262512.0,-20032.5
2023-04-24,-712.5,1144.5,432.0,262944.0,-19600.5
2023-04-25,-3401.0,-2772.0,-6173.0,256771.0,-25773.5
2023-04-26,-114.0,-2488.5,-2602.5,254168.5,-28376.0
2023-04-27,9623.5,4567.5,14191.0,268359.5,-14185.0
2023-04-28,4436.5,3444.0,7880.5,276240.0,-6304.5
2023-04-30,-750.5,-42.0,-792.5,275447.5,-7097.0
2023-05-01,-817.0,-661.5,-1478.5,273969.0,-8575.5
2023-05-02,-3933.0,-3391.5,-7324.5,266644.5,-15900.0
2023-05-03,-3211.0,-3129.0,-6340.0,260304.5,-22240.0
2023-05-04,-152.0,0.0,-152.0,260152.5,-22392.0
2023-05-05,8236.5,0.0,8236.5,268389.0,-14155.5
2023-05-07,-237.5,0.0,-237.5,268151.5,-14393.0
2023-05-08,1244.5,0.0,1244.5,269396.0,-13148.5
2023-05-09,-2337.0,0.0,-2337.0,267059.0,-15485.5
2023-05-10,5557.5,0.0,5557.5,272616.5,-9928.0
2023-05-11,1254.0,0.0,1254.0,273870.5,-8674.0
2023-05-12,-3239.5,0.0,-3239.5,270631.0,-11913.5
2023-05-14,-123.5,0.0,-123.5,270507.5,-12037.0
2023-05-15,3496.0,0.0,3496.0,274003.5,-8541.0
2023-05-16,1567.5,0.0,1567.5,275571.0,-6973.5
2023-05-17,5462.5,0.0,5462.5,281033.5,-1511.0
2023-05-18,10877.5,0.0,10877.5,291911.0,0.0
2023-05-19,-3344.0,0.0,-3344.0,288567.0,-3344.0
2023-05-21,465.5,0.0,465.5,289032.5,-2878.5
2023-05-22,3401.0,0.0,3401.0,292433.5,0.0
2023-05-23,-7400.5,0.0,-7400.5,285033.0,-7400.5
2023-05-24,3752.5,0.0,3752.5,288785.5,-3648.0
2023-05-25,4484.0,0.0,4484.0,293269.5,0.0
2023-05-26,15428.0,0.0,15428.0,308697.5,0.0
2023-05-28,1729.0,0.0,1729.0,310426.5,0.0
2023-05-29,-1159.0,0.0,-1159.0,309267.5,-1159.0
2023-05-30,1358.5,0.0,1358.5,310626.0,0.0
2023-05-31,-4246.5,0.0,-4246.5,306379.5,-4246.5
2023-06-01,6583.5,0.0,6583.5,312963.0,0.0
2023-06-02,3923.5,3948.0,7871.5,320834.5,0.0
2023-06-04,-1900.0,90.0,-1810.0,319024.5,-1810.0
2023-06-05,1111.5,-1302.0,-190.5,318834.0,-2000.5
2023-06-06,1111.5,102.0,1213.5,320047.5,-787.0
2023-06-07,-10060.5,180.0,-9880.5,310167.0,-10667.5
2023-06-08,6450.5,954.0,7404.5,317571.5,-3263.0
2023-06-09,2394.0,402.0,2796.0,320367.5,-467.0
2023-06-11,1073.5,120.0,1193.5,321561.0,0.0
2023-06-12,15637.0,3000.0,18637.0,340198.0,0.0
2023-06-13,3895.0,234.0,4129.0,344327.0,0.0
2023-06-14,4142.0,-1092.0,3050.0,347377.0,0.0
2023-06-15,5510.0,2586.0,8096.0,355473.0,0.0
2023-06-16,-2204.0,-856.5,-3060.5,352412.5,-3060.5
2023-06-18,66.5,-546.0,-479.5,351933.0,-3540.0
2023-06-19,-2071.0,-682.5,-2753.5,349179.5,-6293.5
2023-06-20,503.5,-1354.5,-851.0,348328.5,-7144.5
2023-06-21,-8398.0,-1281.0,-9679.0,338649.5,-16823.5
2023-06-22,6868.5,-1648.5,5220.0,343869.5,-11603.5
2023-06-23,-6317.5,-1092.0,-7409.5,336460.0,-19013.0
2023-06-25,1719.5,861.0,2580.5,339040.5,-16432.5
2023-06-26,-7894.5,-220.5,-8115.0,330925.5,-24547.5
2023-06-27,6317.5,1533.0,7850.5,338776.0,-16697.0
2023-06-28,4294.0,-493.5,3800.5,342576.5,-12896.5
2023-06-29,-2109.0,2215.5,106.5,342683.0,-12790.0
2023-06-30,7628.5,2856.0,10484.5,353167.5,-2305.5
2023-07-02,1273.0,304.5,1577.5,354745.0,-728.0
2023-07-03,-503.5,21.0,-482.5,354262.5,-1210.5
2023-07-04,104.5,-451.5,-347.0,353915.5,-1557.5
2023-07-05,665.0,-2079.0,-1414.0,352501.5,-2971.5
2023-07-06,-4997.0,-2824.5,-7821.5,344680.0,-10793.0
2023-07-07,-1320.5,-1711.5,-3032.0,341648.0,-13825.0
2023-07-09,-408.5,-829.5,-1238.0,340410.0,-15063.0
2023-07-10,437.0,2803.5,3240.5,343650.5,-11822.5
2023-07-11,2745.5,3024.0,5769.5,349420.0,-6053.0
2023-07-12,7875.5,1785.0,9660.5,359080.5,0.0
2023-07-13,9139.0,-808.5,8330.5,367411.0,0.0
2023-07-14,-760.0,1260.0,500.0,367911.0,0.0
2023-07-16,-969.0,-31.5,-1000.5,366910.5,-1000.5
2023-07-17,5747.5,1018.5,6766.0,373676.5,0.0
2023-07-18,5434.0,4252.5,9686.5,383363.0,0.0
2023-07-19,-3961.5,997.5,-2964.0,380399.0,-2964.0
2023-07-20,-10526.0,2058.0,-8468.0,371931.0,-11432.0
2023-07-21,-950.0,-693.0,-1643.0,370288.0,-13075.0
2023-07-23,-218.5,-31.5,-250.0,370038.0,-13325.0
2023-07-24,693.5,1974.0,2667.5,372705.5,-10657.5
2023-07-25,2669.5,52.5,2722.0,375427.5,-7935.5
2023-07-26,589.0,1270.5,1859.5,377287.0,-6076.0
2023-07-27,-2536.5,-2614.5,-5151.0,372136.0,-11227.0
2023-07-28,9842.0,1396.5,11238.5,383374.5,0.0
2023-07-30,1586.5,-525.0,1061.5,384436.0,0.0
2023-07-31,-1026.0,1753.5,727.5,385163.5,0.0
2023-08-01,-4075.5,-556.5,-4632.0,380531.5,-4632.0
2023-08-02,-9918.0,-1827.0,-11745.0,368786.5,-16377.0
2023-08-03,-408.5,-1008.0,-1416.5,367370.0,-17793.5
2023-08-04,-9.5,-2373.0,-2382.5,364987.5,-20176.0
2023-08-06,0.0,1144.5,1144.5,366132.0,-19031.5
2023-08-07,0.0,2509.5,2509.5,368641.5,-16522.0
2023-08-08,0.0,-1165.5,-1165.5,367476.0,-17687.5
2023-08-09,0.0,-472.5,-472.5,367003.5,-18160.0
2023-08-10,0.0,-882.0,-882.0,366121.5,-19042.0
2023-08-11,0.0,1207.5,1207.5,367329.0,-17834.5
2023-08-13,0.0,-934.5,-934.5,366394.5,-18769.0
2023-08-14,0.0,1165.5,1165.5,367560.0,-17603.5
2023-08-15,0.0,-3916.5,-3916.5,363643.5,-21520.0
2023-08-16,0.0,10.5,10.5,363654.0,-21509.5
2023-08-17,0.0,0.0,0.0,363654.0,-21509.5
2023-08-18,0.0,0.0,0.0,363654.0,-21509.5
2023-08-20,0.0,0.0,0.0,363654.0,-21509.5
2023-08-21,0.0,0.0,0.0,363654.0,-21509.5
2023-08-22,0.0,0.0,0.0,363654.0,-21509.5
2023-08-23,0.0,0.0,0.0,363654.0,-21509.5
2023-08-24,0.0,0.0,0.0,363654.0,-21509.5
2023-08-25,0.0,0.0,0.0,363654.0,-21509.5
2023-08-27,0.0,0.0,0.0,363654.0,-21509.5
2023-08-28,0.0,0.0,0.0,363654.0,-21509.5
2023-08-29,6755.0,0.0,6755.0,370409.0,-14754.5
2023-08-30,1360.0,0.0,1360.0,371769.0,-13394.5
2023-08-31,670.0,0.0,670.0,372439.0,-12724.5
2023-09-01,-480.0,0.0,-480.0,371959.0,-13204.5
2023-09-03,85.0,0.0,85.0,372044.0,-13119.5
2023-09-04,190.0,0.0,190.0,372234.0,-12929.5
2023-09-05,-85.0,0.0,-85.0,372149.0,-13014.5
2023-09-06,-2615.0,0.0,-2615.0,369534.0,-15629.5
2023-09-07,-2210.0,0.0,-2210.0,367324.0,-17839.5
2023-09-08,1405.0,0.0,1405.0,368729.0,-16434.5
2023-09-10,313.5,0.0,313.5,369042.5,-16121.0
2023-09-11,12758.5,0.0,12758.5,381801.0,-3362.5
2023-09-12,-5814.0,0.0,-5814.0,375987.0,-9176.5
2023-09-13,2812.0,0.0,2812.0,378799.0,-6364.5
2023-09-14,3705.0,2070.0,5775.0,384574.0,-589.5
2023-09-15,-11172.0,-2352.0,-13524.0,371050.0,-14113.5
2023-09-17,1140.0,-12.0,1128.0,372178.0,-12985.5
2023-09-18,427.5,0.0,427.5,372605.5,-12558.0
2023-09-19,-1558.0,0.0,-1558.0,371047.5,-14116.0
2023-09-20,-10250.5,0.0,-10250.5,360797.0,-24366.5
2023-09-21,-28.5,0.0,-28.5,360768.5,-24395.0
2023-09-22,0.0,0.0,0.0,360768.5,-24395.0
2023-09-24,0.0,0.0,0.0,360768.5,-24395.0
2023-09-25,0.0,0.0,0.0,360768.5,-24395.0
2023-09-26,0.0,0.0,0.0,360768.5,-24395.0
2023-09-27,0.0,0.0,0.0,360768.5,-24395.0
2023-09-28,0.0,0.0,0.0,360768.5,-24395.0
2023-09-29,0.0,0.0,0.0,360768.5,-24395.0
2023-10-01,0.0,0.0,0.0,360768.5,-24395.0
2023-10-02,0.0,0.0,0.0,360768.5,-24395.0
2023-10-03,0.0,0.0,0.0,360768.5,-24395.0
2023-10-04,0.0,0.0,0.0,360768.5,-24395.0
2023-10-05,0.0,0.0,0.0,360768.5,-24395.0
2023-10-06,0.0,0.0,0.0,360768.5,-24395.0
2023-10-08,0.0,0.0,0.0,360768.5,-24395.0
2023-10-09,0.0,0.0,0.0,360768.5,-24395.0
2023-10-10,0.0,0.0,0.0,360768.5,-24395.0
2023-10-11,2550.0,0.0,2550.0,363318.5,-21845.0
2023-10-12,-1705.0,0.0,-1705.0,361613.5,-23550.0
2023-10-13,-4465.0,0.0,-4465.0,357148.5,-28015.0
2023-10-15,260.0,0.0,260.0,357408.5,-27755.0
2023-10-16,0.0,0.0,0.0,357408.5,-27755.0
2023-10-17,-1585.0,0.0,-1585.0,355823.5,-29340.0
2023-10-18,-20.0,0.0,-20.0,355803.5,-29360.0
2023-10-19,0.0,0.0,0.0,355803.5,-29360.0
2023-10-20,0.0,0.0,0.0,355803.5,-29360.0
2023-10-22,0.0,0.0,0.0,355803.5,-29360.0
2023-10-23,0.0,0.0,0.0,355803.5,-29360.0
2023-10-24,0.0,0.0,0.0,355803.5,-29360.0
2023-10-25,0.0,0.0,0.0,355803.5,-29360.0
2023-10-26,0.0,0.0,0.0,355803.5,-29360.0
2023-10-27,0.0,0.0,0.0,355803.5,-29360.0
2023-10-29,0.0,0.0,0.0,355803.5,-29360.0
2023-10-30,0.0,0.0,0.0,355803.5,-29360.0
2023-10-31,0.0,0.0,0.0,355803.5,-29360.0
2023-11-01,0.0,0.0,0.0,355803.5,-29360.0
2023-11-02,0.0,3456.0,3456.0,359259.5,-25904.0
2023-11-03,4820.0,1284.0,6104.0,365363.5,-19800.0
2023-11-05,-175.0,-30.0,-205.0,365158.5,-20005.0
2023-11-06,660.0,-480.0,180.0,365338.5,-19825.0
2023-11-07,3190.0,684.0,3874.0,369212.5,-15951.0
2023-11-08,-205.0,-114.0,-319.0,368893.5,-16270.0
2023-11-09,-2505.0,-1074.0,-3579.0,365314.5,-19849.0
2023-11-10,6970.0,1644.0,8614.0,373928.5,-11235.0
2023-11-12,-420.0,-903.0,-1323.0,372605.5,-12558.0
2023-11-13,-35.0,1816.5,1781.5,374387.0,-10776.5
2023-11-14,6925.0,5817.0,12742.0,387129.0,0.0
2023-11-15,-795.0,777.0,-18.0,387111.0,-18.0
2023-11-16,415.0,462.0,877.0,387988.0,0.0
2023-11-17,-221.5,-724.5,-946.0,387042.0,-946.0
2023-11-19,-389.5,126.0,-263.5,386778.5,-1209.5
2023-11-20,9006.0,2394.0,11400.0,398178.5,0.0
2023-11-21,-5567.0,-535.5,-6102.5,392076.0,-6102.5
2023-11-22,3477.0,1281.0,4758.0,396834.0,-1344.5
2023-11-23,712.5,399.0,1111.5,397945.5,-233.0
2023-11-24,-2042.5,1029.0,-1013.5,396932.0,-1246.5
2023-11-26,-931.0,-892.5,-1823.5,395108.5,-3070.0
2023-11-27,893.0,325.5,1218.5,396327.0,-1851.5
2023-11-28,1653.0,1249.5,2902.5,399229.5,0.0
2023-11-29,-237.5,1228.5,991.0,400220.5,0.0
2023-11-30,-3135.0,4357.5,1222.5,401443.0,0.0
2023-12-01,2527.0,3097.5,5624.5,407067.5,0.0
2023-12-03,-1482.0,-220.5,-1702.5,405365.0,-1702.5
2023-12-04,-5415.0,-1039.5,-6454.5,398910.5,-8157.0
2023-12-05,2983.0,546.0,3529.0,402439.5,-4628.0
2023-12-06,-4237.0,-1816.5,-6053.5,396386.0,-10681.5
2023-12-07,7733.0,1029.0,8762.0,405148.0,-1919.5
2023-12-08,2755.0,1071.0,3826.0,408974.0,0.0
2023-12-10,456.0,3717.0,4173.0,413147.0,0.0
2023-12-11,13309.5,1890.0,15199.5,428346.5,0.0
2023-12-12,5880.5,2005.5,7886.0,436232.5,0.0
2023-12-13,7847.0,6111.0,13958.0,450190.5,0.0
2023-12-14,-2109.0,1050.0,-1059.0,449131.5,-1059.0
2023-12-15,2109.0,-283.5,1825.5,450957.0,0.0
2023-12-17,294.5,766.5,1061.0,452018.0,0.0
2023-12-18,3819.0,-724.5,3094.5,455112.5,0.0
2023-12-19,3933.0,2772.0,6705.0,461817.5,0.0
2023-12-20,-8208.0,-4210.5,-12418.5,449399.0,-12418.5
2023-12-21,4949.5,1029.0,5978.5,455377.5,-6440.0
2023-12-22,779.0,756.0,1535.0,456912.5,-4905.0
2023-12-25,1577.0,829.5,2406.5,459319.0,-2498.5
2023-12-26,3249.0,1123.5,4372.5,463691.5,0.0
2023-12-27,1225.5,1270.5,2496.0,466187.5,0.0
2023-12-28,-798.0,367.5,-430.5,465757.0,-430.5
2023-12-29,-3676.5,-850.5,-4527.0,461230.0,-4957.5
2024-01-01,1493.5,1455.5,2949.0,464179.0,-2008.5
2024-01-02,-17704.5,-1312.0,-19016.5,445162.5,-21025.0
2024-01-03,14.5,-5063.5,-5049.0,440113.5,-26074.0
2024-01-04,0.0,266.5,266.5,440380.0,-25807.5
2024-01-05,0.0,-574.0,-574.0,439806.0,-26381.5
2024-01-07,0.0,-2480.5,-2480.5,437325.5,-28862.0
2024-01-08,0.0,6006.5,6006.5,443332.0,-22855.5
2024-01-09,0.0,-3403.0,-3403.0,439929.0,-26258.5
2024-01-10,0.0,5637.5,5637.5,445566.5,-20621.0
2024-01-11,0.0,-2050.0,-2050.0,443516.5,-22671.0
2024-01-12,0.0,-2767.5,-2767.5,440749.0,-25438.5
2024-01-14,0.0,1312.0,1312.0,442061.0,-24126.5
2024-01-15,0.0,-2931.5,-2931.5,439129.5,-27058.0
2024-01-16,1740.0,-3731.0,-1991.0,437138.5,-29049.0
2024-01-17,-5020.0,-1558.0,-6578.0,430560.5,-35627.0
2024-01-18,0.0,4264.0,4264.0,434824.5,-31363.0
2024-01-19,12600.0,8651.0,21251.0,456075.5,-10112.0
2024-01-21,820.0,1127.5,1947.5,458023.0,-8164.5
2024-01-22,-770.0,1578.5,808.5,458831.5,-7356.0
2024-01-23,4460.0,-1578.5,2881.5,461713.0,-4474.5
2024-01-24,1640.0,-1148.0,492.0,462205.0,-3982.5
2024-01-25,-2980.0,512.5,-2467.5,459737.5,-6450.0
2024-01-26,-1510.0,3526.0,2016.0,461753.5,-4434.0
2024-01-28,-1000.0,-1004.5,-2004.5,459749.0,-6438.5
2024-01-29,9690.0,4899.5,14589.5,474338.5,0.0
2024-01-30,-10950.0,4038.5,-6911.5,467427.0,-6911.5
2024-01-31,-6630.0,-6068.0,-12698.0,454729.0,-19609.5
2024-02-01,12440.0,6027.0,18467.0,473196.0,-1142.5
2024-02-02,2525.5,2255.0,4780.5,477976.5,0.0
2024-02-04,1247.0,-1271.0,-24.0,477952.5,-24.0
2024-02-05,-652.5,-4366.5,-5019.0,472933.5,-5043.0
2024-02-06,-2566.5,3259.5,693.0,473626.5,-4350.0
2024-02-07,11049.0,3218.5,14267.5,487894.0,0.0
2024-02-08,1435.5,164.0,1599.5,489493.5,0.0
2024-02-09,9889.0,-1476.0,8413.0,497906.5,0.0
2024-02-11,-159.5,430.5,271.0,498177.5,0.0
2024-02-12,-5669.5,1845.0,-3824.5,494353.0,-3824.5
2024-02-13,-14326.0,-10496.0,-24822.0,469531.0,-28646.5
2024-02-14,10933.0,3669.5,14602.5,484133.5,-14044.0
2024-02-15,4277.5,6191.0,10468.5,494602.0,-3575.5
2024-02-16,-13412.5,-2829.0,-16241.5,478360.5,-19817.0
2024-02-18,3262.5,1230.0,4492.5,482853.0,-15324.5
2024-02-19,-1696.5,-2747.0,-4443.5,478409.5,-19768.0
2024-02-20,-10440.0,348.5,-10091.5,468318.0,-29859.5
2024-02-21,7873.5,2521.5,10395.0,478713.0,-19464.5
2024-02-22,19575.0,9143.0,28718.0,507431.0,0.0
2024-02-23,-4669.0,-410.0,-5079.0,502352.0,-5079.0
2024-02-25,1247.0,-225.5,1021.5,503373.5,-4057.5
2024-02-26,-1131.0,-840.5,-1971.5,501402.0,-6029.0
2024-02-27,2436.0,-2296.0,140.0,501542.0,-5889.0
2024-02-28,-7844.5,246.0,-7598.5,493943.5,-13487.5
2024-02-29,11005.5,1332.5,12338.0,506281.5,-1149.5
2024-03-01,15196.0,328.0,15524.0,521805.5,0.0
2024-03-03,1276.0,82.0,1358.0,523163.5,0.0
2024-03-04,-6974.5,-2480.5,-9455.0,513708.5,-9455.0
2024-03-05,-15123.5,-7339.0,-22462.5,491246.0,-31917.5
2024-03-06,3248.0,1127.5,4375.5,495621.5,-27542.0
2024-03-07,14369.5,3054.5,17424.0,513045.5,-10118.0
2024-03-08,-12238.0,-615.0,-12853.0,500192.5,-22971.0
2024-03-10,-725.0,7257.0,6532.0,506724.5,-16439.0
2024-03-11,14572.5,2911.0,17483.5,524208.0,0.0
2024-03-12,10701.0,3587.5,14288.5,538496.5,0.0
2024-03-13,-6119.0,1947.5,-4171.5,534325.0,-4171.5
2024-03-14,-7801.0,-4182.0,-11983.0,522342.0,-16154.5
2024-03-15,-10150.0,-4120.5,-14270.5,508071.5,-30425.0
2024-03-17,899.0,533.0,1432.0,509503.5,-28993.0
2024-03-18,6525.0,779.0,7304.0,516807.5,-21689.0
2024-03-19,4466.0,6560.0,11026.0,527833.5,-10663.0
2024-03-20,17994.5,10865.0,28859.5,556693.0,0.0
2024-03-21,594.5,3423.5,4018.0,560711.0,0.0
2024-03-22,-1450.0,-8118.0,-9568.0,551143.0,-9568.0
2024-03-24,1276.0,-369.0,907.0,552050.0,-8661.0
2024-03-25,-2639.0,-1783.5,-4422.5,547627.5,-13083.5
2024-03-26,-2972.5,1414.5,-1558.0,546069.5,-14641.5
2024-03-27,-522.0,6601.0,6079.0,552148.5,-8562.5
2024-03-28,-870.0,615.0,-255.0,551893.5,-8817.5
2024-03-31,8308.5,3608.0,11916.5,563810.0,0.0
2024-04-01,-8018.5,-11316.0,-19334.5,544475.5,-19334.5
2024-04-02,-8221.5,-6273.0,-14494.5,529981.0,-33829.0
2024-04-03,6800.5,1578.5,8379.0,538360.0,-25450.0
2024-04-04,-20546.5,41.0,-20505.5,517854.5,-45955.5
2024-04-05,12702.0,0.0,12702.0,530556.5,-33253.5
2024-04-07,493.0,0.0,493.0,531049.5,-32760.5
2024-04-08,-1000.5,0.0,-1000.5,530049.0,-33761.0
2024-04-09,3842.5,0.0,3842.5,533891.5,-29918.5
2024-04-10,-12151.0,0.0,-12151.0,521740.5,-42069.5
2024-04-11,19241.5,0.0,19241.5,540982.0,-22828.0
2024-04-12,-18487.5,0.0,-18487.5,522494.5,-41315.5
2024-04-14,3842.5,0.0,3842.5,526337.0,-37473.0
2024-04-15,14.5,0.0,14.5,526351.5,-37458.5
2024-04-16,0.0,0.0,0.0,526351.5,-37458.5
2024-04-17,0.0,0.0,0.0,526351.5,-37458.5
2024-04-18,0.0,0.0,0.0,526351.5,-37458.5
2024-04-19,0.0,0.0,0.0,526351.5,-37458.5
2024-04-21,0.0,0.0,0.0,526351.5,-37458.5
2024-04-22,0.0,0.0,0.0,526351.5,-37458.5
2024-04-23,0.0,0.0,0.0,526351.5,-37458.5
2024-04-24,0.0,0.0,0.0,526351.5,-37458.5
2024-04-25,0.0,0.0,0.0,526351.5,-37458.5
2024-04-26,0.0,0.0,0.0,526351.5,-37458.5
2024-04-28,0.0,0.0,0.0,526351.5,-37458.5
2024-04-29,0.0,0.0,0.0,526351.5,-37458.5
2024-04-30,0.0,0.0,0.0,526351.5,-37458.5
2024-05-01,0.0,0.0,0.0,526351.5,-37458.5
2024-05-02,0.0,0.0,0.0,526351.5,-37458.5
2024-05-03,0.0,0.0,0.0,526351.5,-37458.5
2024-05-05,0.0,0.0,0.0,526351.5,-37458.5
2024-05-06,7160.0,0.0,7160.0,533511.5,-30298.5
2024-05-07,820.0,0.0,820.0,534331.5,-29478.5
2024-05-08,-1700.0,0.0,-1700.0,532631.5,-31178.5
2024-05-09,2780.0,6432.0,9212.0,541843.5,-21966.5
2024-05-10,330.0,800.0,1130.0,542973.5,-20836.5
2024-05-12,240.0,368.0,608.0,543581.5,-20228.5
2024-05-13,1530.0,-1424.0,106.0,543687.5,-20122.5
2024-05-14,5330.0,2640.0,7970.0,551657.5,-12152.5
2024-05-15,12160.0,6496.0,18656.0,570313.5,0.0
2024-05-16,-2790.0,-2176.0,-4966.0,565347.5,-4966.0
2024-05-17,-466.0,2478.0,2012.0,567359.5,-2954.0
2024-05-19,1928.5,779.0,2707.5,570067.0,-246.5
2024-05-20,4915.5,-4633.0,282.5,570349.5,0.0
2024-05-21,3581.5,1394.0,4975.5,575325.0,0.0
2024-05-22,3552.5,-3321.0,231.5,575556.5,0.0
2024-05-23,-10077.5,0.0,-10077.5,565479.0,-10077.5
2024-05-24,9889.0,0.0,9889.0,575368.0,-188.5
2024-05-26,-2044.5,0.0,-2044.5,573323.5,-2233.0
2024-05-27,4161.5,0.0,4161.5,577485.0,0.0
2024-05-28,1261.5,0.0,1261.5,578746.5,0.0
2024-05-29,-11977.0,0.0,-11977.0,566769.5,-11977.0
2024-05-30,-9541.0,0.0,-9541.0,557228.5,-21518.0
2024-05-31,739.5,0.0,739.5,557968.0,-20778.5
2024-06-02,1174.5,0.0,1174.5,559142.5,-19604.0
2024-06-03,3393.0,0.0,3393.0,562535.5,-16211.0
2024-06-04,5060.5,0.0,5060.5,567596.0,-11150.5
2024-06-05,20503.0,0.0,20503.0,588099.0,0.0
2024-06-06,-942.5,0.0,-942.5,587156.5,-942.5
2024-06-07,-2552.0,0.0,-2552.0,584604.5,-3494.5
2024-06-09,-232.0,0.0,-232.0,584372.5,-3726.5
2024-06-10,3349.5,0.0,3349.5,587722.0,-377.0
2024-06-11,9976.0,0.0,9976.0,597698.0,0.0
2024-06-12,19923.0,0.0,19923.0,617621.0,0.0
2024-06-13,1058.5,0.0,1058.5,618679.5,0.0
2024-06-14,4509.5,0.0,4509.5,623189.0,0.0
2024-06-16,884.5,0.0,884.5,624073.5,0.0
2024-06-17,28623.0,4368.0,32991.0,657064.5,0.0
2024-06-18,1058.5,-112.0,946.5,658011.0,0.0
2024-06-19,739.5,0.0,739.5,658750.5,0.0
2024-06-20,-9657.0,5200.0,-4457.0,654293.5,-4457.0
2024-06-21,-3509.0,80.0,-3429.0,650864.5,-7886.0
2024-06-23,-43.5,-1312.0,-1355.5,649509.0,-9241.5
2024-06-24,-13717.0,6608.0,-7109.0,642400.0,-16350.5
2024-06-25,11252.0,-6416.0,4836.0,647236.0,-11514.5
2024-06-26,-2726.0,-1520.0,-4246.0,642990.0,-15760.5
2024-06-27,10251.5,2144.0,12395.5,655385.5,-3365.0
2024-06-28,-7453.0,56.5,-7396.5,647989.0,-10761.5
2024-06-30,-1218.0,-123.0,-1341.0,646648.0,-12102.5
2024-07-01,4234.0,-1496.5,2737.5,649385.5,-9365.0
2024-07-02,12687.5,3956.5,16644.0,666029.5,0.0
2024-07-03,9541.0,-184.5,9356.5,675386.0,0.0
2024-07-04,-681.5,984.0,302.5,675688.5,0.0
2024-07-05,11585.5,-430.5,11155.0,686843.5,0.0
2024-07-07,14.5,-451.0,-436.5,686407.0,-436.5
2024-07-08,8569.5,1865.5,10435.0,696842.0,0.0
2024-07-09,-2363.5,-2972.5,-5336.0,691506.0,-5336.0
2024-07-10,10657.5,9409.5,20067.0,711573.0,0.0
2024-07-11,-27071.5,1435.0,-25636.5,685936.5,-25636.5
2024-07-12,7264.5,4448.5,11713.0,697649.5,-13923.5
2024-07-14,1174.5,861.0,2035.5,699685.0,-11888.0
2024-07-15,4161.5,4120.5,8282.0,707967.0,-3606.0
2024-07-16,-3857.0,14739.5,10882.5,718849.5,0.0
2024-07-17,0.0,6273.0,6273.0,725122.5,0.0
2024-07-18,0.0,-12587.0,-12587.0,712535.5,-12587.0
2024-07-19,0.0,-8876.5,-8876.5,703659.0,-21463.5
2024-07-21,0.0,656.0,656.0,704315.0,-20807.5
2024-07-22,0.0,1435.0,1435.0,705750.0,-19372.5
2024-07-23,0.0,-2644.5,-2644.5,703105.5,-22017.0
2024-07-24,0.0,61.5,61.5,703167.0,-21955.5
2024-07-25,0.0,0.0,0.0,703167.0,-21955.5
2024-07-26,0.0,0.0,0.0,703167.0,-21955.5
2024-07-28,0.0,0.0,0.0,703167.0,-21955.5
2024-07-29,0.0,0.0,0.0,703167.0,-21955.5
2024-07-30,0.0,0.0,0.0,703167.0,-21955.5
2024-07-31,0.0,0.0,0.0,703167.0,-21955.5
2024-08-01,0.0,0.0,0.0,703167.0,-21955.5
2024-08-02,0.0,0.0,0.0,703167.0,-21955.5
2024-08-04,0.0,0.0,0.0,703167.0,-21955.5
2024-08-05,0.0,0.0,0.0,703167.0,-21955.5
2024-08-06,0.0,0.0,0.0,703167.0,-21955.5
2024-08-07,0.0,0.0,0.0,703167.0,-21955.5
2024-08-08,0.0,0.0,0.0,703167.0,-21955.5
2024-08-09,0.0,0.0,0.0,703167.0,-21955.5
2024-08-11,0.0,0.0,0.0,703167.0,-21955.5
2024-08-12,0.0,0.0,0.0,703167.0,-21955.5
2024-08-13,18490.0,0.0,18490.0,721657.0,-3465.5
2024-08-14,-390.0,0.0,-390.0,721267.0,-3855.5
2024-08-15,20280.0,8928.0,29208.0,750475.0,0.0
2024-08-16,-380.0,928.0,548.0,751023.0,0.0
2024-08-18,1760.0,112.0,1872.0,752895.0,0.0
2024-08-19,8500.0,3056.0,11556.0,764451.0,0.0
2024-08-20,-2840.0,32.0,-2808.0,761643.0,-2808.0
2024-08-21,5860.0,-544.0,5316.0,766959.0,0.0
2024-08-22,-11910.0,-1136.0,-13046.0,753913.0,-13046.0
2024-08-23,5807.5,6001.5,11809.0,765722.0,-1237.0
2024-08-25,-855.5,-717.5,-1573.0,764149.0,-2810.0
2024-08-26,-11121.5,1558.0,-9563.5,754585.5,-12373.5
2024-08-27,913.5,881.5,1795.0,756380.5,-10578.5
2024-08-28,-22866.5,-1701.5,-24568.0,731812.5,-35146.5
2024-08-29,13760.5,3587.5,17348.0,749160.5,-17798.5
2024-08-30,9512.0,3915.5,13427.5,762588.0,-4371.0
2024-09-01,-464.0,-389.5,-853.5,761734.5,-5224.5
2024-09-02,-319.0,-840.5,-1159.5,760575.0,-6384.0
2024-09-03,-36134.0,-14145.0,-50279.0,710296.0,-56663.0
2024-09-04,-1435.5,2603.5,1168.0,711464.0,-55495.0
2024-09-05,-1174.5,-3362.0,-4536.5,706927.5,-60031.5
2024-09-06,-58.0,-61.5,-119.5,706808.0,-60151.0
2024-09-08,0.0,0.0,0.0,706808.0,-60151.0
2024-09-09,0.0,0.0,0.0,706808.0,-60151.0
2024-09-10,0.0,0.0,0.0,706808.0,-60151.0
2024-09-11,0.0,0.0,0.0,706808.0,-60151.0
2024-09-12,0.0,0.0,0.0,706808.0,-60151.0
2024-09-13,2050.0,0.0,2050.0,708858.0,-58101.0
2024-09-15,1380.0,0.0,1380.0,710238.0,-56721.0
2024-09-16,5380.0,2528.0,7908.0,718146.0,-48813.0
2024-09-17,1300.0,800.0,2100.0,720246.0,-46713.0
2024-09-18,2320.0,1744.0,4064.0,724310.0,-42649.0
2024-09-19,11430.0,4032.0,15462.0,739772.0,-27187.0
2024-09-20,-1390.0,16.0,-1374.0,738398.0,-28561.0
2024-09-22,1910.0,1136.0,3046.0,741444.0,-25515.0
2024-09-23,250.0,-1328.0,-1078.0,740366.0,-26593.0
2024-09-24,4450.0,1344.0,5794.0,746160.0,-20799.0
2024-09-25,3920.0,-2144.0,1776.0,747936.0,-19023.0
2024-09-26,2650.0,2592.0,5242.0,753178.0,-13781.0
2024-09-27,-6382.5,1115.0,-5267.5,747910.5,-19048.5
2024-09-29,4582.0,1086.5,5668.5,753579.0,-13380.0
2024-09-30,-1450.0,-902.0,-2352.0,751227.0,-15732.0
2024-10-01,-18270.0,-4366.5,-22636.5,728590.5,-38368.5
2024-10-02,7090.5,881.5,7972.0,736562.5,-30396.5
2024-10-03,-4161.5,-3075.0,-7236.5,729326.0,-37633.0
2024-10-04,12774.5,6560.0,19334.5,748660.5,-18298.5
2024-10-06,1580.5,82.0,1662.5,750323.0,-16636.0
2024-10-07,-14355.0,-8651.0,-23006.0,727317.0,-39642.0
2024-10-08,16820.0,2460.0,19280.0,746597.0,-20362.0
2024-10-09,10280.5,10250.0,20530.5,767127.5,0.0
2024-10-10,72.5,-1558.0,-1485.5,765642.0,-1485.5
2024-10-11,-2305.5,7093.0,4787.5,770429.5,0.0
2024-10-13,855.5,820.0,1675.5,772105.0,0.0
2024-10-14,11875.5,5658.0,17533.5,789638.5,0.0
2024-10-15,-16240.0,-8302.5,-24542.5,765096.0,-24542.5
2024-10-16,-2204.0,5494.0,3290.0,768386.0,-21252.5
2024-10-17,5292.5,4038.5,9331.0,777717.0,-11921.5
2024-10-18,4596.5,1107.0,5703.5,783420.5,-6218.0
2024-10-20,1696.5,246.0,1942.5,785363.0,-4275.5
2024-10-21,130.5,-8876.5,-8746.0,776617.0,-13021.5
2024-10-22,797.5,-1599.0,-801.5,775815.5,-13823.0
2024-10-23,-13891.0,-7421.0,-21312.0,754503.5,-35135.0
2024-10-24,5278.0,-1824.5,3453.5,757957.0,-31681.5
2024-10-25,5582.5,61.5,5644.0,763601.0,-26037.5
2024-10-27,7032.5,0.0,7032.5,770633.5,-19005.0
2024-10-28,-5249.0,0.0,-5249.0,765384.5,-24254.0
2024-10-29,13920.0,0.0,13920.0,779304.5,-10334.0
2024-10-30,-18647.0,0.0,-18647.0,760657.5,-28981.0
2024-10-31,-20445.0,0.0,-20445.0,740212.5,-49426.0
2024-11-01,5539.0,0.0,5539.0,745751.5,-43887.0
2024-11-03,-2001.0,0.0,-2001.0,743750.5,-45888.0
2024-11-04,-2711.5,0.0,-2711.5,741039.0,-48599.5
2024-11-05,14833.5,0.0,14833.5,755872.5,-33766.0
2024-11-06,31726.0,17056.0,48782.0,804654.5,0.0
2024-11-07,19473.5,-1776.0,17697.5,822352.0,0.0
2024-11-08,29.0,3904.0,3933.0,826285.0,0.0
2024-11-10,4466.0,576.0,5042.0,831327.0,0.0
2024-11-11,-5104.0,3456.0,-1648.0,829679.0,-1648.0
2024-11-12,-3248.0,-5984.0,-9232.0,820447.0,-10880.0
2024-11-13,348.0,1040.0,1388.0,821835.0,-9492.0
2024-11-14,-12557.0,-4560.0,-17117.0,804718.0,-26609.0
2024-11-15,-25868.0,-3096.5,-28964.5,775753.5,-55573.5
2024-11-17,3755.5,-266.5,3489.0,779242.5,-52084.5
2024-11-18,3132.0,615.0,3747.0,782989.5,-48337.5
2024-11-19,9323.5,-2316.5,7007.0,789996.5,-41330.5
2024-11-20,-1769.0,184.5,-1584.5,788412.0,-42915.0
2024-11-21,1218.0,10086.0,11304.0,799716.0,-31611.0
2024-11-22,6075.5,9368.5,15444.0,815160.0,-16167.0
2024-11-24,3320.5,4100.0,7420.5,822580.5,-8746.5
2024-11-25,-5887.0,3854.0,-2033.0,820547.5,-10779.5
2024-11-26,8787.0,2911.0,11698.0,832245.5,0.0
2024-11-27,-9425.0,-1906.5,-11331.5,820914.0,-11331.5
2024-11-28,3741.0,1681.0,5422.0,826336.0,-5909.5
2024-11-29,6017.5,1845.0,7862.5,834198.5,0.0
2024-12-01,-1566.0,-1640.0,-3206.0,830992.5,-3206.0
2024-12-02,14456.5,-1599.0,12857.5,843850.0,0.0
2024-12-03,6902.0,922.5,7824.5,851674.5,0.0
2024-12-04,10295.0,2972.5,13267.5,864942.0,0.0
2024-12-05,-3161.0,-5371.0,-8532.0,856410.0,-8532.0
2024-12-06,10338.5,-2747.0,7591.5,864001.5,-940.5
2024-12-08,1377.5,-430.5,947.0,864948.5,0.0
2024-12-09,-11150.5,-4305.0,-15455.5,849493.0,-15455.5
2024-12-10,-2146.0,-2829.0,-4975.0,844518.0,-20430.5
2024-12-11,19125.5,-3895.0,15230.5,859748.5,-5200.0
2024-12-12,-797.5,-3054.5,-3852.0,855896.5,-9052.0
2024-12-13,928.0,20.5,948.5,856845.0,-8103.5
2024-12-15,1667.5,0.0,1667.5,858512.5,-6436.0
2024-12-16,17965.5,0.0,17965.5,876478.0,0.0
2024-12-17,10164.5,0.0,10164.5,886642.5,0.0
2024-12-18,0.0,0.0,0.0,886642.5,0.0
2024-12-19,0.0,0.0,0.0,886642.5,0.0
2024-12-20,0.0,0.0,0.0,886642.5,0.0
2024-12-22,0.0,0.0,0.0,886642.5,0.0
2024-12-23,0.0,0.0,0.0,886642.5,0.0
2024-12-24,0.0,0.0,0.0,886642.5,0.0
2024-12-25,0.0,0.0,0.0,886642.5,0.0
2024-12-26,0.0,0.0,0.0,886642.5,0.0
2024-12-27,0.0,0.0,0.0,886642.5,0.0
2024-12-29,0.0,0.0,0.0,886642.5,0.0
2024-12-30,0.0,0.0,0.0,886642.5,0.0
2024-12-31,0.0,0.0,0.0,886642.5,0.0
2025-01-01,0.0,0.0,0.0,886642.5,0.0
2025-01-02,0.0,0.0,0.0,886642.5,0.0
2025-01-03,0.0,0.0,0.0,886642.5,0.0
2025-01-05,0.0,0.0,0.0,886642.5,0.0
2025-01-06,0.0,0.0,0.0,886642.5,0.0
2025-01-07,0.0,0.0,0.0,886642.5,0.0
2025-01-08,0.0,0.0,0.0,886642.5,0.0
2025-01-09,0.0,0.0,0.0,886642.5,0.0
2025-01-10,0.0,0.0,0.0,886642.5,0.0
2025-01-12,0.0,0.0,0.0,886642.5,0.0
2025-01-13,0.0,0.0,0.0,886642.5,0.0
2025-01-14,0.0,0.0,0.0,886642.5,0.0
2025-01-15,0.0,14780.5,14780.5,901423.0,0.0
2025-01-16,0.0,-1455.5,-1455.5,899967.5,-1455.5
2025-01-17,0.0,5207.0,5207.0,905174.5,0.0
2025-01-19,0.0,553.5,553.5,905728.0,0.0
2025-01-20,0.0,2234.5,2234.5,907962.5,0.0
2025-01-21,0.0,9163.5,9163.5,917126.0,0.0
2025-01-22,12148.5,1578.5,13727.0,930853.0,0.0
2025-01-23,3529.5,7831.0,11360.5,942213.5,0.0
2025-01-24,-7975.5,-2574.0,-10549.5,931664.0,-10549.5
2025-01-26,-18915.0,-3975.0,-22890.0,908774.0,-33439.5
2025-01-27,-19.5,10000.0,9980.5,918754.5,-23459.0
2025-01-28,0.0,4850.0,4850.0,923604.5,-18609.0
2025-01-29,0.0,-1075.0,-1075.0,922529.5,-19684.0
2025-01-30,0.0,2850.0,2850.0,925379.5,-16834.0
2025-01-31,0.0,-9925.0,-9925.0,915454.5,-26759.0
2025-02-02,0.0,-17000.0,-17000.0,898454.5,-43759.0
2025-02-03,0.0,14300.0,14300.0,912754.5,-29459.0
2025-02-04,0.0,75.0,75.0,912829.5,-29384.0
2025-02-05,0.0,12350.0,12350.0,925179.5,-17034.0
2025-02-06,0.0,-6450.0,-6450.0,918729.5,-23484.0
2025-02-07,-21664.5,-10300.0,-31964.5,886765.0,-55448.5
2025-02-09,-8638.5,1775.0,-6863.5,879901.5,-62312.0
2025-02-10,0.0,550.0,550.0,880451.5,-61762.0
2025-02-11,0.0,4300.0,4300.0,884751.5,-57462.0
2025-02-12,6064.5,-3500.0,2564.5,887316.0,-54897.5
2025-02-13,15307.5,8025.0,23332.5,910648.5,-31565.0
2025-02-14,9243.0,-5625.0,3618.0,914266.5,-27947.0
2025-02-16,663.0,975.0,1638.0,915904.5,-26309.0
2025-02-17,702.0,125.0,827.0,916731.5,-25482.0
2025-02-18,2340.0,75.0,2415.0,919146.5,-23067.0
2025-02-19,-2574.0,-1775.0,-4349.0,914797.5,-27416.0
2025-02-20,-4368.0,-8800.0,-13168.0,901629.5,-40584.0
2025-02-21,-39156.0,50.0,-39106.0,862523.5,-79690.0
2025-02-23,3217.5,0.0,3217.5,865741.0,-76472.5
2025-02-24,0.0,0.0,0.0,865741.0,-76472.5
2025-02-25,0.0,0.0,0.0,865741.0,-76472.5
2025-02-26,0.0,0.0,0.0,865741.0,-76472.5
2025-02-27,0.0,0.0,0.0,865741.0,-76472.5
2025-02-28,0.0,0.0,0.0,865741.0,-76472.5
2025-03-02,0.0,0.0,0.0,865741.0,-76472.5
2025-03-03,0.0,0.0,0.0,865741.0,-76472.5
2025-03-04,0.0,0.0,0.0,865741.0,-76472.5
2025-03-05,0.0,0.0,0.0,865741.0,-76472.5
2025-03-06,0.0,0.0,0.0,865741.0,-76472.5
2025-03-07,0.0,0.0,0.0,865741.0,-76472.5
2025-03-09,0.0,0.0,0.0,865741.0,-76472.5
2025-03-10,0.0,0.0,0.0,865741.0,-76472.5
2025-03-11,0.0,0.0,0.0,865741.0,-76472.5
2025-03-12,0.0,0.0,0.0,865741.0,-76472.5
2025-03-13,0.0,0.0,0.0,865741.0,-76472.5
2025-03-14,0.0,0.0,0.0,865741.0,-76472.5
2025-03-16,0.0,0.0,0.0,865741.0,-76472.5
2025-03-17,0.0,0.0,0.0,865741.0,-76472.5
2025-03-18,0.0,0.0,0.0,865741.0,-76472.5
2025-03-19,0.0,0.0,0.0,865741.0,-76472.5
2025-03-20,0.0,0.0,0.0,865741.0,-76472.5
2025-03-21,0.0,0.0,0.0,865741.0,-76472.5
2025-03-23,0.0,0.0,0.0,865741.0,-76472.5
2025-03-24,0.0,0.0,0.0,865741.0,-76472.5
2025-03-25,0.0,0.0,0.0,865741.0,-76472.5
2025-03-26,0.0,0.0,0.0,865741.0,-76472.5
2025-03-27,0.0,0.0,0.0,865741.0,-76472.5
2025-03-28,0.0,0.0,0.0,865741.0,-76472.5
2025-03-30,0.0,0.0,0.0,865741.0,-76472.5
2025-03-31,0.0,0.0,0.0,865741.0,-76472.5
2025-04-01,0.0,0.0,0.0,865741.0,-76472.5
2025-04-02,0.0,0.0,0.0,865741.0,-76472.5
2025-04-03,0.0,0.0,0.0,865741.0,-76472.5
2025-04-04,0.0,0.0,0.0,865741.0,-76472.5
2025-04-06,0.0,0.0,0.0,865741.0,-76472.5
2025-04-07,0.0,0.0,0.0,865741.0,-76472.5
2025-04-08,0.0,0.0,0.0,865741.0,-76472.5
2025-04-09,181057.5,73287.5,254345.0,1120086.0,0.0
2025-04-10,-74607.0,-21525.0,-96132.0,1023954.0,-96132.0
2025-04-11,36055.5,14268.0,50323.5,1074277.5,-45808.5
2025-04-13,15132.0,1312.0,16444.0,1090721.5,-29364.5
2025-04-14,-12694.5,4469.0,-8225.5,1082496.0,-37590.0
2025-04-15,-9516.0,-5965.5,-15481.5,1067014.5,-53071.5
2025-04-16,-25408.5,-6642.0,-32050.5,1034964.0,-85122.0
2025-04-17,2145.0,-14452.5,-12307.5,1022656.5,-97429.5
2025-04-20,-9028.5,-8323.0,-17351.5,1005305.0,-114781.0
2025-04-21,-24258.0,-11336.5,-35594.5,969710.5,-150375.5
2025-04-22,59124.0,27839.0,86963.0,1056673.5,-63412.5
2025-04-23,6103.5,-2952.0,3151.5,1059825.0,-60261.0
2025-04-24,44694.0,13161.0,57855.0,1117680.0,-2406.0
2025-04-25,12544.5,-68.5,12476.0,1130156.0,0.0
2025-04-27,-9648.0,-4950.0,-14598.0,1115558.0,-14598.0
2025-04-28,7128.0,8425.0,15553.0,1131111.0,0.0
2025-04-29,3336.0,3525.0,6861.0,1137972.0,0.0
2025-04-30,33960.0,11325.0,45285.0,1183257.0,0.0
2025-05-01,-12168.0,4900.0,-7268.0,1175989.0,-7268.0
2025-05-02,39384.0,5850.0,45234.0,1221223.0,0.0
2025-05-04,-11064.0,-7025.0,-18089.0,1203134.0,-18089.0
2025-05-05,-7368.0,3450.0,-3918.0,1199216.0,-22007.0
2025-05-06,5664.0,-3825.0,1839.0,1201055.0,-20168.0
2025-05-07,-11064.0,7500.0,-3564.0,1197491.0,-23732.0
2025-05-08,17952.0,875.0,18827.0,1216318.0,-4905.0
2025-05-09,696.0,-2700.0,-2004.0,1214314.0,-6909.0
2025-05-11,29424.0,10375.0,39799.0,1254113.0,0.0
2025-05-12,43728.0,14850.0,58578.0,1312691.0,0.0
2025-05-13,36840.0,-3600.0,33240.0,1345931.0,0.0
2025-05-14,7992.0,-7025.0,967.0,1346898.0,0.0
2025-05-15,3768.0,10925.0,14693.0,1361591.0,0.0
2025-05-16,-1008.0,3750.0,2742.0,1364333.0,0.0
2025-05-18,-2184.0,-3425.0,-5609.0,1358724.0,-5609.0
2025-05-19,15192.0,10625.0,25817.0,1384541.0,0.0
2025-05-20,-10368.0,-4375.0,-14743.0,1369798.0,-14743.0
2025-05-21,-27312.0,-17750.0,-45062.0,1324736.0,-59805.0
2025-05-22,3024.0,325.0,3349.0,1328085.0,-56456.0
2025-05-23,-21648.0,-7225.0,-28873.0,1299212.0,-85329.0
2025-05-25,22608.0,9275.0,31883.0,1331095.0,-53446.0
2025-05-26,4536.0,-1100.0,3436.0,1334531.0,-50010.0
2025-05-27,22512.0,9700.0,32212.0,1366743.0,-17798.0
2025-05-28,28368.0,7850.0,36218.0,1402961.0,0.0
2025-05-29,-43104.0,-12050.0,-55154.0,1347807.0,-55154.0
2025-05-30,4992.0,1425.0,6417.0,1354224.0,-48737.0
2025-06-01,-6288.0,-3400.0,-9688.0,1344536.0,-58425.0
2025-06-02,18360.0,2075.0,20435.0,1364971.0,-37990.0
2025-06-03,20208.0,8650.0,28858.0,1393829.0,-9132.0
2025-06-04,3456.0,-2250.0,1206.0,1395035.0,-7926.0
2025-06-05,-18744.0,250.0,-18494.0,1376541.0,-26420.0
2025-06-06,25320.0,8550.0,33870.0,1410411.0,0.0
2025-06-08,-4608.0,-2200.0,-6808.0,1403603.0,-6808.0
2025-06-09,6744.0,4425.0,11169.0,1414772.0,0.0
2025-06-10,11784.0,-2675.0,9109.0,1423881.0,0.0
2025-06-11,-11160.0,-1425.0,-12585.0,1411296.0,-12585.0
2025-06-12,-5232.0,-8600.0,-13832.0,1397464.0,-26417.0
2025-06-13,-12480.0,-5900.0,-18380.0,1379084.0,-44797.0
2025-06-15,3192.0,9250.0,12442.0,1391526.0,-32355.0
2025-06-16,31536.0,4550.0,36086.0,1427612.0,0.0
2025-06-17,-10584.0,-4275.0,-14859.0,1412753.0,-14859.0
2025-06-18,4152.0,-2450.0,1702.0,1414455.0,-13157.0
2025-06-19,-5928.0,-1575.0,-7503.0,1406952.0,-20660.0
2025-06-20,-1248.0,4375.0,3127.0,1410079.0,-17533.0
2025-06-22,-10872.0,-4675.0,-15547.0,1394532.0,-33080.0
2025-06-23,45648.0,18475.0,64123.0,1458655.0,0.0
2025-06-24,18048.0,7425.0,25473.0,1484128.0,0.0
2025-06-25,3912.0,-2000.0,1912.0,1486040.0,0.0
2025-06-26,20424.0,11400.0,31824.0,1517864.0,0.0
2025-06-27,6000.0,11250.0,17250.0,1535114.0,0.0
2025-06-29,7392.0,3100.0,10492.0,1545606.0,0.0
2025-06-30,6168.0,-450.0,5718.0,1551324.0,0.0
2025-07-01,-16632.0,12900.0,-3732.0,1547592.0,-3732.0
2025-07-02,13464.0,-1625.0,11839.0,1559431.0,0.0
2025-07-03,17880.0,4600.0,22480.0,1581911.0,0.0
2025-07-04,-12504.0,-3675.0,-16179.0,1565732.0,-16179.0
2025-07-06,7608.0,3350.0,10958.0,1576690.0,-5221.0
2025-07-07,-10536.0,-8625.0,-19161.0,1557529.0,-24382.0
2025-07-08,2616.0,-4125.0,-1509.0,1556020.0,-25891.0
2025-07-09,12840.0,3675.0,16515.0,1572535.0,-9376.0
2025-07-10,912.0,3975.0,4887.0,1577422.0,-4489.0
2025-07-11,-10296.0,-5300.0,-15596.0,1561826.0,-20085.0
2025-07-13,-6792.0,-3850.0,-10642.0,1551184.0,-30727.0
2025-07-14,13920.0,6325.0,20245.0,1571429.0,-10482.0
2025-07-15,264.0,-12200.0,-11936.0,1559493.0,-22418.0
2025-07-16,2520.0,5400.0,7920.0,1567413.0,-14498.0
2025-07-17,23016.0,10275.0,33291.0,1600704.0,0.0
2025-07-18,-4944.0,-6550.0,-11494.0,1589210.0,-11494.0
2025-07-20,3000.0,900.0,3900.0,1593110.0,-7594.0
2025-07-21,8304.0,475.0,8779.0,1601889.0,0.0
2025-07-22,-8136.0,5800.0,-2336.0,1599553.0,-2336.0
2025-07-23,13368.0,6500.0,19868.0,1619421.0,0.0
2025-07-24,504.0,-1375.0,-871.0,1618550.0,-871.0
2025-07-25,3936.0,1425.0,5361.0,1623911.0,0.0
2025-07-27,8352.0,4325.0,12677.0,1636588.0,0.0
2025-07-28,-552.0,-5175.0,-5727.0,1630861.0,-5727.0
2025-07-29,-5160.0,-5075.0,-10235.0,1620626.0,-15962.0
2025-07-30,24024.0,-2350.0,21674.0,1642300.0,0.0
2025-07-31,-41040.0,-12775.0,-53815.0,1588485.0,-53815.0
2025-08-01,72.0,-75.0,-3.0,1588482.0,-53818.0
2025-08-03,0.0,0.0,0.0,1588482.0,-53818.0
2025-08-04,0.0,0.0,0.0,1588482.0,-53818.0
2025-08-05,0.0,0.0,0.0,1588482.0,-53818.0
2025-08-06,0.0,0.0,0.0,1588482.0,-53818.0
2025-08-07,0.0,0.0,0.0,1588482.0,-53818.0
2025-08-08,17745.0,0.0,17745.0,1606227.0,-36073.0
2025-08-10,-4641.0,0.0,-4641.0,1601586.0,-40714.0
2025-08-11,-5538.0,0.0,-5538.0,1596048.0,-46252.0
2025-08-12,25252.5,0.0,25252.5,1621300.5,-20999.5
2025-08-13,-877.5,0.0,-877.5,1620423.0,-21877.0
2025-08-14,-4719.0,5494.0,775.0,1621198.0,-21102.0
2025-08-15,-7195.5,-5576.0,-12771.5,1608426.5,-33873.5
2025-08-17,4251.0,123.0,4374.0,1612800.5,-29499.5
2025-08-18,-3607.5,-3034.0,-6641.5,1606159.0,-36141.0
2025-08-19,-29854.5,41.0,-29813.5,1576345.5,-65954.5
2025-08-20,58.5,0.0,58.5,1576404.0,-65896.0
2025-08-21,0.0,0.0,0.0,1576404.0,-65896.0
2025-08-22,0.0,0.0,0.0,1576404.0,-65896.0
2025-08-24,-1989.0,-1250.5,-3239.5,1573164.5,-69135.5
2025-08-25,-6084.0,-7605.5,-13689.5,1559475.0,-82825.0
2025-08-26,-19.5,4879.0,4859.5,1564334.5,-77965.5
2025-08-27,-8287.5,3977.0,-4310.5,1560024.0,-82276.0
2025-08-28,0.0,-1763.0,-1763.0,1558261.0,-84039.0
2025-08-29,-22854.0,-164.0,-23018.0,1535243.0,-107057.0
2025-08-31,1872.0,-635.5,1236.5,1536479.5,-105820.5
2025-09-01,0.0,-184.5,-184.5,1536295.0,-106005.0
2025-09-02,0.0,-7810.5,-7810.5,1528484.5,-113815.5
2025-09-03,0.0,1107.0,1107.0,1529591.5,-112708.5
2025-09-04,0.0,8897.0,8897.0,1538488.5,-103811.5
2025-09-05,-2593.5,-4777.0,-7370.5,1531118.0,-111182.0
2025-09-07,8170.5,1025.0,9195.5,1540313.5,-101986.5
2025-09-08,2301.0,2950.0,5251.0,1545564.5,-96735.5
2025-09-09,6123.0,2175.0,8298.0,1553862.5,-88437.5
2025-09-10,1170.0,-3475.0,-2305.0,1551557.5,-90742.5
2025-09-11,9243.0,14450.0,23693.0,1575250.5,-67049.5
2025-09-12,7429.5,-7350.0,79.5,1575330.0,-66970.0
2025-09-14,-273.0,8975.0,8702.0,1584032.0,-58268.0
2025-09-15,15132.0,1775.0,16907.0,1600939.0,-41361.0
2025-09-16,18564.0,-4925.0,13639.0,1614578.0,-27722.0
2025-09-17,3198.0,10325.0,13523.0,1628101.0,-14199.0
2025-09-18,12168.0,1525.0,13693.0,1641794.0,-506.0
2025-09-19,9768.0,1175.0,10943.0,1652737.0,0.0
2025-09-21,-960.0,-200.0,-1160.0,1651577.0,-1160.0
2025-09-22,14040.0,3050.0,17090.0,1668667.0,0.0
2025-09-23,-15048.0,-1000.0,-16048.0,1652619.0,-16048.0
2025-09-24,-8160.0,-3775.0,-11935.0,1640684.0,-27983.0
2025-09-25,-13344.0,-6425.0,-19769.0,1620915.0,-47752.0
2025-09-26,10632.0,7075.0,17707.0,1638622.0,-30045.0
2025-09-28,4296.0,2850.0,7146.0,1645768.0,-22899.0
2025-09-29,4968.0,-1725.0,3243.0,1649011.0,-19656.0
2025-09-30,600.0,-2625.0,-2025.0,1646986.0,-21681.0
2025-10-01,18456.0,5350.0,23806.0,1670792.0,0.0
2025-10-02,9768.0,4350.0,14118.0,1684910.0,0.0
2025-10-03,-13704.0,3850.0,-9854.0,1675056.0,-9854.0
2025-10-05,8184.0,2200.0,10384.0,1685440.0,0.0
2025-10-06,7224.0,-6575.0,649.0,1686089.0,0.0
2025-10-07,-10416.0,1025.0,-9391.0,1676698.0,-9391.0
2025-10-08,33168.0,-2300.0,30868.0,1707566.0,0.0
2025-10-09,-4224.0,-4275.0,-8499.0,1699067.0,-8499.0
2025-10-10,48.0,25.0,73.0,1699140.0,-8426.0
2025-10-12,0.0,0.0,0.0,1699140.0,-8426.0
2025-10-13,0.0,0.0,0.0,1699140.0,-8426.0
2025-10-14,0.0,0.0,0.0,1699140.0,-8426.0
2025-10-15,0.0,0.0,0.0,1699140.0,-8426.0
2025-10-16,0.0,0.0,0.0,1699140.0,-8426.0
2025-10-17,0.0,0.0,0.0,1699140.0,-8426.0
2025-10-19,0.0,0.0,0.0,1699140.0,-8426.0
2025-10-20,0.0,0.0,0.0,1699140.0,-8426.0
2025-10-21,0.0,0.0,0.0,1699140.0,-8426.0
2025-10-22,0.0,0.0,0.0,1699140.0,-8426.0
2025-10-23,0.0,0.0,0.0,1699140.0,-8426.0
2025-10-24,0.0,8466.5,8466.5,1707606.5,0.0
2025-10-26,1462.5,5576.0,7038.5,1714645.0,0.0
2025-10-27,21645.0,1148.0,22793.0,1737438.0,0.0
2025-10-28,14761.5,2665.0,17426.5,1754864.5,0.0
2025-10-29,4036.5,738.0,4774.5,1759639.0,0.0
2025-10-30,-5089.5,-3649.0,-8738.5,1750900.5,-8738.5
2025-10-31,-14566.5,574.0,-13992.5,1736908.0,-22731.0
2025-11-02,7566.0,881.5,8447.5,1745355.5,-14283.5
2025-11-03,-916.5,-9594.0,-10510.5,1734845.0,-24794.0
2025-11-04,-44089.5,-1332.5,-45422.0,1689423.0,-70216.0
2025-11-05,39.0,3854.0,3893.0,1693316.0,-66323.0
2025-11-06,-35568.0,-7585.0,-43153.0,1650163.0,-109476.0
2025-11-07,0.0,2780.5,2780.5,1652943.5,-106695.5
2025-11-09,0.0,0.0,0.0,1652943.5,-106695.5
2025-11-10,0.0,7800.0,7800.0,1660743.5,-98895.5
2025-11-11,-7156.5,14875.0,7718.5,1668462.0,-91177.0
2025-11-12,19.5,10275.0,10294.5,1678756.5,-80882.5
2025-11-13,0.0,-23175.0,-23175.0,1655581.5,-104057.5
2025-11-14,0.0,-6900.0,-6900.0,1648681.5,-110957.5
2025-11-16,0.0,75.0,75.0,1648756.5,-110882.5
2025-11-17,0.0,0.0,0.0,1648756.5,-110882.5
2025-11-18,0.0,0.0,0.0,1648756.5,-110882.5
2025-11-19,0.0,0.0,0.0,1648756.5,-110882.5
2025-11-20,0.0,0.0,0.0,1648756.5,-110882.5
2025-11-21,0.0,0.0,0.0,1648756.5,-110882.5
2025-11-23,0.0,0.0,0.0,1648756.5,-110882.5
2025-11-24,0.0,0.0,0.0,1648756.5,-110882.5
2025-11-25,0.0,0.0,0.0,1648756.5,-110882.5
2025-11-26,0.0,0.0,0.0,1648756.5,-110882.5
2025-11-27,0.0,0.0,0.0,1648756.5,-110882.5
2025-11-28,0.0,0.0,0.0,1648756.5,-110882.5
2025-11-30,0.0,0.0,0.0,1648756.5,-110882.5
2025-12-01,0.0,0.0,0.0,1648756.5,-110882.5
2025-12-02,0.0,0.0,0.0,1648756.5,-110882.5
2025-12-03,0.0,7318.5,7318.5,1656075.0,-103564.0
2025-12-04,0.0,-1558.0,-1558.0,1654517.0,-105122.0
2025-12-05,0.0,1414.5,1414.5,1655931.5,-103707.5
2025-12-07,0.0,143.5,143.5,1656075.0,-103564.0
2025-12-08,0.0,-4448.5,-4448.5,1651626.5,-108012.5
2025-12-09,0.0,-3239.0,-3239.0,1648387.5,-111251.5
2025-12-10,0.0,0.0,0.0,1648387.5,-111251.5
2025-12-11,0.0,19147.0,19147.0,1667534.5,-92104.5
2025-12-12,0.0,-6724.0,-6724.0,1660810.5,-98828.5
2025-12-14,0.0,10373.0,10373.0,1671183.5,-88455.5
2025-12-15,0.0,-6129.5,-6129.5,1665054.0,-94585.0
2025-12-16,0.0,-6293.5,-6293.5,1658760.5,-100878.5
2025-12-17,0.0,-4182.0,-4182.0,1654578.5,-105060.5
2025-12-18,0.0,389.5,389.5,1654968.0,-104671.0
2025-12-19,0.0,5453.0,5453.0,1660421.0,-99218.0
2025-12-21,0.0,250.0,250.0,1660671.0,-98968.0
2025-12-22,0.0,3575.0,3575.0,1664246.0,-95393.0
2025-12-23,0.0,2000.0,2000.0,1666246.0,-93393.0
2025-12-24,4036.5,7425.0,11461.5,1677707.5,-81931.5
2025-12-25,1989.0,375.0,2364.0,1680071.5,-79567.5
2025-12-26,-2359.5,-750.0,-3109.5,1676962.0,-82677.0
2025-12-28,1014.0,-250.0,764.0,1677726.0,-81913.0
2025-12-29,-12714.0,-6000.0,-18714.0,1659012.0,-100627.0
2025-12-30,19.5,-3175.0,-3155.5,1655856.5,-103782.5
2025-12-31,0.0,-7125.0,-7125.0,1648731.5,-110907.5
2026-01-01,0.0,2675.0,2675.0,1651406.5,-108232.5
2026-01-02,0.0,3700.0,3700.0,1655106.5,-104532.5
2026-01-04,0.0,825.0,825.0,1655931.5,-103707.5
2026-01-05,0.0,15350.0,15350.0,1671281.5,-88357.5
2026-01-06,0.0,13775.0,13775.0,1685056.5,-74582.5
2026-01-07,-143.5,-16025.0,-16168.5,1668888.0,-90751.0
2026-01-08,-12115.5,8600.0,-3515.5,1665372.5,-94266.5
2026-01-09,-41.0,5825.0,5784.0,1671156.5,-88482.5
2026-01-11,-4305.0,-6375.0,-10680.0,1660476.5,-99162.5
2026-01-12,143.5,8025.0,8168.5,1668645.0,-90994.0
2026-01-13,-389.5,-13075.0,-13464.5,1655180.5,-104458.5
2026-01-14,-23411.0,650.0,-22761.0,1632419.5,-127219.5
2026-01-15,0.0,11100.0,11100.0,1643519.5,-116119.5
2026-01-16,0.0,-4775.0,-4775.0,1638744.5,-120894.5
2026-01-18,0.0,-9475.0,-9475.0,1629269.5,-130369.5
2026-01-19,0.0,-2400.0,-2400.0,1626869.5,-132769.5
2026-01-20,0.0,-7900.0,-7900.0,1618969.5,-140669.5
2026-01-21,0.0,14800.0,14800.0,1633769.5,-125869.5
2026-01-22,0.0,6000.0,6000.0,1639769.5,-119869.5
2026-01-23,0.0,-10425.0,-10425.0,1629344.5,-130294.5
2026-01-25,0.0,-1100.0,-1100.0,1628244.5,-131394.5
2026-01-26,0.0,9550.0,9550.0,1637794.5,-121844.5
2026-01-27,20336.0,-9300.0,11036.0,1648830.5,-110808.5
2026-01-28,2603.5,-525.0,2078.5,1650909.0,-108730.0
2026-01-29,-16236.0,-3650.0,-19886.0,1631023.0,-128616.0
2026-01-30,-27326.5,75.0,-27251.5,1603771.5,-155867.5
2026-02-01,-8917.5,-8300.0,-17217.5,1586554.0,-173085.0
2026-02-02,0.0,22950.0,22950.0,1609504.0,-150135.0
2026-02-03,-42681.0,-4125.0,-46806.0,1562698.0,-196941.0
2026-02-04,-41.0,3250.0,3209.0,1565907.0,-193732.0
2026-02-05,0.0,-16450.0,-16450.0,1549457.0,-210182.0
2026-02-06,0.0,33175.0,33175.0,1582632.0,-177007.0
2026-02-08,0.0,2000.0,2000.0,1584632.0,-175007.0
2026-02-09,0.0,-1125.0,-1125.0,1583507.0,-176132.0
2026-02-10,0.0,3900.0,3900.0,1587407.0,-172232.0
2026-02-11,0.0,-1050.0,-1050.0,1586357.0,-173282.0
2026-02-12,0.0,-21325.0,-21325.0,1565032.0,-194607.0
2026-02-13,0.0,675.0,675.0,1565707.0,-193932.0
2026-02-15,0.0,2900.0,2900.0,1568607.0,-191032.0
2026-02-16,0.0,-5350.0,-5350.0,1563257.0,-196382.0
2026-02-17,0.0,5550.0,5550.0,1568807.0,-190832.0
2026-02-18,0.0,1250.0,1250.0,1570057.0,-189582.0
2026-02-19,0.0,-4500.0,-4500.0,1565557.0,-194082.0
2026-02-20,0.0,4025.0,4025.0,1569582.0,-190057.0
2026-02-22,0.0,-8075.0,-8075.0,1561507.0,-198132.0
2026-02-23,0.0,-10550.0,-10550.0,1550957.0,-208682.0
2026-02-24,0.0,7425.0,7425.0,1558382.0,-201257.0
2026-02-25,0.0,5325.0,5325.0,1563707.0,-195932.0
2026-02-26,0.0,-3800.0,-3800.0,1559907.0,-199732.0
2026-02-27,0.0,-9650.0,-9650.0,1550257.0,-209382.0
2026-03-01,0.0,-9775.0,-9775.0,1540482.0,-219157.0
2026-03-02,0.0,0.0,0.0,1540482.0,-219157.0
2026-03-03,0.0,0.0,0.0,1540482.0,-219157.0
2026-03-04,0.0,0.0,0.0,1540482.0,-219157.0
2026-03-05,0.0,0.0,0.0,1540482.0,-219157.0
2026-03-06,0.0,0.0,0.0,1540482.0,-219157.0
2026-03-08,0.0,0.0,0.0,1540482.0,-219157.0
