date,year,bump_level,max_contracts,daily_equity_delta_usd,equity_usd,drawdown_usd,open_units
2019-05-05,2019,0,10,0.0,24690.0,0.0,0
2019-05-06,2019,0,10,0.0,24690.0,0.0,0
2019-05-07,2019,0,10,0.0,24690.0,0.0,0
2019-05-08,2019,0,10,0.0,24690.0,0.0,0
2019-05-09,2019,0,10,0.0,24690.0,0.0,0
2019-05-10,2019,0,10,0.0,24690.0,0.0,0
2019-05-12,2019,0,10,0.0,24690.0,0.0,0
2019-05-13,2019,0,10,0.0,24690.0,0.0,0
2019-05-14,2019,0,10,0.0,24690.0,0.0,0
2019-05-15,2019,0,10,0.0,24690.0,0.0,0
2019-05-16,2019,0,10,0.0,24690.0,0.0,0
2019-05-17,2019,0,10,0.0,24690.0,0.0,0
2019-05-19,2019,0,10,0.0,24690.0,0.0,0
2019-05-20,2019,0,10,0.0,24690.0,0.0,0
2019-05-21,2019,0,10,0.0,24690.0,0.0,0
2019-05-22,2019,0,10,0.0,24690.0,0.0,0
2019-05-23,2019,0,10,0.0,24690.0,0.0,0
2019-05-24,2019,0,10,0.0,24690.0,0.0,0
2019-05-26,2019,0,10,0.0,24690.0,0.0,0
2019-05-27,2019,0,10,0.0,24690.0,0.0,0
2019-05-28,2019,0,10,0.0,24690.0,0.0,0
2019-05-29,2019,0,10,0.0,24690.0,0.0,0
2019-05-30,2019,0,10,0.0,24690.0,0.0,0
2019-05-31,2019,0,10,0.0,24690.0,0.0,0
2019-06-02,2019,0,10,0.0,24690.0,0.0,0
2019-06-03,2019,0,10,0.0,24690.0,0.0,0
2019-06-04,2019,0,10,0.0,24690.0,0.0,0
2019-06-05,2019,0,10,82.0,24772.0,0.0,1
2019-06-06,2019,0,10,106.5,24878.5,0.0,1
2019-06-07,2019,0,10,127.5,25006.0,0.0,1
2019-06-09,2019,0,10,18.5,25024.5,0.0,1
2019-06-10,2019,0,10,30.5,25055.0,0.0,1
2019-06-11,2019,0,10,-39.5,25015.5,-39.5,1
2019-06-12,2019,0,10,-41.0,24974.5,-80.5,1
2019-06-13,2019,0,10,92.0,25066.5,0.0,1
2019-06-14,2019,0,10,-14.0,25052.5,-14.0,2
2019-06-16,2019,0,10,63.0,25115.5,0.0,2
2019-06-17,2019,0,10,-63.0,25052.5,-63.0,2
2019-06-18,2019,0,10,386.0,25438.5,0.0,2
2019-06-19,2019,0,10,98.0,25536.5,0.0,2
2019-06-20,2019,0,10,98.0,25634.5,0.0,2
2019-06-21,2019,0,10,-36.0,25598.5,-36.0,2
2019-06-23,2019,0,10,90.0,25688.5,0.0,2
2019-06-24,2019,0,10,-61.0,25627.5,-61.0,2
2019-06-25,2019,0,10,-146.0,25481.5,-207.0,2
2019-06-26,2019,0,10,47.0,25528.5,-160.0,2
2019-06-27,2019,0,10,-27.0,25501.5,-187.0,2
2019-06-28,2019,0,10,159.0,25660.5,-28.0,4
2019-06-30,2019,0,10,310.0,25970.5,0.0,4
2019-07-01,2019,0,10,-160.0,25810.5,-160.0,4
2019-07-02,2019,0,10,76.0,25886.5,-84.0,4
2019-07-03,2019,0,10,382.0,26268.5,0.0,4
2019-07-04,2019,0,10,70.0,26338.5,0.0,4
2019-07-05,2019,0,10,-178.0,26160.5,-178.0,4
2019-07-07,2019,0,10,-144.0,26016.5,-322.0,4
2019-07-08,2019,0,10,-280.0,25736.5,-602.0,4
2019-07-09,2019,0,10,164.0,25900.5,-438.0,4
2019-07-10,2019,0,10,290.0,26190.5,-148.0,4
2019-07-11,2019,0,10,492.0,26682.5,0.0,4
2019-07-12,2019,0,10,312.0,26994.5,0.0,6
2019-07-14,2019,0,10,75.0,27069.5,0.0,6
2019-07-15,2019,0,10,51.0,27120.5,0.0,6
2019-07-16,2019,0,10,-54.0,27066.5,-54.0,6
2019-07-17,2019,0,10,-555.0,26511.5,-609.0,6
2019-07-18,2019,0,10,474.0,26985.5,-135.0,6
2019-07-19,2019,0,10,-693.0,26292.5,-828.0,6
2019-07-21,2019,0,10,165.0,26457.5,-663.0,6
2019-07-22,2019,0,10,228.0,26685.5,-435.0,6
2019-07-23,2019,0,10,381.0,27066.5,-54.0,6
2019-07-24,2019,0,10,-168.0,26898.5,-222.0,6
2019-07-25,2019,0,10,-402.0,26496.5,-624.0,6
2019-07-26,2019,0,10,-50.0,26446.5,-674.0,8
2019-07-28,2019,0,10,-72.0,26374.5,-746.0,8
2019-07-29,2019,0,10,428.0,26802.5,-318.0,8
2019-07-30,2019,0,10,28.0,26830.5,-290.0,8
2019-07-31,2019,0,10,-1432.0,25398.5,-1722.0,8
2019-08-01,2019,0,10,-8.0,25390.5,-1730.0,0
2019-08-02,2019,0,10,0.0,25390.5,-1730.0,0
2019-08-04,2019,0,10,0.0,25390.5,-1730.0,0
2019-08-05,2019,0,10,0.0,25390.5,-1730.0,0
2019-08-06,2019,0,10,0.0,25390.5,-1730.0,0
2019-08-07,2019,0,10,0.0,25390.5,-1730.0,0
2019-08-08,2019,0,10,0.0,25390.5,-1730.0,0
2019-08-09,2019,0,10,0.0,25390.5,-1730.0,0
2019-08-11,2019,0,10,0.0,25390.5,-1730.0,0
2019-08-12,2019,0,10,0.0,25390.5,-1730.0,0
2019-08-13,2019,0,10,0.0,25390.5,-1730.0,0
2019-08-14,2019,0,10,0.0,25390.5,-1730.0,0
2019-08-15,2019,0,10,0.0,25390.5,-1730.0,0
2019-08-16,2019,0,10,0.0,25390.5,-1730.0,0
2019-08-18,2019,0,10,0.0,25390.5,-1730.0,0
2019-08-19,2019,0,10,0.0,25390.5,-1730.0,0
2019-08-20,2019,0,10,0.0,25390.5,-1730.0,0
2019-08-21,2019,0,10,0.0,25390.5,-1730.0,0
2019-08-22,2019,0,10,0.0,25390.5,-1730.0,0
2019-08-23,2019,0,10,0.0,25390.5,-1730.0,0
2019-08-25,2019,0,10,0.0,25390.5,-1730.0,0
2019-08-26,2019,0,10,0.0,25390.5,-1730.0,0
2019-08-27,2019,0,10,0.0,25390.5,-1730.0,0
2019-08-28,2019,0,10,0.0,25390.5,-1730.0,0
2019-08-29,2019,0,10,0.0,25390.5,-1730.0,0
2019-08-30,2019,0,10,0.0,25390.5,-1730.0,0
2019-09-01,2019,0,10,0.0,25390.5,-1730.0,0
2019-09-02,2019,0,10,0.0,25390.5,-1730.0,0
2019-09-03,2019,0,10,0.0,25390.5,-1730.0,0
2019-09-04,2019,0,10,231.0,25621.5,-1499.0,1
2019-09-05,2019,0,10,63.0,25684.5,-1436.0,1
2019-09-06,2019,0,10,34.0,25718.5,-1402.0,1
2019-09-08,2019,0,10,4.5,25723.0,-1397.5,1
2019-09-09,2019,0,10,-11.0,25712.0,-1408.5,1
2019-09-10,2019,0,10,37.0,25749.0,-1371.5,1
2019-09-11,2019,0,10,191.5,25940.5,-1180.0,1
2019-09-12,2019,0,10,-26.0,25914.5,-1206.0,1
2019-09-13,2019,0,10,-12.0,25902.5,-1218.0,2
2019-09-15,2019,0,10,-135.0,25767.5,-1353.0,2
2019-09-16,2019,0,10,-24.0,25743.5,-1377.0,2
2019-09-17,2019,0,10,9.0,25752.5,-1368.0,2
2019-09-18,2019,0,10,-3.0,25749.5,-1371.0,2
2019-09-19,2019,0,10,27.0,25776.5,-1344.0,2
2019-09-20,2019,0,10,-208.0,25568.5,-1552.0,2
2019-09-22,2019,0,10,101.0,25669.5,-1451.0,2
2019-09-23,2019,0,10,38.0,25707.5,-1413.0,2
2019-09-24,2019,0,10,-150.0,25557.5,-1563.0,2
2019-09-25,2019,0,10,59.0,25616.5,-1504.0,2
2019-09-26,2019,0,10,-92.0,25524.5,-1596.0,2
2019-09-27,2019,0,10,65.0,25589.5,-1531.0,4
2019-09-29,2019,0,10,124.0,25713.5,-1407.0,4
2019-09-30,2019,0,10,186.0,25899.5,-1221.0,4
2019-10-01,2019,0,10,-822.0,25077.5,-2043.0,4
2019-10-02,2019,0,10,0.0,25077.5,-2043.0,0
2019-10-03,2019,0,10,0.0,25077.5,-2043.0,0
2019-10-04,2019,0,10,0.0,25077.5,-2043.0,0
2019-10-06,2019,0,10,0.0,25077.5,-2043.0,0
2019-10-07,2019,0,10,0.0,25077.5,-2043.0,0
2019-10-08,2019,0,10,0.0,25077.5,-2043.0,0
2019-10-09,2019,0,10,0.0,25077.5,-2043.0,0
2019-10-10,2019,0,10,0.0,25077.5,-2043.0,0
2019-10-11,2019,0,10,0.0,25077.5,-2043.0,0
2019-10-13,2019,0,10,0.0,25077.5,-2043.0,0
2019-10-14,2019,0,10,0.0,25077.5,-2043.0,0
2019-10-15,2019,0,10,63.5,25141.0,-1979.5,1
2019-10-16,2019,0,10,-1.0,25140.0,-1980.5,1
2019-10-17,2019,0,10,22.0,25162.0,-1958.5,1
2019-10-18,2019,0,10,-101.0,25061.0,-2059.5,1
2019-10-20,2019,0,10,-18.5,25042.5,-2078.0,0
2019-10-21,2019,0,10,14.5,25057.0,-2063.5,1
2019-10-22,2019,0,10,-72.5,24984.5,-2136.0,1
2019-10-23,2019,0,10,2.0,24986.5,-2134.0,0
2019-10-24,2019,0,10,-19.0,24967.5,-2153.0,1
2019-10-25,2019,0,10,1.0,24968.5,-2152.0,0
2019-10-27,2019,0,10,13.0,24981.5,-2139.0,1
2019-10-28,2019,0,10,46.0,25027.5,-2093.0,1
2019-10-29,2019,0,10,-14.0,25013.5,-2107.0,1
2019-10-30,2019,0,10,67.0,25080.5,-2040.0,1
2019-10-31,2019,0,10,-58.5,25022.0,-2098.5,1
2019-11-01,2019,0,10,114.5,25136.5,-1984.0,1
2019-11-03,2019,0,10,28.0,25164.5,-1956.0,1
2019-11-04,2019,0,10,56.0,25220.5,-1900.0,1
2019-11-05,2019,0,10,-12.0,25208.5,-1912.0,1
2019-11-06,2019,0,10,1.0,25209.5,-1911.0,1
2019-11-07,2019,0,10,101.5,25311.0,-1809.5,1
2019-11-08,2019,0,10,27.5,25338.5,-1782.0,2
2019-11-10,2019,0,10,-91.0,25247.5,-1873.0,2
2019-11-11,2019,0,10,82.0,25329.5,-1791.0,2
2019-11-12,2019,0,10,-48.0,25281.5,-1839.0,2
2019-11-13,2019,0,10,154.0,25435.5,-1685.0,2
2019-11-14,2019,0,10,99.0,25534.5,-1586.0,2
2019-11-15,2019,0,10,120.0,25654.5,-1466.0,2
2019-11-17,2019,0,10,-13.0,25641.5,-1479.0,2
2019-11-18,2019,0,10,85.0,25726.5,-1394.0,2
2019-11-19,2019,0,10,-175.0,25551.5,-1569.0,2
2019-11-20,2019,0,10,-124.0,25427.5,-1693.0,2
2019-11-21,2019,0,10,50.0,25477.5,-1643.0,2
2019-11-22,2019,0,10,119.0,25596.5,-1524.0,4
2019-11-24,2019,0,10,138.0,25734.5,-1386.0,4
2019-11-25,2019,0,10,266.0,26000.5,-1120.0,4
2019-11-26,2019,0,10,142.0,26142.5,-978.0,4
2019-11-27,2019,0,10,-126.0,26016.5,-1104.0,4
2019-11-28,2019,0,10,-10.0,26006.5,-1114.0,4
2019-11-29,2019,0,10,4.0,26010.5,-1110.0,4
2019-12-01,2019,0,10,180.0,26190.5,-930.0,4
2019-12-02,2019,0,10,-650.0,25540.5,-1580.0,4
2019-12-03,2019,0,10,-2.0,25538.5,-1582.0,0
2019-12-04,2019,0,10,0.0,25538.5,-1582.0,0
2019-12-05,2019,0,10,0.0,25538.5,-1582.0,0
2019-12-06,2019,0,10,0.0,25538.5,-1582.0,0
2019-12-08,2019,0,10,0.0,25538.5,-1582.0,0
2019-12-09,2019,0,10,0.0,25538.5,-1582.0,0
2019-12-10,2019,0,10,0.0,25538.5,-1582.0,0
2019-12-11,2019,0,10,0.0,25538.5,-1582.0,0
2019-12-12,2019,0,10,152.0,25690.5,-1430.0,1
2019-12-13,2019,0,10,-38.0,25652.5,-1468.0,1
2019-12-15,2019,0,10,3.5,25656.0,-1464.5,1
2019-12-16,2019,0,10,36.0,25692.0,-1428.5,1
2019-12-17,2019,0,10,14.0,25706.0,-1414.5,1
2019-12-18,2019,0,10,-9.5,25696.5,-1424.0,1
2019-12-19,2019,0,10,68.0,25764.5,-1356.0,1
2019-12-20,2019,0,10,31.0,25795.5,-1325.0,2
2019-12-22,2019,0,10,25.0,25820.5,-1300.0,2
2019-12-23,2019,0,10,64.0,25884.5,-1236.0,2
2019-12-24,2019,0,10,-52.0,25832.5,-1288.0,2
2019-12-25,2019,0,10,33.0,25865.5,-1255.0,2
2019-12-26,2019,0,10,131.0,25996.5,-1124.0,2
2019-12-27,2019,0,10,-69.0,25927.5,-1193.0,2
2019-12-29,2019,0,10,50.0,25977.5,-1143.0,2
2019-12-30,2019,0,10,-181.0,25796.5,-1324.0,2
2019-12-31,2019,0,10,81.0,25877.5,-1243.0,2
2020-01-01,2020,0,10,43.0,25920.5,-1200.0,2
2020-01-02,2020,0,10,71.0,25991.5,-1129.0,2
2020-01-03,2020,0,10,-58.0,25933.5,-1187.0,4
2020-01-05,2020,0,10,-158.0,25775.5,-1345.0,4
2020-01-06,2020,0,10,378.0,26153.5,-967.0,4
2020-01-07,2020,0,10,-732.0,25421.5,-1699.0,4
2020-01-08,2020,0,10,896.0,26317.5,-803.0,4
2020-01-09,2020,0,10,406.0,26723.5,-397.0,4
2020-01-10,2020,0,10,-462.0,26261.5,-859.0,4
2020-01-12,2020,0,10,162.0,26423.5,-697.0,4
2020-01-13,2020,0,10,44.0,26467.5,-653.0,4
2020-01-14,2020,0,10,-24.0,26443.5,-677.0,4
2020-01-15,2020,0,10,408.0,26851.5,-269.0,4
2020-01-16,2020,0,10,420.0,27271.5,0.0,4
2020-01-17,2020,0,10,-17.0,27254.5,-17.0,6
2020-01-19,2020,0,10,81.0,27335.5,0.0,6
2020-01-20,2020,0,10,-357.0,26978.5,-357.0,6
2020-01-21,2020,0,10,306.0,27284.5,-51.0,6
2020-01-22,2020,0,10,-555.0,26729.5,-606.0,6
2020-01-23,2020,0,10,210.0,26939.5,-396.0,6
2020-01-24,2020,0,10,-783.0,26156.5,-1179.0,6
2020-01-26,2020,0,10,-696.0,25460.5,-1875.0,6
2020-01-27,2020,0,10,9.0,25469.5,-1866.0,0
2020-01-28,2020,0,10,0.0,25469.5,-1866.0,0
2020-01-29,2020,0,10,0.0,25469.5,-1866.0,0
2020-01-30,2020,0,10,0.0,25469.5,-1866.0,0
2020-01-31,2020,0,10,0.0,25469.5,-1866.0,0
2020-02-02,2020,0,10,0.0,25469.5,-1866.0,0
2020-02-03,2020,0,10,0.0,25469.5,-1866.0,0
2020-02-04,2020,0,10,0.0,25469.5,-1866.0,0
2020-02-05,2020,0,10,337.5,25807.0,-1528.5,1
2020-02-06,2020,0,10,-78.0,25729.0,-1606.5,1
2020-02-07,2020,0,10,-123.5,25605.5,-1730.0,1
2020-02-09,2020,0,10,1.0,25606.5,-1729.0,1
2020-02-10,2020,0,10,146.0,25752.5,-1583.0,1
2020-02-11,2020,0,10,-17.5,25735.0,-1600.5,1
2020-02-12,2020,0,10,60.5,25795.5,-1540.0,1
2020-02-13,2020,0,10,35.0,25830.5,-1505.0,1
2020-02-14,2020,0,10,-26.5,25804.0,-1531.5,2
2020-02-16,2020,0,10,40.0,25844.0,-1491.5,2
2020-02-17,2020,0,10,-123.0,25721.0,-1614.5,2
2020-02-18,2020,0,10,-12.0,25709.0,-1626.5,2
2020-02-19,2020,0,10,-5.0,25704.0,-1631.5,2
2020-02-20,2020,0,10,-209.0,25495.0,-1840.5,2
2020-02-21,2020,0,10,-104.0,25391.0,-1944.5,2
2020-02-23,2020,0,10,-393.0,24998.0,-2337.5,2
2020-02-24,2020,0,10,1.0,24999.0,-2336.5,0
2020-02-25,2020,0,10,0.0,24999.0,-2336.5,0
2020-02-26,2020,0,10,0.0,24999.0,-2336.5,0
2020-02-27,2020,0,10,0.0,24999.0,-2336.5,0
2020-03-01,2020,0,10,0.0,24999.0,-2336.5,0
2020-03-02,2020,0,10,0.0,24999.0,-2336.5,0
2020-03-03,2020,0,10,0.0,24999.0,-2336.5,0
2020-03-04,2020,0,10,0.0,24999.0,-2336.5,0
2020-03-05,2020,0,10,0.0,24999.0,-2336.5,0
2020-03-06,2020,0,10,0.0,24999.0,-2336.5,0
2020-03-08,2020,0,10,0.0,24999.0,-2336.5,0
2020-03-09,2020,0,10,0.0,24999.0,-2336.5,0
2020-03-10,2020,0,10,0.0,24999.0,-2336.5,0
2020-03-11,2020,0,10,0.0,24999.0,-2336.5,0
2020-03-12,2020,0,10,0.0,24999.0,-2336.5,0
2020-03-13,2020,0,10,0.0,24999.0,-2336.5,0
2020-03-15,2020,0,10,0.0,24999.0,-2336.5,0
2020-03-16,2020,0,10,0.0,24999.0,-2336.5,0
2020-03-17,2020,0,10,0.0,24999.0,-2336.5,0
2020-03-18,2020,0,10,0.0,24999.0,-2336.5,0
2020-03-19,2020,0,10,0.0,24999.0,-2336.5,0
2020-03-20,2020,0,10,0.0,24999.0,-2336.5,0
2020-03-22,2020,0,10,0.0,24999.0,-2336.5,0
2020-03-23,2020,0,10,0.0,24999.0,-2336.5,0
2020-03-24,2020,0,10,0.0,24999.0,-2336.5,0
2020-03-25,2020,0,10,0.0,24999.0,-2336.5,0
2020-03-26,2020,0,10,0.0,24999.0,-2336.5,0
2020-03-27,2020,0,10,0.0,24999.0,-2336.5,0
2020-03-29,2020,0,10,0.0,24999.0,-2336.5,0
2020-03-30,2020,0,10,0.0,24999.0,-2336.5,0
2020-03-31,2020,0,10,0.0,24999.0,-2336.5,0
2020-04-01,2020,0,10,0.0,24999.0,-2336.5,0
2020-04-02,2020,0,10,0.0,24999.0,-2336.5,0
2020-04-03,2020,0,10,0.0,24999.0,-2336.5,0
2020-04-05,2020,0,10,0.0,24999.0,-2336.5,0
2020-04-06,2020,0,10,345.5,25344.5,-1991.0,1
2020-04-07,2020,0,10,83.0,25427.5,-1908.0,1
2020-04-08,2020,0,10,384.0,25811.5,-1524.0,1
2020-04-09,2020,0,10,205.0,26016.5,-1319.0,1
2020-04-12,2020,0,10,-193.0,25823.5,-1512.0,1
2020-04-13,2020,0,10,163.0,25986.5,-1349.0,1
2020-04-14,2020,0,10,68.0,26054.5,-1281.0,1
2020-04-15,2020,0,10,-245.5,25809.0,-1526.5,1
2020-04-16,2020,0,10,487.0,26296.0,-1039.5,1
2020-04-17,2020,0,10,-46.0,26250.0,-1085.5,1
2020-04-19,2020,0,10,-1.5,26248.5,-1087.0,1
2020-04-20,2020,0,10,-436.0,25812.5,-1523.0,1
2020-04-21,2020,0,10,-154.0,25658.5,-1677.0,1
2020-04-22,2020,0,10,148.0,25806.5,-1529.0,1
2020-04-23,2020,0,10,-7.0,25799.5,-1536.0,1
2020-04-24,2020,0,10,171.5,25971.0,-1364.5,2
2020-04-26,2020,0,10,151.0,26122.0,-1213.5,2
2020-04-27,2020,0,10,133.0,26255.0,-1080.5,2
2020-04-28,2020,0,10,329.0,26584.0,-751.5,2
2020-04-29,2020,0,10,452.0,27036.0,-299.5,2
2020-04-30,2020,0,10,-777.0,26259.0,-1076.5,2
2020-05-01,2020,0,10,-339.0,25920.0,-1415.5,2
2020-05-03,2020,0,10,-109.0,25811.0,-1524.5,2
2020-05-04,2020,0,10,263.0,26074.0,-1261.5,2
2020-05-05,2020,0,10,33.0,26107.0,-1228.5,2
2020-05-06,2020,0,10,-140.0,25967.0,-1368.5,2
2020-05-07,2020,0,10,493.0,26460.0,-875.5,2
2020-05-08,2020,0,10,240.0,26700.0,-635.5,4
2020-05-10,2020,0,10,284.0,26984.0,-351.5,4
2020-05-11,2020,0,10,-976.0,26008.0,-1327.5,4
2020-05-12,2020,0,10,-682.0,25326.0,-2009.5,4
2020-05-13,2020,0,10,-874.0,24452.0,-2883.5,4
2020-05-14,2020,0,10,732.0,25184.0,-2151.5,4
2020-05-15,2020,0,10,66.0,25250.0,-2085.5,4
2020-05-17,2020,0,10,432.0,25682.0,-1653.5,4
2020-05-18,2020,0,10,1332.0,27014.0,-321.5,4
2020-05-19,2020,0,10,-288.0,26726.0,-609.5,4
2020-05-20,2020,0,10,124.0,26850.0,-485.5,4
2020-05-21,2020,0,10,-300.0,26550.0,-785.5,4
2020-05-22,2020,0,10,534.0,27084.0,-251.5,6
2020-05-24,2020,0,10,141.0,27225.0,-110.5,6
2020-05-25,2020,0,10,999.0,28224.0,0.0,6
2020-05-26,2020,0,10,987.0,29211.0,0.0,6
2020-05-27,2020,0,10,1341.0,30552.0,0.0,6
2020-05-28,2020,0,10,-843.0,29709.0,-843.0,6
2020-05-29,2020,0,10,474.0,30183.0,-369.0,6
2020-05-31,2020,0,10,-432.0,29751.0,-801.0,6
2020-06-01,2020,0,10,9.0,29760.0,-792.0,6
2020-06-02,2020,0,10,1338.0,31098.0,0.0,6
2020-06-03,2020,0,10,1191.0,32289.0,0.0,6
2020-06-04,2020,0,10,606.0,32895.0,0.0,6
2020-06-05,2020,0,10,1987.0,34882.0,0.0,8
2020-06-07,2020,0,10,304.0,35186.0,0.0,8
2020-06-08,2020,0,10,1548.0,36734.0,0.0,8
2020-06-09,2020,0,10,-388.0,36346.0,-388.0,8
2020-06-10,2020,0,10,-3168.0,33178.0,-3556.0,8
2020-06-11,2020,0,10,-4.0,33174.0,-3560.0,0
2020-06-12,2020,0,10,0.0,33174.0,-3560.0,0
2020-06-14,2020,0,10,0.0,33174.0,-3560.0,0
2020-06-15,2020,0,10,0.0,33174.0,-3560.0,0
2020-06-16,2020,0,10,0.0,33174.0,-3560.0,0
2020-06-17,2020,0,10,0.0,33174.0,-3560.0,0
2020-06-18,2020,0,10,0.0,33174.0,-3560.0,0
2020-06-19,2020,0,10,0.0,33174.0,-3560.0,0
2020-06-21,2020,0,10,0.0,33174.0,-3560.0,0
2020-06-22,2020,0,10,0.0,33174.0,-3560.0,0
2020-06-23,2020,0,10,0.0,33174.0,-3560.0,0
2020-06-24,2020,0,10,0.0,33174.0,-3560.0,0
2020-06-25,2020,0,10,0.0,33174.0,-3560.0,0
2020-06-26,2020,0,10,0.0,33174.0,-3560.0,0
2020-06-28,2020,0,10,0.0,33174.0,-3560.0,0
2020-06-29,2020,0,10,0.0,33174.0,-3560.0,0
2020-06-30,2020,0,10,0.0,33174.0,-3560.0,0
2020-07-01,2020,0,10,0.0,33174.0,-3560.0,0
2020-07-02,2020,0,10,0.0,33174.0,-3560.0,0
2020-07-03,2020,0,10,0.0,33174.0,-3560.0,0
2020-07-05,2020,0,10,0.0,33174.0,-3560.0,0
2020-07-06,2020,0,10,0.0,33174.0,-3560.0,0
2020-07-07,2020,0,10,0.0,33174.0,-3560.0,0
2020-07-08,2020,0,10,0.0,33174.0,-3560.0,0
2020-07-09,2020,0,10,0.0,33174.0,-3560.0,0
2020-07-10,2020,0,10,0.0,33174.0,-3560.0,0
2020-07-12,2020,0,10,0.0,33174.0,-3560.0,0
2020-07-13,2020,0,10,0.0,33174.0,-3560.0,0
2020-07-14,2020,0,10,0.0,33174.0,-3560.0,0
2020-07-15,2020,0,10,0.0,33174.0,-3560.0,0
2020-07-16,2020,0,10,0.0,33174.0,-3560.0,0
2020-07-17,2020,0,10,0.0,33174.0,-3560.0,0
2020-07-19,2020,0,10,0.0,33174.0,-3560.0,0
2020-07-20,2020,0,10,0.0,33174.0,-3560.0,0
2020-07-21,2020,0,10,0.0,33174.0,-3560.0,0
2020-07-22,2020,0,10,0.0,33174.0,-3560.0,0
2020-07-23,2020,0,10,0.0,33174.0,-3560.0,0
2020-07-24,2020,0,10,0.0,33174.0,-3560.0,0
2020-07-26,2020,0,10,0.0,33174.0,-3560.0,0
2020-07-27,2020,0,10,0.0,33174.0,-3560.0,0
2020-07-28,2020,0,10,0.0,33174.0,-3560.0,0
2020-07-29,2020,0,10,0.0,33174.0,-3560.0,0
2020-07-30,2020,0,10,0.0,33174.0,-3560.0,0
2020-07-31,2020,0,10,0.0,33174.0,-3560.0,0
2020-08-02,2020,0,10,0.0,33174.0,-3560.0,0
2020-08-03,2020,0,10,0.0,33174.0,-3560.0,0
2020-08-04,2020,0,10,0.0,33174.0,-3560.0,0
2020-08-05,2020,0,10,164.0,33338.0,-3396.0,1
2020-08-06,2020,0,10,30.5,33368.5,-3365.5,1
2020-08-07,2020,0,10,102.5,33471.0,-3263.0,1
2020-08-09,2020,0,10,26.0,33497.0,-3237.0,1
2020-08-10,2020,0,10,186.0,33683.0,-3051.0,1
2020-08-11,2020,0,10,-55.0,33628.0,-3106.0,1
2020-08-12,2020,0,10,100.0,33728.0,-3006.0,1
2020-08-13,2020,0,10,-8.5,33719.5,-3014.5,1
2020-08-14,2020,0,10,-3.0,33716.5,-3017.5,2
2020-08-16,2020,0,10,101.0,33817.5,-2916.5,2
2020-08-17,2020,0,10,-138.0,33679.5,-3054.5,2
2020-08-18,2020,0,10,-11.0,33668.5,-3065.5,2
2020-08-19,2020,0,10,-274.0,33394.5,-3339.5,2
2020-08-20,2020,0,10,261.0,33655.5,-3078.5,2
2020-08-21,2020,0,10,119.0,33774.5,-2959.5,2
2020-08-23,2020,0,10,69.0,33843.5,-2890.5,2
2020-08-24,2020,0,10,466.0,34309.5,-2424.5,2
2020-08-25,2020,0,10,-235.0,34074.5,-2659.5,2
2020-08-26,2020,0,10,101.0,34175.5,-2558.5,2
2020-08-27,2020,0,10,422.0,34597.5,-2136.5,2
2020-08-28,2020,0,10,-109.0,34488.5,-2245.5,4
2020-08-30,2020,0,10,290.0,34778.5,-1955.5,4
2020-08-31,2020,0,10,-664.0,34114.5,-2619.5,4
2020-09-01,2020,0,10,512.0,34626.5,-2107.5,4
2020-09-02,2020,0,10,796.0,35422.5,-1311.5,4
2020-09-03,2020,0,10,-1662.0,33760.5,-2973.5,4
2020-09-04,2020,0,10,-396.0,33364.5,-3369.5,4
2020-09-06,2020,0,10,142.0,33506.5,-3227.5,4
2020-09-07,2020,0,10,278.0,33784.5,-2949.5,4
2020-09-08,2020,0,10,2.0,33786.5,-2947.5,0
2020-09-09,2020,0,10,0.0,33786.5,-2947.5,0
2020-09-10,2020,0,10,0.0,33786.5,-2947.5,0
2020-09-11,2020,0,10,0.0,33786.5,-2947.5,0
2020-09-13,2020,0,10,0.0,33786.5,-2947.5,0
2020-09-14,2020,0,10,0.0,33786.5,-2947.5,0
2020-09-15,2020,0,10,0.0,33786.5,-2947.5,0
2020-09-16,2020,0,10,0.0,33786.5,-2947.5,0
2020-09-17,2020,0,10,0.0,33786.5,-2947.5,0
2020-09-18,2020,0,10,0.0,33786.5,-2947.5,0
2020-09-20,2020,0,10,0.0,33786.5,-2947.5,0
2020-09-21,2020,0,10,0.0,33786.5,-2947.5,0
2020-09-22,2020,0,10,0.0,33786.5,-2947.5,0
2020-09-23,2020,0,10,0.0,33786.5,-2947.5,0
2020-09-24,2020,0,10,0.0,33786.5,-2947.5,0
2020-09-25,2020,0,10,0.0,33786.5,-2947.5,0
2020-09-27,2020,0,10,0.0,33786.5,-2947.5,0
2020-09-28,2020,0,10,0.0,33786.5,-2947.5,0
2020-09-29,2020,0,10,0.0,33786.5,-2947.5,0
2020-09-30,2020,0,10,0.0,33786.5,-2947.5,0
2020-10-01,2020,0,10,0.0,33786.5,-2947.5,0
2020-10-02,2020,0,10,0.0,33786.5,-2947.5,0
2020-10-04,2020,0,10,0.0,33786.5,-2947.5,0
2020-10-05,2020,0,10,0.0,33786.5,-2947.5,0
2020-10-06,2020,0,10,0.0,33786.5,-2947.5,0
2020-10-07,2020,0,10,0.0,33786.5,-2947.5,0
2020-10-08,2020,0,10,92.0,33878.5,-2855.5,1
2020-10-09,2020,0,10,52.5,33931.0,-2803.0,1
2020-10-11,2020,0,10,-18.5,33912.5,-2821.5,1
2020-10-12,2020,0,10,90.0,34002.5,-2731.5,1
2020-10-13,2020,0,10,-19.5,33983.0,-2751.0,1
2020-10-14,2020,0,10,-176.5,33806.5,-2927.5,1
2020-10-15,2020,0,10,39.5,33846.0,-2888.0,1
2020-10-16,2020,0,10,-34.0,33812.0,-2922.0,2
2020-10-18,2020,0,10,144.0,33956.0,-2778.0,2
2020-10-19,2020,0,10,-370.0,33586.0,-3148.0,2
2020-10-20,2020,0,10,0.0,33586.0,-3148.0,0
2020-10-21,2020,0,10,-213.0,33373.0,-3361.0,1
2020-10-22,2020,0,10,-0.5,33372.5,-3361.5,0
2020-10-23,2020,0,10,-43.5,33329.0,-3405.0,1
2020-10-25,2020,0,10,-17.5,33311.5,-3422.5,0
2020-10-26,2020,0,10,0.0,33311.5,-3422.5,0
2020-10-27,2020,0,10,0.0,33311.5,-3422.5,0
2020-10-28,2020,0,10,0.0,33311.5,-3422.5,0
2020-10-29,2020,0,10,0.0,33311.5,-3422.5,0
2020-10-30,2020,0,10,0.0,33311.5,-3422.5,0
2020-11-01,2020,0,10,0.0,33311.5,-3422.5,0
2020-11-02,2020,0,10,0.0,33311.5,-3422.5,0
2020-11-03,2020,0,10,0.0,33311.5,-3422.5,0
2020-11-04,2020,0,10,252.5,33564.0,-3170.0,1
2020-11-05,2020,0,10,97.5,33661.5,-3072.5,1
2020-11-06,2020,0,10,74.0,33735.5,-2998.5,1
2020-11-08,2020,0,10,154.0,33889.5,-2844.5,1
2020-11-09,2020,0,10,118.0,34007.5,-2726.5,1
2020-11-10,2020,0,10,282.0,34289.5,-2444.5,1
2020-11-11,2020,0,10,-159.0,34130.5,-2603.5,1
2020-11-12,2020,0,10,-48.0,34082.5,-2651.5,1
2020-11-13,2020,0,10,206.0,34288.5,-2445.5,2
2020-11-15,2020,0,10,236.0,34524.5,-2209.5,2
2020-11-16,2020,0,10,133.0,34657.5,-2076.5,2
2020-11-17,2020,0,10,-113.0,34544.5,-2189.5,2
2020-11-18,2020,0,10,-302.0,34242.5,-2491.5,2
2020-11-19,2020,0,10,-108.0,34134.5,-2599.5,2
2020-11-20,2020,0,10,-85.0,34049.5,-2684.5,2
2020-11-22,2020,0,10,123.0,34172.5,-2561.5,2
2020-11-23,2020,0,10,524.0,34696.5,-2037.5,2
2020-11-24,2020,0,10,224.0,34920.5,-1813.5,2
2020-11-25,2020,0,10,-201.0,34719.5,-2014.5,2
2020-11-26,2020,0,10,-49.0,34670.5,-2063.5,2
2020-11-27,2020,0,10,94.0,34764.5,-1969.5,4
2020-11-29,2020,0,10,-418.0,34346.5,-2387.5,4
2020-11-30,2020,0,10,366.0,34712.5,-2021.5,4
2020-12-01,2020,0,10,-346.0,34366.5,-2367.5,4
2020-12-02,2020,0,10,276.0,34642.5,-2091.5,4
2020-12-03,2020,0,10,318.0,34960.5,-1773.5,4
2020-12-04,2020,0,10,320.0,35280.5,-1453.5,4
2020-12-06,2020,0,10,-18.0,35262.5,-1471.5,4
2020-12-07,2020,0,10,-296.0,34966.5,-1767.5,4
2020-12-08,2020,0,10,556.0,35522.5,-1211.5,4
2020-12-09,2020,0,10,-358.0,35164.5,-1569.5,4
2020-12-10,2020,0,10,-168.0,34996.5,-1737.5,4
2020-12-11,2020,0,10,-80.0,34916.5,-1817.5,6
2020-12-13,2020,0,10,507.0,35423.5,-1310.5,6
2020-12-14,2020,0,10,-1005.0,34418.5,-2315.5,6
2020-12-15,2020,0,10,906.0,35324.5,-1409.5,6
2020-12-16,2020,0,10,177.0,35501.5,-1232.5,6
2020-12-17,2020,0,10,-105.0,35396.5,-1337.5,6
2020-12-18,2020,0,10,495.0,35891.5,-842.5,6
2020-12-20,2020,0,10,-456.0,35435.5,-1298.5,6
2020-12-21,2020,0,10,-399.0,35036.5,-1697.5,6
2020-12-22,2020,0,10,-342.0,34694.5,-2039.5,6
2020-12-23,2020,0,10,648.0,35342.5,-1391.5,6
2020-12-24,2020,0,10,6.0,35348.5,-1385.5,6
2020-12-27,2020,0,10,423.0,35771.5,-962.5,6
2020-12-28,2020,0,10,645.0,36416.5,-317.5,6
2020-12-29,2020,0,10,-426.0,35990.5,-743.5,6
2020-12-30,2020,0,10,-6.0,35984.5,-749.5,6
2020-12-31,2020,0,10,543.0,36527.5,-206.5,6
2021-01-03,2021,2,12,36.0,36563.5,-170.5,12
2021-01-04,2021,2,12,-2550.0,34013.5,-2720.5,12
2021-01-05,2021,2,12,906.0,34919.5,-1814.5,12
2021-01-06,2021,2,12,3714.0,38633.5,0.0,12
2021-01-07,2021,2,12,1452.0,40085.5,0.0,12
2021-01-08,2021,2,12,-372.0,39713.5,-372.0,12
2021-01-10,2021,2,12,-1338.0,38375.5,-1710.0,12
2021-01-11,2021,2,12,552.0,38927.5,-1158.0,12
2021-01-12,2021,2,12,894.0,39821.5,-264.0,12
2021-01-13,2021,2,12,276.0,40097.5,0.0,12
2021-01-14,2021,2,12,-1776.0,38321.5,-1776.0,12
2021-01-15,2021,2,12,-990.0,37331.5,-2766.0,12
2021-01-17,2021,2,12,336.0,37667.5,-2430.0,12
2021-01-18,2021,2,12,1230.0,38897.5,-1200.0,12
2021-01-19,2021,2,12,-462.0,38435.5,-1662.0,12
2021-01-20,2021,2,12,2022.0,40457.5,0.0,12
2021-01-21,2021,2,12,-942.0,39515.5,-942.0,12
2021-01-22,2021,2,12,-522.0,38993.5,-1464.0,12
2021-01-24,2021,2,12,534.0,39527.5,-930.0,12
2021-01-25,2021,2,12,-1764.0,37763.5,-2694.0,12
2021-01-26,2021,2,12,396.0,38159.5,-2298.0,12
2021-01-27,2021,2,12,-3672.0,34487.5,-5970.0,12
2021-01-28,2021,2,12,468.0,34955.5,-5502.0,12
2021-01-29,2021,2,12,-12.0,34943.5,-5514.0,0
2021-01-31,2021,2,12,0.0,34943.5,-5514.0,0
2021-02-01,2021,2,12,0.0,34943.5,-5514.0,0
2021-02-02,2021,2,12,0.0,34943.5,-5514.0,0
2021-02-03,2021,2,12,0.0,34943.5,-5514.0,0
2021-02-04,2021,2,12,0.0,34943.5,-5514.0,0
2021-02-05,2021,2,12,106.5,35050.0,-5407.5,3
2021-02-07,2021,2,12,171.0,35221.0,-5236.5,3
2021-02-08,2021,2,12,108.0,35329.0,-5128.5,3
2021-02-09,2021,2,12,156.0,35485.0,-4972.5,3
2021-02-10,2021,2,12,10.5,35495.5,-4962.0,3
2021-02-11,2021,2,12,-85.5,35410.0,-5047.5,3
2021-02-12,2021,2,12,150.0,35560.0,-4897.5,3
2021-02-14,2021,2,12,186.0,35746.0,-4711.5,3
2021-02-15,2021,2,12,168.0,35914.0,-4543.5,3
2021-02-16,2021,2,12,-294.0,35620.0,-4837.5,3
2021-02-17,2021,2,12,109.5,35729.5,-4728.0,3
2021-02-18,2021,2,12,-270.0,35459.5,-4998.0,3
2021-02-19,2021,2,12,52.5,35512.0,-4945.5,6
2021-02-21,2021,2,12,-63.0,35449.0,-5008.5,6
2021-02-22,2021,2,12,564.0,36013.0,-4444.5,6
2021-02-23,2021,2,12,-498.0,35515.0,-4942.5,6
2021-02-24,2021,2,12,1746.0,37261.0,-3196.5,6
2021-02-25,2021,2,12,-2268.0,34993.0,-5464.5,6
2021-02-26,2021,2,12,-1062.0,33931.0,-6526.5,6
2021-02-28,2021,2,12,222.0,34153.0,-6304.5,0
2021-03-01,2021,2,12,442.5,34595.5,-5862.0,3
2021-03-02,2021,2,12,85.5,34681.0,-5776.5,3
2021-03-03,2021,2,12,-519.0,34162.0,-6295.5,3
2021-03-04,2021,2,12,-483.0,33679.0,-6778.5,3
2021-03-05,2021,2,12,0.0,33679.0,-6778.5,0
2021-03-07,2021,2,12,-132.0,33547.0,-6910.5,3
2021-03-08,2021,2,12,762.0,34309.0,-6148.5,3
2021-03-09,2021,2,12,-271.5,34037.5,-6420.0,3
2021-03-10,2021,2,12,916.5,34954.0,-5503.5,3
2021-03-11,2021,2,12,264.0,35218.0,-5239.5,3
2021-03-12,2021,2,12,151.5,35369.5,-5088.0,3
2021-03-14,2021,2,12,76.5,35446.0,-5011.5,3
2021-03-15,2021,2,12,109.5,35555.5,-4902.0,3
2021-03-16,2021,2,12,-174.0,35381.5,-5076.0,3
2021-03-17,2021,2,12,424.5,35806.0,-4651.5,3
2021-03-18,2021,2,12,-256.5,35549.5,-4908.0,3
2021-03-19,2021,2,12,-601.5,34948.0,-5509.5,6
2021-03-21,2021,2,12,-249.0,34699.0,-5758.5,6
2021-03-22,2021,2,12,474.0,35173.0,-5284.5,6
2021-03-23,2021,2,12,-837.0,34336.0,-6121.5,6
2021-03-24,2021,2,12,321.0,34657.0,-5800.5,6
2021-03-25,2021,2,12,531.0,35188.0,-5269.5,6
2021-03-26,2021,2,12,1110.0,36298.0,-4159.5,6
2021-03-28,2021,2,12,-303.0,35995.0,-4462.5,6
2021-03-29,2021,2,12,705.0,36700.0,-3757.5,6
2021-03-30,2021,2,12,-435.0,36265.0,-4192.5,6
2021-03-31,2021,2,12,-261.0,36004.0,-4453.5,6
2021-04-01,2021,2,12,513.0,36517.0,-3940.5,6
2021-04-02,2021,2,12,564.0,37081.0,-3376.5,10
2021-04-04,2021,2,12,200.0,37281.0,-3176.5,10
2021-04-05,2021,2,12,365.0,37646.0,-2811.5,10
2021-04-06,2021,2,12,90.0,37736.0,-2721.5,10
2021-04-07,2021,2,12,170.0,37906.0,-2551.5,10
2021-04-08,2021,2,12,90.0,37996.0,-2461.5,10
2021-04-09,2021,2,12,1195.0,39191.0,-1266.5,10
2021-04-11,2021,2,12,-260.0,38931.0,-1526.5,10
2021-04-12,2021,2,12,325.0,39256.0,-1201.5,10
2021-04-13,2021,2,12,-600.0,38656.0,-1801.5,10
2021-04-14,2021,2,12,755.0,39411.0,-1046.5,10
2021-04-15,2021,2,12,1045.0,40456.0,-1.5,10
2021-04-16,2021,2,12,747.0,41203.0,0.0,12
2021-04-18,2021,2,12,-414.0,40789.0,-414.0,12
2021-04-19,2021,2,12,360.0,41149.0,-54.0,12
2021-04-20,2021,2,12,-2256.0,38893.0,-2310.0,12
2021-04-21,2021,2,12,1860.0,40753.0,-450.0,12
2021-04-22,2021,2,12,-1368.0,39385.0,-1818.0,12
2021-04-23,2021,2,12,960.0,40345.0,-858.0,12
2021-04-25,2021,2,12,414.0,40759.0,-444.0,12
2021-04-26,2021,2,12,-462.0,40297.0,-906.0,12
2021-04-27,2021,2,12,-384.0,39913.0,-1290.0,12
2021-04-28,2021,2,12,-186.0,39727.0,-1476.0,12
2021-04-29,2021,2,12,528.0,40255.0,-948.0,12
2021-04-30,2021,2,12,-594.0,39661.0,-1542.0,12
2021-05-02,2021,2,12,582.0,40243.0,-960.0,12
2021-05-03,2021,2,12,384.0,40627.0,-576.0,12
2021-05-04,2021,2,12,888.0,41515.0,0.0,12
2021-05-05,2021,2,12,48.0,41563.0,0.0,12
2021-05-06,2021,2,12,2046.0,43609.0,0.0,12
2021-05-07,2021,2,12,1446.0,45055.0,0.0,12
2021-05-09,2021,2,12,456.0,45511.0,0.0,12
2021-05-10,2021,2,12,-1158.0,44353.0,-1158.0,12
2021-05-11,2021,2,12,-3840.0,40513.0,-4998.0,12
2021-05-12,2021,2,12,-6.0,40507.0,-5004.0,0
2021-05-13,2021,2,12,0.0,40507.0,-5004.0,0
2021-05-14,2021,2,12,0.0,40507.0,-5004.0,0
2021-05-16,2021,2,12,0.0,40507.0,-5004.0,0
2021-05-17,2021,2,12,0.0,40507.0,-5004.0,0
2021-05-18,2021,2,12,0.0,40507.0,-5004.0,0
2021-05-19,2021,2,12,0.0,40507.0,-5004.0,0
2021-05-20,2021,2,12,0.0,40507.0,-5004.0,0
2021-05-21,2021,2,12,0.0,40507.0,-5004.0,0
2021-05-23,2021,2,12,0.0,40507.0,-5004.0,0
2021-05-24,2021,2,12,0.0,40507.0,-5004.0,0
2021-05-25,2021,2,12,0.0,40507.0,-5004.0,0
2021-05-26,2021,2,12,0.0,40507.0,-5004.0,0
2021-05-27,2021,2,12,0.0,40507.0,-5004.0,0
2021-05-28,2021,2,12,0.0,40507.0,-5004.0,0
2021-05-30,2021,2,12,0.0,40507.0,-5004.0,0
2021-05-31,2021,2,12,0.0,40507.0,-5004.0,0
2021-06-01,2021,2,12,0.0,40507.0,-5004.0,0
2021-06-02,2021,2,12,0.0,40507.0,-5004.0,0
2021-06-03,2021,2,12,0.0,40507.0,-5004.0,0
2021-06-04,2021,2,12,0.0,40507.0,-5004.0,0
2021-06-06,2021,2,12,0.0,40507.0,-5004.0,0
2021-06-07,2021,2,12,0.0,40507.0,-5004.0,0
2021-06-08,2021,2,12,0.0,40507.0,-5004.0,0
2021-06-09,2021,2,12,0.0,40507.0,-5004.0,0
2021-06-10,2021,2,12,0.0,40507.0,-5004.0,0
2021-06-11,2021,2,12,0.0,40507.0,-5004.0,0
2021-06-13,2021,2,12,0.0,40507.0,-5004.0,0
2021-06-14,2021,2,12,0.0,40507.0,-5004.0,0
2021-06-15,2021,2,12,0.0,40507.0,-5004.0,0
2021-06-16,2021,2,12,0.0,40507.0,-5004.0,0
2021-06-17,2021,2,12,0.0,40507.0,-5004.0,0
2021-06-18,2021,2,12,0.0,40507.0,-5004.0,0
2021-06-20,2021,2,12,0.0,40507.0,-5004.0,0
2021-06-21,2021,2,12,0.0,40507.0,-5004.0,0
2021-06-22,2021,2,12,0.0,40507.0,-5004.0,0
2021-06-23,2021,2,12,0.0,40507.0,-5004.0,0
2021-06-24,2021,2,12,552.0,41059.0,-4452.0,3
2021-06-25,2021,2,12,217.5,41276.5,-4234.5,3
2021-06-27,2021,2,12,-39.0,41237.5,-4273.5,3
2021-06-28,2021,2,12,-330.0,40907.5,-4603.5,3
2021-06-29,2021,2,12,133.5,41041.0,-4470.0,3
2021-06-30,2021,2,12,363.0,41404.0,-4107.0,3
2021-07-01,2021,2,12,132.0,41536.0,-3975.0,3
2021-07-02,2021,2,12,78.0,41614.0,-3897.0,6
2021-07-04,2021,2,12,-72.0,41542.0,-3969.0,6
2021-07-05,2021,2,12,318.0,41860.0,-3651.0,6
2021-07-06,2021,2,12,-861.0,40999.0,-4512.0,6
2021-07-07,2021,2,12,123.0,41122.0,-4389.0,6
2021-07-08,2021,2,12,-804.0,40318.0,-5193.0,6
2021-07-09,2021,2,12,1632.0,41950.0,-3561.0,6
2021-07-11,2021,2,12,-189.0,41761.0,-3750.0,6
2021-07-12,2021,2,12,534.0,42295.0,-3216.0,6
2021-07-13,2021,2,12,-384.0,41911.0,-3600.0,6
2021-07-14,2021,2,12,54.0,41965.0,-3546.0,6
2021-07-15,2021,2,12,324.0,42289.0,-3222.0,6
2021-07-16,2021,2,12,-899.0,41390.0,-4121.0,10
2021-07-18,2021,2,12,-720.0,40670.0,-4841.0,10
2021-07-19,2021,2,12,-2565.0,38105.0,-7406.0,10
2021-07-20,2021,2,12,2515.0,40620.0,-4891.0,10
2021-07-21,2021,2,12,1590.0,42210.0,-3301.0,10
2021-07-22,2021,2,12,210.0,42420.0,-3091.0,10
2021-07-23,2021,2,12,785.0,43205.0,-2306.0,10
2021-07-25,2021,2,12,-600.0,42605.0,-2906.0,10
2021-07-26,2021,2,12,915.0,43520.0,-1991.0,10
2021-07-27,2021,2,12,-520.0,43000.0,-2511.0,10
2021-07-28,2021,2,12,-265.0,42735.0,-2776.0,10
2021-07-29,2021,2,12,235.0,42970.0,-2541.0,10
2021-07-30,2021,2,12,58.0,43028.0,-2483.0,12
2021-08-01,2021,2,12,672.0,43700.0,-1811.0,12
2021-08-02,2021,2,12,-1116.0,42584.0,-2927.0,12
2021-08-03,2021,2,12,1008.0,43592.0,-1919.0,12
2021-08-04,2021,2,12,-1302.0,42290.0,-3221.0,12
2021-08-05,2021,2,12,1002.0,43292.0,-2219.0,12
2021-08-06,2021,2,12,1074.0,44366.0,-1145.0,12
2021-08-08,2021,2,12,-282.0,44084.0,-1427.0,12
2021-08-09,2021,2,12,-654.0,43430.0,-2081.0,12
2021-08-10,2021,2,12,1200.0,44630.0,-881.0,12
2021-08-11,2021,2,12,1512.0,46142.0,0.0,12
2021-08-12,2021,2,12,84.0,46226.0,0.0,12
2021-08-13,2021,2,12,6.0,46232.0,0.0,12
2021-08-15,2021,2,12,-690.0,45542.0,-690.0,12
2021-08-16,2021,2,12,876.0,46418.0,0.0,12
2021-08-17,2021,2,12,-1026.0,45392.0,-1026.0,12
2021-08-18,2021,2,12,-2346.0,43046.0,-3372.0,12
2021-08-19,2021,2,12,-552.0,42494.0,-3924.0,12
2021-08-20,2021,2,12,1668.0,44162.0,-2256.0,12
2021-08-22,2021,2,12,798.0,44960.0,-1458.0,12
2021-08-23,2021,2,12,930.0,45890.0,-528.0,12
2021-08-24,2021,2,12,-468.0,45422.0,-996.0,12
2021-08-25,2021,2,12,336.0,45758.0,-660.0,12
2021-08-26,2021,2,12,-714.0,45044.0,-1374.0,12
2021-08-27,2021,2,12,1230.0,46274.0,-144.0,12
2021-08-29,2021,2,12,102.0,46376.0,-42.0,12
2021-08-30,2021,2,12,-186.0,46190.0,-228.0,12
2021-08-31,2021,2,12,192.0,46382.0,-36.0,12
2021-09-01,2021,2,12,-1104.0,45278.0,-1140.0,12
2021-09-02,2021,2,12,1398.0,46676.0,0.0,12
2021-09-03,2021,2,12,-834.0,45842.0,-834.0,12
2021-09-05,2021,2,12,54.0,45896.0,-780.0,12
2021-09-06,2021,2,12,318.0,46214.0,-462.0,12
2021-09-07,2021,2,12,-1926.0,44288.0,-2388.0,12
2021-09-08,2021,2,12,-1002.0,43286.0,-3390.0,12
2021-09-09,2021,2,12,264.0,43550.0,-3126.0,12
2021-09-10,2021,2,12,-708.0,42842.0,-3834.0,0
2021-09-12,2021,2,12,0.0,42842.0,-3834.0,0
2021-09-13,2021,2,12,0.0,42842.0,-3834.0,0
2021-09-14,2021,2,12,0.0,42842.0,-3834.0,0
2021-09-15,2021,2,12,0.0,42842.0,-3834.0,0
2021-09-16,2021,2,12,0.0,42842.0,-3834.0,0
2021-09-17,2021,2,12,0.0,42842.0,-3834.0,0
2021-09-19,2021,2,12,0.0,42842.0,-3834.0,0
2021-09-20,2021,2,12,0.0,42842.0,-3834.0,0
2021-09-21,2021,2,12,0.0,42842.0,-3834.0,0
2021-09-22,2021,2,12,0.0,42842.0,-3834.0,0
2021-09-23,2021,2,12,0.0,42842.0,-3834.0,0
2021-09-24,2021,2,12,0.0,42842.0,-3834.0,0
2021-09-26,2021,2,12,0.0,42842.0,-3834.0,0
2021-09-27,2021,2,12,0.0,42842.0,-3834.0,0
2021-09-28,2021,2,12,0.0,42842.0,-3834.0,0
2021-09-29,2021,2,12,0.0,42842.0,-3834.0,0
2021-09-30,2021,2,12,0.0,42842.0,-3834.0,0
2021-10-01,2021,2,12,0.0,42842.0,-3834.0,0
2021-10-03,2021,2,12,0.0,42842.0,-3834.0,0
2021-10-04,2021,2,12,0.0,42842.0,-3834.0,0
2021-10-05,2021,2,12,0.0,42842.0,-3834.0,0
2021-10-06,2021,2,12,0.0,42842.0,-3834.0,0
2021-10-07,2021,2,12,0.0,42842.0,-3834.0,0
2021-10-08,2021,2,12,0.0,42842.0,-3834.0,0
2021-10-10,2021,2,12,0.0,42842.0,-3834.0,0
2021-10-11,2021,2,12,0.0,42842.0,-3834.0,0
2021-10-12,2021,2,12,0.0,42842.0,-3834.0,0
2021-10-13,2021,2,12,0.0,42842.0,-3834.0,0
2021-10-14,2021,2,12,792.0,43634.0,-3042.0,3
2021-10-15,2021,2,12,448.5,44082.5,-2593.5,3
2021-10-17,2021,2,12,-6.0,44076.5,-2599.5,3
2021-10-18,2021,2,12,-100.5,43976.0,-2700.0,3
2021-10-19,2021,2,12,325.5,44301.5,-2374.5,3
2021-10-20,2021,2,12,147.0,44448.5,-2227.5,3
2021-10-21,2021,2,12,124.5,44573.0,-2103.0,3
2021-10-22,2021,2,12,-127.5,44445.5,-2230.5,6
2021-10-24,2021,2,12,207.0,44652.5,-2023.5,6
2021-10-25,2021,2,12,315.0,44967.5,-1708.5,6
2021-10-26,2021,2,12,-84.0,44883.5,-1792.5,6
2021-10-27,2021,2,12,-594.0,44289.5,-2386.5,6
2021-10-28,2021,2,12,435.0,44724.5,-1951.5,6
2021-10-29,2021,2,12,462.0,45186.5,-1489.5,6
2021-10-31,2021,2,12,126.0,45312.5,-1363.5,6
2021-11-01,2021,2,12,-189.0,45123.5,-1552.5,6
2021-11-02,2021,2,12,519.0,45642.5,-1033.5,6
2021-11-03,2021,2,12,348.0,45990.5,-685.5,6
2021-11-04,2021,2,12,-69.0,45921.5,-754.5,6
2021-11-05,2021,2,12,456.0,46377.5,-298.5,10
2021-11-07,2021,2,12,60.0,46437.5,-238.5,10
2021-11-08,2021,2,12,190.0,46627.5,-48.5,10
2021-11-09,2021,2,12,-665.0,45962.5,-713.5,10
2021-11-10,2021,2,12,-650.0,45312.5,-1363.5,10
2021-11-11,2021,2,12,-375.0,44937.5,-1738.5,10
2021-11-12,2021,2,12,735.0,45672.5,-1003.5,10
2021-11-14,2021,2,12,-90.0,45582.5,-1093.5,10
2021-11-15,2021,2,12,0.0,45582.5,-1093.5,10
2021-11-16,2021,2,12,285.0,45867.5,-808.5,10
2021-11-17,2021,2,12,-985.0,44882.5,-1793.5,10
2021-11-18,2021,2,12,310.0,45192.5,-1483.5,10
2021-11-19,2021,2,12,-1687.0,43505.5,-3170.5,12
2021-11-21,2021,2,12,450.0,43955.5,-2720.5,12
2021-11-22,2021,2,12,-330.0,43625.5,-3050.5,12
2021-11-23,2021,2,12,498.0,44123.5,-2552.5,12
2021-11-24,2021,2,12,1080.0,45203.5,-1472.5,12
2021-11-25,2021,2,12,6.0,45209.5,-1466.5,0
2021-11-26,2021,2,12,0.0,45209.5,-1466.5,0
2021-11-28,2021,2,12,0.0,45209.5,-1466.5,0
2021-11-29,2021,2,12,0.0,45209.5,-1466.5,0
2021-11-30,2021,2,12,0.0,45209.5,-1466.5,0
2021-12-01,2021,2,12,0.0,45209.5,-1466.5,0
2021-12-02,2021,2,12,0.0,45209.5,-1466.5,0
2021-12-03,2021,2,12,0.0,45209.5,-1466.5,0
2021-12-05,2021,2,12,0.0,45209.5,-1466.5,0
2021-12-06,2021,2,12,0.0,45209.5,-1466.5,0
2021-12-07,2021,2,12,675.0,45884.5,-791.5,3
2021-12-08,2021,2,12,-184.5,45700.0,-976.0,3
2021-12-09,2021,2,12,90.0,45790.0,-886.0,3
2021-12-10,2021,2,12,213.0,46003.0,-673.0,3
2021-12-12,2021,2,12,172.5,46175.5,-500.5,3
2021-12-13,2021,2,12,-624.0,45551.5,-1124.5,3
2021-12-14,2021,2,12,-120.0,45431.5,-1244.5,3
2021-12-15,2021,2,12,547.5,45979.0,-697.0,3
2021-12-16,2021,2,12,-150.0,45829.0,-847.0,3
2021-12-17,2021,2,12,-649.5,45179.5,-1496.5,3
2021-12-19,2021,2,12,-124.5,45055.0,-1621.0,0
2021-12-20,2021,2,12,0.0,45055.0,-1621.0,0
2021-12-21,2021,2,12,0.0,45055.0,-1621.0,0
2021-12-22,2021,2,12,403.5,45458.5,-1217.5,3
2021-12-23,2021,2,12,298.5,45757.0,-919.0,3
2021-12-26,2021,2,12,-22.5,45734.5,-941.5,3
2021-12-27,2021,2,12,469.5,46204.0,-472.0,3
2021-12-28,2021,2,12,226.5,46430.5,-245.5,3
2021-12-29,2021,2,12,105.0,46535.5,-140.5,3
2021-12-30,2021,2,12,-216.0,46319.5,-356.5,3
2021-12-31,2021,2,12,51.0,46370.5,-305.5,3
2022-01-02,2022,6,16,315.0,46685.5,0.0,7
2022-01-03,2022,6,16,553.0,47238.5,0.0,7
2022-01-04,2022,6,16,336.0,47574.5,0.0,7
2022-01-05,2022,6,16,-1480.5,46094.0,-1480.5,7
2022-01-06,2022,6,16,73.5,46167.5,-1407.0,7
2022-01-07,2022,6,16,-402.5,45765.0,-1809.5,14
2022-01-09,2022,6,16,-91.0,45674.0,-1900.5,14
2022-01-10,2022,6,16,-1106.0,44568.0,-3006.5,14
2022-01-11,2022,6,16,1519.0,46087.0,-1487.5,14
2022-01-12,2022,6,16,-308.0,45779.0,-1795.5,14
2022-01-13,2022,6,16,-756.0,45023.0,-2551.5,14
2022-01-14,2022,6,16,-1281.0,43742.0,-3832.5,14
2022-01-16,2022,6,16,-651.0,43091.0,-4483.5,14
2022-01-17,2022,6,16,-161.0,42930.0,-4644.5,14
2022-01-18,2022,6,16,28.0,42958.0,-4616.5,0
2022-01-19,2022,6,16,0.0,42958.0,-4616.5,0
2022-01-20,2022,6,16,0.0,42958.0,-4616.5,0
2022-01-21,2022,6,16,0.0,42958.0,-4616.5,0
2022-01-23,2022,6,16,0.0,42958.0,-4616.5,0
2022-01-24,2022,6,16,0.0,42958.0,-4616.5,0
2022-01-25,2022,6,16,0.0,42958.0,-4616.5,0
2022-01-26,2022,6,16,0.0,42958.0,-4616.5,0
2022-01-27,2022,6,16,0.0,42958.0,-4616.5,0
2022-01-28,2022,6,16,0.0,42958.0,-4616.5,0
2022-01-30,2022,6,16,0.0,42958.0,-4616.5,0
2022-01-31,2022,6,16,0.0,42958.0,-4616.5,0
2022-02-01,2022,6,16,0.0,42958.0,-4616.5,0
2022-02-02,2022,6,16,735.0,43693.0,-3881.5,7
2022-02-03,2022,6,16,-1095.5,42597.5,-4977.0,7
2022-02-04,2022,6,16,-3.5,42594.0,-4980.5,0
2022-02-06,2022,6,16,0.0,42594.0,-4980.5,0
2022-02-07,2022,6,16,0.0,42594.0,-4980.5,0
2022-02-08,2022,6,16,0.0,42594.0,-4980.5,0
2022-02-09,2022,6,16,570.5,43164.5,-4410.0,7
2022-02-10,2022,6,16,-2530.5,40634.0,-6940.5,7
2022-02-11,2022,6,16,3.5,40637.5,-6937.0,0
2022-02-13,2022,6,16,0.0,40637.5,-6937.0,0
2022-02-14,2022,6,16,0.0,40637.5,-6937.0,0
2022-02-15,2022,6,16,0.0,40637.5,-6937.0,0
2022-02-16,2022,6,16,0.0,40637.5,-6937.0,0
2022-02-17,2022,6,16,0.0,40637.5,-6937.0,0
2022-02-18,2022,6,16,0.0,40637.5,-6937.0,0
2022-02-20,2022,6,16,0.0,40637.5,-6937.0,0
2022-02-21,2022,6,16,0.0,40637.5,-6937.0,0
2022-02-22,2022,6,16,0.0,40637.5,-6937.0,0
2022-02-23,2022,6,16,0.0,40637.5,-6937.0,0
2022-02-24,2022,6,16,0.0,40637.5,-6937.0,0
2022-02-25,2022,6,16,0.0,40637.5,-6937.0,0
2022-02-27,2022,6,16,0.0,40637.5,-6937.0,0
2022-02-28,2022,6,16,0.0,40637.5,-6937.0,0
2022-03-01,2022,6,16,0.0,40637.5,-6937.0,0
2022-03-02,2022,6,16,0.0,40637.5,-6937.0,0
2022-03-03,2022,6,16,0.0,40637.5,-6937.0,0
2022-03-04,2022,6,16,0.0,40637.5,-6937.0,0
2022-03-06,2022,6,16,0.0,40637.5,-6937.0,0
2022-03-07,2022,6,16,0.0,40637.5,-6937.0,0
2022-03-08,2022,6,16,0.0,40637.5,-6937.0,0
2022-03-09,2022,6,16,0.0,40637.5,-6937.0,0
2022-03-10,2022,6,16,0.0,40637.5,-6937.0,0
2022-03-11,2022,6,16,0.0,40637.5,-6937.0,0
2022-03-13,2022,6,16,0.0,40637.5,-6937.0,0
2022-03-14,2022,6,16,0.0,40637.5,-6937.0,0
2022-03-15,2022,6,16,0.0,40637.5,-6937.0,0
2022-03-16,2022,6,16,0.0,40637.5,-6937.0,0
2022-03-17,2022,6,16,0.0,40637.5,-6937.0,0
2022-03-18,2022,6,16,0.0,40637.5,-6937.0,0
2022-03-20,2022,6,16,0.0,40637.5,-6937.0,0
2022-03-21,2022,6,16,0.0,40637.5,-6937.0,0
2022-03-22,2022,6,16,0.0,40637.5,-6937.0,0
2022-03-23,2022,6,16,0.0,40637.5,-6937.0,0
2022-03-24,2022,6,16,0.0,40637.5,-6937.0,0
2022-03-25,2022,6,16,0.0,40637.5,-6937.0,0
2022-03-27,2022,6,16,0.0,40637.5,-6937.0,0
2022-03-28,2022,6,16,770.0,41407.5,-6167.0,7
2022-03-29,2022,6,16,917.0,42324.5,-5250.0,7
2022-03-30,2022,6,16,31.5,42356.0,-5218.5,7
2022-03-31,2022,6,16,-1456.0,40900.0,-6674.5,7
2022-04-01,2022,6,16,-84.0,40816.0,-6758.5,7
2022-04-03,2022,6,16,28.0,40844.0,-6730.5,7
2022-04-04,2022,6,16,234.5,41078.5,-6496.0,7
2022-04-05,2022,6,16,-962.5,40116.0,-7458.5,7
2022-04-06,2022,6,16,7.0,40123.0,-7451.5,0
2022-04-07,2022,6,16,0.0,40123.0,-7451.5,0
2022-04-08,2022,6,16,0.0,40123.0,-7451.5,0
2022-04-10,2022,6,16,0.0,40123.0,-7451.5,0
2022-04-11,2022,6,16,0.0,40123.0,-7451.5,0
2022-04-12,2022,6,16,0.0,40123.0,-7451.5,0
2022-04-13,2022,6,16,0.0,40123.0,-7451.5,0
2022-04-14,2022,6,16,0.0,40123.0,-7451.5,0
2022-04-17,2022,6,16,0.0,40123.0,-7451.5,0
2022-04-18,2022,6,16,0.0,40123.0,-7451.5,0
2022-04-19,2022,6,16,0.0,40123.0,-7451.5,0
2022-04-20,2022,6,16,1246.0,41369.0,-6205.5,7
2022-04-21,2022,6,16,-2016.0,39353.0,-8221.5,7
2022-04-22,2022,6,16,3.5,39356.5,-8218.0,0
2022-04-24,2022,6,16,0.0,39356.5,-8218.0,0
2022-04-25,2022,6,16,0.0,39356.5,-8218.0,0
2022-04-26,2022,6,16,0.0,39356.5,-8218.0,0
2022-04-27,2022,6,16,0.0,39356.5,-8218.0,0
2022-04-28,2022,6,16,0.0,39356.5,-8218.0,0
2022-04-29,2022,6,16,0.0,39356.5,-8218.0,0
2022-05-01,2022,6,16,0.0,39356.5,-8218.0,0
2022-05-02,2022,6,16,0.0,39356.5,-8218.0,0
2022-05-03,2022,6,16,0.0,39356.5,-8218.0,0
2022-05-04,2022,6,16,0.0,39356.5,-8218.0,0
2022-05-05,2022,6,16,0.0,39356.5,-8218.0,0
2022-05-06,2022,6,16,0.0,39356.5,-8218.0,0
2022-05-08,2022,6,16,0.0,39356.5,-8218.0,0
2022-05-09,2022,6,16,0.0,39356.5,-8218.0,0
2022-05-10,2022,6,16,0.0,39356.5,-8218.0,0
2022-05-11,2022,6,16,0.0,39356.5,-8218.0,0
2022-05-12,2022,6,16,0.0,39356.5,-8218.0,0
2022-05-13,2022,6,16,0.0,39356.5,-8218.0,0
2022-05-15,2022,6,16,0.0,39356.5,-8218.0,0
2022-05-16,2022,6,16,0.0,39356.5,-8218.0,0
2022-05-17,2022,6,16,0.0,39356.5,-8218.0,0
2022-05-18,2022,6,16,0.0,39356.5,-8218.0,0
2022-05-19,2022,6,16,0.0,39356.5,-8218.0,0
2022-05-20,2022,6,16,0.0,39356.5,-8218.0,0
2022-05-22,2022,6,16,0.0,39356.5,-8218.0,0
2022-05-23,2022,6,16,0.0,39356.5,-8218.0,0
2022-05-24,2022,6,16,0.0,39356.5,-8218.0,0
2022-05-25,2022,6,16,0.0,39356.5,-8218.0,0
2022-05-26,2022,6,16,0.0,39356.5,-8218.0,0
2022-05-27,2022,6,16,2467.5,41824.0,-5750.5,7
2022-05-29,2022,6,16,-73.5,41750.5,-5824.0,7
2022-05-30,2022,6,16,-126.0,41624.5,-5950.0,7
2022-05-31,2022,6,16,-143.5,41481.0,-6093.5,7
2022-06-01,2022,6,16,-1256.5,40224.5,-7350.0,7
2022-06-02,2022,6,16,1585.5,41810.0,-5764.5,7
2022-06-03,2022,6,16,-1151.5,40658.5,-6916.0,7
2022-06-05,2022,6,16,378.0,41036.5,-6538.0,7
2022-06-06,2022,6,16,-861.0,40175.5,-7399.0,7
2022-06-07,2022,6,16,1050.0,41225.5,-6349.0,7
2022-06-08,2022,6,16,-633.5,40592.0,-6982.5,7
2022-06-09,2022,6,16,-2012.5,38579.5,-8995.0,7
2022-06-10,2022,6,16,-105.0,38474.5,-9100.0,0
2022-06-12,2022,6,16,0.0,38474.5,-9100.0,0
2022-06-13,2022,6,16,0.0,38474.5,-9100.0,0
2022-06-14,2022,6,16,0.0,38474.5,-9100.0,0
2022-06-15,2022,6,16,0.0,38474.5,-9100.0,0
2022-06-16,2022,6,16,0.0,38474.5,-9100.0,0
2022-06-17,2022,6,16,0.0,38474.5,-9100.0,0
2022-06-19,2022,6,16,0.0,38474.5,-9100.0,0
2022-06-20,2022,6,16,0.0,38474.5,-9100.0,0
2022-06-21,2022,6,16,0.0,38474.5,-9100.0,0
2022-06-22,2022,6,16,0.0,38474.5,-9100.0,0
2022-06-23,2022,6,16,0.0,38474.5,-9100.0,0
2022-06-24,2022,6,16,0.0,38474.5,-9100.0,0
2022-06-26,2022,6,16,0.0,38474.5,-9100.0,0
2022-06-27,2022,6,16,0.0,38474.5,-9100.0,0
2022-06-28,2022,6,16,0.0,38474.5,-9100.0,0
2022-06-29,2022,6,16,0.0,38474.5,-9100.0,0
2022-06-30,2022,6,16,0.0,38474.5,-9100.0,0
2022-07-01,2022,6,16,0.0,38474.5,-9100.0,0
2022-07-03,2022,6,16,0.0,38474.5,-9100.0,0
2022-07-04,2022,6,16,0.0,38474.5,-9100.0,0
2022-07-05,2022,6,16,0.0,38474.5,-9100.0,0
2022-07-06,2022,6,16,0.0,38474.5,-9100.0,0
2022-07-07,2022,6,16,0.0,38474.5,-9100.0,0
2022-07-08,2022,6,16,0.0,38474.5,-9100.0,0
2022-07-10,2022,6,16,0.0,38474.5,-9100.0,0
2022-07-11,2022,6,16,0.0,38474.5,-9100.0,0
2022-07-12,2022,6,16,0.0,38474.5,-9100.0,0
2022-07-13,2022,6,16,0.0,38474.5,-9100.0,0
2022-07-14,2022,6,16,0.0,38474.5,-9100.0,0
2022-07-15,2022,6,16,0.0,38474.5,-9100.0,0
2022-07-17,2022,6,16,0.0,38474.5,-9100.0,0
2022-07-18,2022,6,16,0.0,38474.5,-9100.0,0
2022-07-19,2022,6,16,3090.5,41565.0,-6009.5,7
2022-07-20,2022,6,16,-490.0,41075.0,-6499.5,7
2022-07-21,2022,6,16,542.5,41617.5,-5957.0,7
2022-07-22,2022,6,16,-381.5,41236.0,-6338.5,7
2022-07-24,2022,6,16,-38.5,41197.5,-6377.0,7
2022-07-25,2022,6,16,17.5,41215.0,-6359.5,7
2022-07-26,2022,6,16,-63.0,41152.0,-6422.5,7
2022-07-27,2022,6,16,994.0,42146.0,-5428.5,7
2022-07-28,2022,6,16,1330.0,43476.0,-4098.5,7
2022-07-29,2022,6,16,910.0,44386.0,-3188.5,14
2022-07-31,2022,6,16,-959.0,43427.0,-4147.5,14
2022-08-01,2022,6,16,-35.0,43392.0,-4182.5,14
2022-08-02,2022,6,16,-1617.0,41775.0,-5799.5,14
2022-08-03,2022,6,16,2212.0,43987.0,-3587.5,14
2022-08-04,2022,6,16,112.0,44099.0,-3475.5,14
2022-08-05,2022,6,16,-371.0,43728.0,-3846.5,14
2022-08-07,2022,6,16,35.0,43763.0,-3811.5,14
2022-08-08,2022,6,16,1078.0,44841.0,-2733.5,14
2022-08-09,2022,6,16,-1029.0,43812.0,-3762.5,14
2022-08-10,2022,6,16,4431.0,48243.0,0.0,14
2022-08-11,2022,6,16,-133.0,48110.0,-133.0,14
2022-08-12,2022,6,16,2656.0,50766.0,0.0,16
2022-08-14,2022,6,16,-544.0,50222.0,-544.0,16
2022-08-15,2022,6,16,1784.0,52006.0,0.0,16
2022-08-16,2022,6,16,2024.0,54030.0,0.0,16
2022-08-17,2022,6,16,-1464.0,52566.0,-1464.0,16
2022-08-18,2022,6,16,-40.0,52526.0,-1504.0,16
2022-08-19,2022,6,16,-1912.0,50614.0,-3416.0,16
2022-08-21,2022,6,16,-960.0,49654.0,-4376.0,16
2022-08-22,2022,6,16,-3792.0,45862.0,-8168.0,16
2022-08-23,2022,6,16,8.0,45870.0,-8160.0,0
2022-08-24,2022,6,16,0.0,45870.0,-8160.0,0
2022-08-25,2022,6,16,0.0,45870.0,-8160.0,0
2022-08-26,2022,6,16,0.0,45870.0,-8160.0,0
2022-08-28,2022,6,16,0.0,45870.0,-8160.0,0
2022-08-29,2022,6,16,0.0,45870.0,-8160.0,0
2022-08-30,2022,6,16,0.0,45870.0,-8160.0,0
2022-08-31,2022,6,16,0.0,45870.0,-8160.0,0
2022-09-01,2022,6,16,0.0,45870.0,-8160.0,0
2022-09-02,2022,6,16,0.0,45870.0,-8160.0,0
2022-09-04,2022,6,16,0.0,45870.0,-8160.0,0
2022-09-05,2022,6,16,0.0,45870.0,-8160.0,0
2022-09-06,2022,6,16,0.0,45870.0,-8160.0,0
2022-09-07,2022,6,16,0.0,45870.0,-8160.0,0
2022-09-08,2022,6,16,0.0,45870.0,-8160.0,0
2022-09-09,2022,6,16,0.0,45870.0,-8160.0,0
2022-09-11,2022,6,16,0.0,45870.0,-8160.0,0
2022-09-12,2022,6,16,0.0,45870.0,-8160.0,0
2022-09-13,2022,6,16,0.0,45870.0,-8160.0,0
2022-09-14,2022,6,16,0.0,45870.0,-8160.0,0
2022-09-15,2022,6,16,0.0,45870.0,-8160.0,0
2022-09-16,2022,6,16,0.0,45870.0,-8160.0,0
2022-09-18,2022,6,16,0.0,45870.0,-8160.0,0
2022-09-19,2022,6,16,0.0,45870.0,-8160.0,0
2022-09-20,2022,6,16,0.0,45870.0,-8160.0,0
2022-09-21,2022,6,16,0.0,45870.0,-8160.0,0
2022-09-22,2022,6,16,0.0,45870.0,-8160.0,0
2022-09-23,2022,6,16,0.0,45870.0,-8160.0,0
2022-09-25,2022,6,16,0.0,45870.0,-8160.0,0
2022-09-26,2022,6,16,0.0,45870.0,-8160.0,0
2022-09-27,2022,6,16,0.0,45870.0,-8160.0,0
2022-09-28,2022,6,16,0.0,45870.0,-8160.0,0
2022-09-29,2022,6,16,0.0,45870.0,-8160.0,0
2022-09-30,2022,6,16,0.0,45870.0,-8160.0,0
2022-10-02,2022,6,16,0.0,45870.0,-8160.0,0
2022-10-03,2022,6,16,0.0,45870.0,-8160.0,0
2022-10-04,2022,6,16,0.0,45870.0,-8160.0,0
2022-10-05,2022,6,16,0.0,45870.0,-8160.0,0
2022-10-06,2022,6,16,0.0,45870.0,-8160.0,0
2022-10-07,2022,6,16,0.0,45870.0,-8160.0,0
2022-10-09,2022,6,16,0.0,45870.0,-8160.0,0
2022-10-10,2022,6,16,0.0,45870.0,-8160.0,0
2022-10-11,2022,6,16,0.0,45870.0,-8160.0,0
2022-10-12,2022,6,16,0.0,45870.0,-8160.0,0
2022-10-13,2022,6,16,0.0,45870.0,-8160.0,0
2022-10-14,2022,6,16,0.0,45870.0,-8160.0,0
2022-10-16,2022,6,16,0.0,45870.0,-8160.0,0
2022-10-17,2022,6,16,2670.5,48540.5,-5489.5,7
2022-10-18,2022,6,16,497.0,49037.5,-4992.5,7
2022-10-19,2022,6,16,-1270.5,47767.0,-6263.0,7
2022-10-20,2022,6,16,-182.0,47585.0,-6445.0,7
2022-10-21,2022,6,16,3038.0,50623.0,-3407.0,7
2022-10-23,2022,6,16,-213.5,50409.5,-3620.5,7
2022-10-24,2022,6,16,1463.0,51872.5,-2157.5,7
2022-10-25,2022,6,16,920.5,52793.0,-1237.0,7
2022-10-26,2022,6,16,868.0,53661.0,-369.0,7
2022-10-27,2022,6,16,175.0,53836.0,-194.0,7
2022-10-28,2022,6,16,3503.5,57339.5,0.0,14
2022-10-30,2022,6,16,-756.0,56583.5,-756.0,14
2022-10-31,2022,6,16,14.0,56597.5,-742.0,14
2022-11-01,2022,6,16,-1099.0,55498.5,-1841.0,14
2022-11-02,2022,6,16,-3423.0,52075.5,-5264.0,14
2022-11-03,2022,6,16,-1687.0,50388.5,-6951.0,14
2022-11-04,2022,6,16,2660.0,53048.5,-4291.0,14
2022-11-06,2022,6,16,70.0,53118.5,-4221.0,14
2022-11-07,2022,6,16,3213.0,56331.5,-1008.0,14
2022-11-08,2022,6,16,2233.0,58564.5,0.0,14
2022-11-09,2022,6,16,-4095.0,54469.5,-4095.0,14
2022-11-10,2022,6,16,8498.0,62967.5,0.0,14
2022-11-11,2022,6,16,-302.0,62665.5,-302.0,16
2022-11-13,2022,6,16,-560.0,62105.5,-862.0,16
2022-11-14,2022,6,16,-152.0,61953.5,-1014.0,16
2022-11-15,2022,6,16,-1000.0,60953.5,-2014.0,16
2022-11-16,2022,6,16,384.0,61337.5,-1630.0,16
2022-11-17,2022,6,16,-520.0,60817.5,-2150.0,16
2022-11-18,2022,6,16,1888.0,62705.5,-262.0,16
2022-11-20,2022,6,16,-520.0,62185.5,-782.0,16
2022-11-21,2022,6,16,432.0,62617.5,-350.0,16
2022-11-22,2022,6,16,2960.0,65577.5,0.0,16
2022-11-23,2022,6,16,1080.0,66657.5,0.0,16
2022-11-24,2022,6,16,-104.0,66553.5,-104.0,16
2022-11-25,2022,6,16,1056.0,67609.5,0.0,16
2022-11-27,2022,6,16,-1440.0,66169.5,-1440.0,16
2022-11-28,2022,6,16,-2088.0,64081.5,-3528.0,16
2022-11-29,2022,6,16,-328.0,63753.5,-3856.0,16
2022-11-30,2022,6,16,5680.0,69433.5,0.0,16
2022-12-01,2022,6,16,-1792.0,67641.5,-1792.0,16
2022-12-02,2022,6,16,80.0,67721.5,-1712.0,16
2022-12-04,2022,6,16,336.0,68057.5,-1376.0,16
2022-12-05,2022,6,16,-3272.0,64785.5,-4648.0,16
2022-12-06,2022,6,16,-2704.0,62081.5,-7352.0,16
2022-12-07,2022,6,16,-656.0,61425.5,-8008.0,16
2022-12-08,2022,6,16,1960.0,63385.5,-6048.0,16
2022-12-09,2022,6,16,-2920.0,60465.5,-8968.0,16
2022-12-11,2022,6,16,1968.0,62433.5,-7000.0,16
2022-12-12,2022,6,16,4336.0,66769.5,-2664.0,16
2022-12-13,2022,6,16,1704.0,68473.5,-960.0,16
2022-12-14,2022,6,16,-1808.0,66665.5,-2768.0,16
2022-12-15,2022,6,16,-6888.0,59777.5,-9656.0,16
2022-12-16,2022,6,16,16.0,59793.5,-9640.0,0
2022-12-18,2022,6,16,0.0,59793.5,-9640.0,0
2022-12-19,2022,6,16,0.0,59793.5,-9640.0,0
2022-12-20,2022,6,16,0.0,59793.5,-9640.0,0
2022-12-21,2022,6,16,0.0,59793.5,-9640.0,0
2022-12-22,2022,6,16,0.0,59793.5,-9640.0,0
2022-12-23,2022,6,16,0.0,59793.5,-9640.0,0
2022-12-26,2022,6,16,0.0,59793.5,-9640.0,0
2022-12-27,2022,6,16,0.0,59793.5,-9640.0,0
2022-12-28,2022,6,16,0.0,59793.5,-9640.0,0
2022-12-29,2022,6,16,0.0,59793.5,-9640.0,0
2022-12-30,2022,6,16,0.0,59793.5,-9640.0,0
2023-01-02,2023,11,21,0.0,59793.5,-9640.0,0
2023-01-03,2023,11,21,0.0,59793.5,-9640.0,0
2023-01-04,2023,11,21,0.0,59793.5,-9640.0,0
2023-01-05,2023,11,21,0.0,59793.5,-9640.0,0
2023-01-06,2023,11,21,0.0,59793.5,-9640.0,0
2023-01-08,2023,11,21,0.0,59793.5,-9640.0,0
2023-01-09,2023,11,21,0.0,59793.5,-9640.0,0
2023-01-10,2023,11,21,0.0,59793.5,-9640.0,0
2023-01-11,2023,11,21,0.0,59793.5,-9640.0,0
2023-01-12,2023,11,21,0.0,59793.5,-9640.0,0
2023-01-13,2023,11,21,0.0,59793.5,-9640.0,0
2023-01-15,2023,11,21,0.0,59793.5,-9640.0,0
2023-01-16,2023,11,21,0.0,59793.5,-9640.0,0
2023-01-17,2023,11,21,0.0,59793.5,-9640.0,0
2023-01-18,2023,11,21,0.0,59793.5,-9640.0,0
2023-01-19,2023,11,21,0.0,59793.5,-9640.0,0
2023-01-20,2023,11,21,0.0,59793.5,-9640.0,0
2023-01-22,2023,11,21,0.0,59793.5,-9640.0,0
2023-01-23,2023,11,21,0.0,59793.5,-9640.0,0
2023-01-24,2023,11,21,0.0,59793.5,-9640.0,0
2023-01-25,2023,11,21,0.0,59793.5,-9640.0,0
2023-01-26,2023,11,21,0.0,59793.5,-9640.0,0
2023-01-27,2023,11,21,0.0,59793.5,-9640.0,0
2023-01-29,2023,11,21,0.0,59793.5,-9640.0,0
2023-01-30,2023,11,21,0.0,59793.5,-9640.0,0
2023-01-31,2023,11,21,0.0,59793.5,-9640.0,0
2023-02-01,2023,11,21,0.0,59793.5,-9640.0,0
2023-02-02,2023,11,21,0.0,59793.5,-9640.0,0
2023-02-03,2023,11,21,0.0,59793.5,-9640.0,0
2023-02-05,2023,11,21,0.0,59793.5,-9640.0,0
2023-02-06,2023,11,21,0.0,59793.5,-9640.0,0
2023-02-07,2023,11,21,0.0,59793.5,-9640.0,0
2023-02-08,2023,11,21,0.0,59793.5,-9640.0,0
2023-02-09,2023,11,21,0.0,59793.5,-9640.0,0
2023-02-10,2023,11,21,0.0,59793.5,-9640.0,0
2023-02-12,2023,11,21,0.0,59793.5,-9640.0,0
2023-02-13,2023,11,21,0.0,59793.5,-9640.0,0
2023-02-14,2023,11,21,0.0,59793.5,-9640.0,0
2023-02-15,2023,11,21,0.0,59793.5,-9640.0,0
2023-02-16,2023,11,21,0.0,59793.5,-9640.0,0
2023-02-17,2023,11,21,0.0,59793.5,-9640.0,0
2023-02-19,2023,11,21,0.0,59793.5,-9640.0,0
2023-02-20,2023,11,21,0.0,59793.5,-9640.0,0
2023-02-21,2023,11,21,0.0,59793.5,-9640.0,0
2023-02-22,2023,11,21,0.0,59793.5,-9640.0,0
2023-02-23,2023,11,21,0.0,59793.5,-9640.0,0
2023-02-24,2023,11,21,0.0,59793.5,-9640.0,0
2023-02-26,2023,11,21,0.0,59793.5,-9640.0,0
2023-02-27,2023,11,21,0.0,59793.5,-9640.0,0
2023-02-28,2023,11,21,0.0,59793.5,-9640.0,0
2023-03-01,2023,11,21,0.0,59793.5,-9640.0,0
2023-03-02,2023,11,21,0.0,59793.5,-9640.0,0
2023-03-03,2023,11,21,0.0,59793.5,-9640.0,0
2023-03-05,2023,11,21,0.0,59793.5,-9640.0,0
2023-03-06,2023,11,21,0.0,59793.5,-9640.0,0
2023-03-07,2023,11,21,0.0,59793.5,-9640.0,0
2023-03-08,2023,11,21,0.0,59793.5,-9640.0,0
2023-03-09,2023,11,21,0.0,59793.5,-9640.0,0
2023-03-10,2023,11,21,0.0,59793.5,-9640.0,0
2023-03-12,2023,11,21,0.0,59793.5,-9640.0,0
2023-03-13,2023,11,21,0.0,59793.5,-9640.0,0
2023-03-14,2023,11,21,0.0,59793.5,-9640.0,0
2023-03-15,2023,11,21,0.0,59793.5,-9640.0,0
2023-03-16,2023,11,21,0.0,59793.5,-9640.0,0
2023-03-17,2023,11,21,0.0,59793.5,-9640.0,0
2023-03-19,2023,11,21,0.0,59793.5,-9640.0,0
2023-03-20,2023,11,21,0.0,59793.5,-9640.0,0
2023-03-21,2023,11,21,0.0,59793.5,-9640.0,0
2023-03-22,2023,11,21,0.0,59793.5,-9640.0,0
2023-03-23,2023,11,21,0.0,59793.5,-9640.0,0
2023-03-24,2023,11,21,0.0,59793.5,-9640.0,0
2023-03-26,2023,11,21,0.0,59793.5,-9640.0,0
2023-03-27,2023,11,21,0.0,59793.5,-9640.0,0
2023-03-28,2023,11,21,0.0,59793.5,-9640.0,0
2023-03-29,2023,11,21,0.0,59793.5,-9640.0,0
2023-03-30,2023,11,21,0.0,59793.5,-9640.0,0
2023-03-31,2023,11,21,2562.0,62355.5,-7078.0,12
2023-04-02,2023,11,21,-444.0,61911.5,-7522.0,12
2023-04-03,2023,11,21,1974.0,63885.5,-5548.0,12
2023-04-04,2023,11,21,-1104.0,62781.5,-6652.0,12
2023-04-05,2023,11,21,0.0,62781.5,-6652.0,12
2023-04-06,2023,11,21,102.0,62883.5,-6550.0,12
2023-04-07,2023,11,21,606.0,63489.5,-5944.0,12
2023-04-09,2023,11,21,-240.0,63249.5,-6184.0,12
2023-04-10,2023,11,21,696.0,63945.5,-5488.0,12
2023-04-11,2023,11,21,456.0,64401.5,-5032.0,12
2023-04-12,2023,11,21,-402.0,63999.5,-5434.0,12
2023-04-13,2023,11,21,2040.0,66039.5,-3394.0,12
2023-04-14,2023,11,21,-57.0,65982.5,-3451.0,21
2023-04-16,2023,11,21,21.0,66003.5,-3430.0,21
2023-04-17,2023,11,21,273.0,66276.5,-3157.0,21
2023-04-18,2023,11,21,-535.5,65741.0,-3692.5,21
2023-04-19,2023,11,21,-535.5,65205.5,-4228.0,21
2023-04-20,2023,11,21,-1218.0,63987.5,-5446.0,21
2023-04-21,2023,11,21,262.5,64250.0,-5183.5,21
2023-04-23,2023,11,21,-913.5,63336.5,-6097.0,21
2023-04-24,2023,11,21,1144.5,64481.0,-4952.5,21
2023-04-25,2023,11,21,-2772.0,61709.0,-7724.5,21
2023-04-26,2023,11,21,-2488.5,59220.5,-10213.0,21
2023-04-27,2023,11,21,4567.5,63788.0,-5645.5,21
2023-04-28,2023,11,21,3444.0,67232.0,-2201.5,21
2023-04-30,2023,11,21,-42.0,67190.0,-2243.5,21
2023-05-01,2023,11,21,-661.5,66528.5,-2905.0,21
2023-05-02,2023,11,21,-3391.5,63137.0,-6296.5,21
2023-05-03,2023,11,21,-3129.0,60008.0,-9425.5,21
2023-05-04,2023,11,21,0.0,60008.0,-9425.5,0
2023-05-05,2023,11,21,0.0,60008.0,-9425.5,0
2023-05-07,2023,11,21,0.0,60008.0,-9425.5,0
2023-05-08,2023,11,21,0.0,60008.0,-9425.5,0
2023-05-09,2023,11,21,0.0,60008.0,-9425.5,0
2023-05-10,2023,11,21,0.0,60008.0,-9425.5,0
2023-05-11,2023,11,21,0.0,60008.0,-9425.5,0
2023-05-12,2023,11,21,0.0,60008.0,-9425.5,0
2023-05-14,2023,11,21,0.0,60008.0,-9425.5,0
2023-05-15,2023,11,21,0.0,60008.0,-9425.5,0
2023-05-16,2023,11,21,0.0,60008.0,-9425.5,0
2023-05-17,2023,11,21,0.0,60008.0,-9425.5,0
2023-05-18,2023,11,21,0.0,60008.0,-9425.5,0
2023-05-19,2023,11,21,0.0,60008.0,-9425.5,0
2023-05-21,2023,11,21,0.0,60008.0,-9425.5,0
2023-05-22,2023,11,21,0.0,60008.0,-9425.5,0
2023-05-23,2023,11,21,0.0,60008.0,-9425.5,0
2023-05-24,2023,11,21,0.0,60008.0,-9425.5,0
2023-05-25,2023,11,21,0.0,60008.0,-9425.5,0
2023-05-26,2023,11,21,0.0,60008.0,-9425.5,0
2023-05-28,2023,11,21,0.0,60008.0,-9425.5,0
2023-05-29,2023,11,21,0.0,60008.0,-9425.5,0
2023-05-30,2023,11,21,0.0,60008.0,-9425.5,0
2023-05-31,2023,11,21,0.0,60008.0,-9425.5,0
2023-06-01,2023,11,21,0.0,60008.0,-9425.5,0
2023-06-02,2023,11,21,3948.0,63956.0,-5477.5,12
2023-06-04,2023,11,21,90.0,64046.0,-5387.5,12
2023-06-05,2023,11,21,-1302.0,62744.0,-6689.5,12
2023-06-06,2023,11,21,102.0,62846.0,-6587.5,12
2023-06-07,2023,11,21,180.0,63026.0,-6407.5,12
2023-06-08,2023,11,21,954.0,63980.0,-5453.5,12
2023-06-09,2023,11,21,402.0,64382.0,-5051.5,12
2023-06-11,2023,11,21,120.0,64502.0,-4931.5,12
2023-06-12,2023,11,21,3000.0,67502.0,-1931.5,12
2023-06-13,2023,11,21,234.0,67736.0,-1697.5,12
2023-06-14,2023,11,21,-1092.0,66644.0,-2789.5,12
2023-06-15,2023,11,21,2586.0,69230.0,-203.5,12
2023-06-16,2023,11,21,-856.5,68373.5,-1060.0,21
2023-06-18,2023,11,21,-546.0,67827.5,-1606.0,21
2023-06-19,2023,11,21,-682.5,67145.0,-2288.5,21
2023-06-20,2023,11,21,-1354.5,65790.5,-3643.0,21
2023-06-21,2023,11,21,-1281.0,64509.5,-4924.0,21
2023-06-22,2023,11,21,-1648.5,62861.0,-6572.5,21
2023-06-23,2023,11,21,-1092.0,61769.0,-7664.5,21
2023-06-25,2023,11,21,861.0,62630.0,-6803.5,21
2023-06-26,2023,11,21,-220.5,62409.5,-7024.0,21
2023-06-27,2023,11,21,1533.0,63942.5,-5491.0,21
2023-06-28,2023,11,21,-493.5,63449.0,-5984.5,21
2023-06-29,2023,11,21,2215.5,65664.5,-3769.0,21
2023-06-30,2023,11,21,2856.0,68520.5,-913.0,21
2023-07-02,2023,11,21,304.5,68825.0,-608.5,21
2023-07-03,2023,11,21,21.0,68846.0,-587.5,21
2023-07-04,2023,11,21,-451.5,68394.5,-1039.0,21
2023-07-05,2023,11,21,-2079.0,66315.5,-3118.0,21
2023-07-06,2023,11,21,-2824.5,63491.0,-5942.5,21
2023-07-07,2023,11,21,-1711.5,61779.5,-7654.0,21
2023-07-09,2023,11,21,-829.5,60950.0,-8483.5,21
2023-07-10,2023,11,21,2803.5,63753.5,-5680.0,21
2023-07-11,2023,11,21,3024.0,66777.5,-2656.0,21
2023-07-12,2023,11,21,1785.0,68562.5,-871.0,21
2023-07-13,2023,11,21,-808.5,67754.0,-1679.5,21
2023-07-14,2023,11,21,1260.0,69014.0,-419.5,21
2023-07-16,2023,11,21,-31.5,68982.5,-451.0,21
2023-07-17,2023,11,21,1018.5,70001.0,0.0,21
2023-07-18,2023,11,21,4252.5,74253.5,0.0,21
2023-07-19,2023,11,21,997.5,75251.0,0.0,21
2023-07-20,2023,11,21,2058.0,77309.0,0.0,21
2023-07-21,2023,11,21,-693.0,76616.0,-693.0,21
2023-07-23,2023,11,21,-31.5,76584.5,-724.5,21
2023-07-24,2023,11,21,1974.0,78558.5,0.0,21
2023-07-25,2023,11,21,52.5,78611.0,0.0,21
2023-07-26,2023,11,21,1270.5,79881.5,0.0,21
2023-07-27,2023,11,21,-2614.5,77267.0,-2614.5,21
2023-07-28,2023,11,21,1396.5,78663.5,-1218.0,21
2023-07-30,2023,11,21,-525.0,78138.5,-1743.0,21
2023-07-31,2023,11,21,1753.5,79892.0,0.0,21
2023-08-01,2023,11,21,-556.5,79335.5,-556.5,21
2023-08-02,2023,11,21,-1827.0,77508.5,-2383.5,21
2023-08-03,2023,11,21,-1008.0,76500.5,-3391.5,21
2023-08-04,2023,11,21,-2373.0,74127.5,-5764.5,21
2023-08-06,2023,11,21,1144.5,75272.0,-4620.0,21
2023-08-07,2023,11,21,2509.5,77781.5,-2110.5,21
2023-08-08,2023,11,21,-1165.5,76616.0,-3276.0,21
2023-08-09,2023,11,21,-472.5,76143.5,-3748.5,21
2023-08-10,2023,11,21,-882.0,75261.5,-4630.5,21
2023-08-11,2023,11,21,1207.5,76469.0,-3423.0,21
2023-08-13,2023,11,21,-934.5,75534.5,-4357.5,21
2023-08-14,2023,11,21,1165.5,76700.0,-3192.0,21
2023-08-15,2023,11,21,-3916.5,72783.5,-7108.5,21
2023-08-16,2023,11,21,10.5,72794.0,-7098.0,0
2023-08-17,2023,11,21,0.0,72794.0,-7098.0,0
2023-08-18,2023,11,21,0.0,72794.0,-7098.0,0
2023-08-20,2023,11,21,0.0,72794.0,-7098.0,0
2023-08-21,2023,11,21,0.0,72794.0,-7098.0,0
2023-08-22,2023,11,21,0.0,72794.0,-7098.0,0
2023-08-23,2023,11,21,0.0,72794.0,-7098.0,0
2023-08-24,2023,11,21,0.0,72794.0,-7098.0,0
2023-08-25,2023,11,21,0.0,72794.0,-7098.0,0
2023-08-27,2023,11,21,0.0,72794.0,-7098.0,0
2023-08-28,2023,11,21,0.0,72794.0,-7098.0,0
2023-08-29,2023,11,21,0.0,72794.0,-7098.0,0
2023-08-30,2023,11,21,0.0,72794.0,-7098.0,0
2023-08-31,2023,11,21,0.0,72794.0,-7098.0,0
2023-09-01,2023,11,21,0.0,72794.0,-7098.0,0
2023-09-03,2023,11,21,0.0,72794.0,-7098.0,0
2023-09-04,2023,11,21,0.0,72794.0,-7098.0,0
2023-09-05,2023,11,21,0.0,72794.0,-7098.0,0
2023-09-06,2023,11,21,0.0,72794.0,-7098.0,0
2023-09-07,2023,11,21,0.0,72794.0,-7098.0,0
2023-09-08,2023,11,21,0.0,72794.0,-7098.0,0
2023-09-10,2023,11,21,0.0,72794.0,-7098.0,0
2023-09-11,2023,11,21,0.0,72794.0,-7098.0,0
2023-09-12,2023,11,21,0.0,72794.0,-7098.0,0
2023-09-13,2023,11,21,0.0,72794.0,-7098.0,0
2023-09-14,2023,11,21,2070.0,74864.0,-5028.0,12
2023-09-15,2023,11,21,-2352.0,72512.0,-7380.0,12
2023-09-17,2023,11,21,-12.0,72500.0,-7392.0,0
2023-09-18,2023,11,21,0.0,72500.0,-7392.0,0
2023-09-19,2023,11,21,0.0,72500.0,-7392.0,0
2023-09-20,2023,11,21,0.0,72500.0,-7392.0,0
2023-09-21,2023,11,21,0.0,72500.0,-7392.0,0
2023-09-22,2023,11,21,0.0,72500.0,-7392.0,0
2023-09-24,2023,11,21,0.0,72500.0,-7392.0,0
2023-09-25,2023,11,21,0.0,72500.0,-7392.0,0
2023-09-26,2023,11,21,0.0,72500.0,-7392.0,0
2023-09-27,2023,11,21,0.0,72500.0,-7392.0,0
2023-09-28,2023,11,21,0.0,72500.0,-7392.0,0
2023-09-29,2023,11,21,0.0,72500.0,-7392.0,0
2023-10-01,2023,11,21,0.0,72500.0,-7392.0,0
2023-10-02,2023,11,21,0.0,72500.0,-7392.0,0
2023-10-03,2023,11,21,0.0,72500.0,-7392.0,0
2023-10-04,2023,11,21,0.0,72500.0,-7392.0,0
2023-10-05,2023,11,21,0.0,72500.0,-7392.0,0
2023-10-06,2023,11,21,0.0,72500.0,-7392.0,0
2023-10-08,2023,11,21,0.0,72500.0,-7392.0,0
2023-10-09,2023,11,21,0.0,72500.0,-7392.0,0
2023-10-10,2023,11,21,0.0,72500.0,-7392.0,0
2023-10-11,2023,11,21,0.0,72500.0,-7392.0,0
2023-10-12,2023,11,21,0.0,72500.0,-7392.0,0
2023-10-13,2023,11,21,0.0,72500.0,-7392.0,0
2023-10-15,2023,11,21,0.0,72500.0,-7392.0,0
2023-10-16,2023,11,21,0.0,72500.0,-7392.0,0
2023-10-17,2023,11,21,0.0,72500.0,-7392.0,0
2023-10-18,2023,11,21,0.0,72500.0,-7392.0,0
2023-10-19,2023,11,21,0.0,72500.0,-7392.0,0
2023-10-20,2023,11,21,0.0,72500.0,-7392.0,0
2023-10-22,2023,11,21,0.0,72500.0,-7392.0,0
2023-10-23,2023,11,21,0.0,72500.0,-7392.0,0
2023-10-24,2023,11,21,0.0,72500.0,-7392.0,0
2023-10-25,2023,11,21,0.0,72500.0,-7392.0,0
2023-10-26,2023,11,21,0.0,72500.0,-7392.0,0
2023-10-27,2023,11,21,0.0,72500.0,-7392.0,0
2023-10-29,2023,11,21,0.0,72500.0,-7392.0,0
2023-10-30,2023,11,21,0.0,72500.0,-7392.0,0
2023-10-31,2023,11,21,0.0,72500.0,-7392.0,0
2023-11-01,2023,11,21,0.0,72500.0,-7392.0,0
2023-11-02,2023,11,21,3456.0,75956.0,-3936.0,12
2023-11-03,2023,11,21,1284.0,77240.0,-2652.0,12
2023-11-05,2023,11,21,-30.0,77210.0,-2682.0,12
2023-11-06,2023,11,21,-480.0,76730.0,-3162.0,12
2023-11-07,2023,11,21,684.0,77414.0,-2478.0,12
2023-11-08,2023,11,21,-114.0,77300.0,-2592.0,12
2023-11-09,2023,11,21,-1074.0,76226.0,-3666.0,12
2023-11-10,2023,11,21,1644.0,77870.0,-2022.0,21
2023-11-12,2023,11,21,-903.0,76967.0,-2925.0,21
2023-11-13,2023,11,21,1816.5,78783.5,-1108.5,21
2023-11-14,2023,11,21,5817.0,84600.5,0.0,21
2023-11-15,2023,11,21,777.0,85377.5,0.0,21
2023-11-16,2023,11,21,462.0,85839.5,0.0,21
2023-11-17,2023,11,21,-724.5,85115.0,-724.5,21
2023-11-19,2023,11,21,126.0,85241.0,-598.5,21
2023-11-20,2023,11,21,2394.0,87635.0,0.0,21
2023-11-21,2023,11,21,-535.5,87099.5,-535.5,21
2023-11-22,2023,11,21,1281.0,88380.5,0.0,21
2023-11-23,2023,11,21,399.0,88779.5,0.0,21
2023-11-24,2023,11,21,1029.0,89808.5,0.0,21
2023-11-26,2023,11,21,-892.5,88916.0,-892.5,21
2023-11-27,2023,11,21,325.5,89241.5,-567.0,21
2023-11-28,2023,11,21,1249.5,90491.0,0.0,21
2023-11-29,2023,11,21,1228.5,91719.5,0.0,21
2023-11-30,2023,11,21,4357.5,96077.0,0.0,21
2023-12-01,2023,11,21,3097.5,99174.5,0.0,21
2023-12-03,2023,11,21,-220.5,98954.0,-220.5,21
2023-12-04,2023,11,21,-1039.5,97914.5,-1260.0,21
2023-12-05,2023,11,21,546.0,98460.5,-714.0,21
2023-12-06,2023,11,21,-1816.5,96644.0,-2530.5,21
2023-12-07,2023,11,21,1029.0,97673.0,-1501.5,21
2023-12-08,2023,11,21,1071.0,98744.0,-430.5,21
2023-12-10,2023,11,21,3717.0,102461.0,0.0,21
2023-12-11,2023,11,21,1890.0,104351.0,0.0,21
2023-12-12,2023,11,21,2005.5,106356.5,0.0,21
2023-12-13,2023,11,21,6111.0,112467.5,0.0,21
2023-12-14,2023,11,21,1050.0,113517.5,0.0,21
2023-12-15,2023,11,21,-283.5,113234.0,-283.5,21
2023-12-17,2023,11,21,766.5,114000.5,0.0,21
2023-12-18,2023,11,21,-724.5,113276.0,-724.5,21
2023-12-19,2023,11,21,2772.0,116048.0,0.0,21
2023-12-20,2023,11,21,-4210.5,111837.5,-4210.5,21
2023-12-21,2023,11,21,1029.0,112866.5,-3181.5,21
2023-12-22,2023,11,21,756.0,113622.5,-2425.5,21
2023-12-25,2023,11,21,829.5,114452.0,-1596.0,21
2023-12-26,2023,11,21,1123.5,115575.5,-472.5,21
2023-12-27,2023,11,21,1270.5,116846.0,0.0,21
2023-12-28,2023,11,21,367.5,117213.5,0.0,21
2023-12-29,2023,11,21,-850.5,116363.0,-850.5,21
2024-01-01,2024,31,41,1455.5,117818.5,0.0,41
2024-01-02,2024,31,41,-1312.0,116506.5,-1312.0,41
2024-01-03,2024,31,41,-5063.5,111443.0,-6375.5,41
2024-01-04,2024,31,41,266.5,111709.5,-6109.0,41
2024-01-05,2024,31,41,-574.0,111135.5,-6683.0,41
2024-01-07,2024,31,41,-2480.5,108655.0,-9163.5,41
2024-01-08,2024,31,41,6006.5,114661.5,-3157.0,41
2024-01-09,2024,31,41,-3403.0,111258.5,-6560.0,41
2024-01-10,2024,31,41,5637.5,116896.0,-922.5,41
2024-01-11,2024,31,41,-2050.0,114846.0,-2972.5,41
2024-01-12,2024,31,41,-2767.5,112078.5,-5740.0,41
2024-01-14,2024,31,41,1312.0,113390.5,-4428.0,41
2024-01-15,2024,31,41,-2931.5,110459.0,-7359.5,41
2024-01-16,2024,31,41,-3731.0,106728.0,-11090.5,41
2024-01-17,2024,31,41,-1558.0,105170.0,-12648.5,41
2024-01-18,2024,31,41,4264.0,109434.0,-8384.5,41
2024-01-19,2024,31,41,8651.0,118085.0,0.0,41
2024-01-21,2024,31,41,1127.5,119212.5,0.0,41
2024-01-22,2024,31,41,1578.5,120791.0,0.0,41
2024-01-23,2024,31,41,-1578.5,119212.5,-1578.5,41
2024-01-24,2024,31,41,-1148.0,118064.5,-2726.5,41
2024-01-25,2024,31,41,512.5,118577.0,-2214.0,41
2024-01-26,2024,31,41,3526.0,122103.0,0.0,41
2024-01-28,2024,31,41,-1004.5,121098.5,-1004.5,41
2024-01-29,2024,31,41,4899.5,125998.0,0.0,41
2024-01-30,2024,31,41,4038.5,130036.5,0.0,41
2024-01-31,2024,31,41,-6068.0,123968.5,-6068.0,41
2024-02-01,2024,31,41,6027.0,129995.5,-41.0,41
2024-02-02,2024,31,41,2255.0,132250.5,0.0,41
2024-02-04,2024,31,41,-1271.0,130979.5,-1271.0,41
2024-02-05,2024,31,41,-4366.5,126613.0,-5637.5,41
2024-02-06,2024,31,41,3259.5,129872.5,-2378.0,41
2024-02-07,2024,31,41,3218.5,133091.0,0.0,41
2024-02-08,2024,31,41,164.0,133255.0,0.0,41
2024-02-09,2024,31,41,-1476.0,131779.0,-1476.0,41
2024-02-11,2024,31,41,430.5,132209.5,-1045.5,41
2024-02-12,2024,31,41,1845.0,134054.5,0.0,41
2024-02-13,2024,31,41,-10496.0,123558.5,-10496.0,41
2024-02-14,2024,31,41,3669.5,127228.0,-6826.5,41
2024-02-15,2024,31,41,6191.0,133419.0,-635.5,41
2024-02-16,2024,31,41,-2829.0,130590.0,-3464.5,41
2024-02-18,2024,31,41,1230.0,131820.0,-2234.5,41
2024-02-19,2024,31,41,-2747.0,129073.0,-4981.5,41
2024-02-20,2024,31,41,348.5,129421.5,-4633.0,41
2024-02-21,2024,31,41,2521.5,131943.0,-2111.5,41
2024-02-22,2024,31,41,9143.0,141086.0,0.0,41
2024-02-23,2024,31,41,-410.0,140676.0,-410.0,41
2024-02-25,2024,31,41,-225.5,140450.5,-635.5,41
2024-02-26,2024,31,41,-840.5,139610.0,-1476.0,41
2024-02-27,2024,31,41,-2296.0,137314.0,-3772.0,41
2024-02-28,2024,31,41,246.0,137560.0,-3526.0,41
2024-02-29,2024,31,41,1332.5,138892.5,-2193.5,41
2024-03-01,2024,31,41,328.0,139220.5,-1865.5,41
2024-03-03,2024,31,41,82.0,139302.5,-1783.5,41
2024-03-04,2024,31,41,-2480.5,136822.0,-4264.0,41
2024-03-05,2024,31,41,-7339.0,129483.0,-11603.0,41
2024-03-06,2024,31,41,1127.5,130610.5,-10475.5,41
2024-03-07,2024,31,41,3054.5,133665.0,-7421.0,41
2024-03-08,2024,31,41,-615.0,133050.0,-8036.0,41
2024-03-10,2024,31,41,7257.0,140307.0,-779.0,41
2024-03-11,2024,31,41,2911.0,143218.0,0.0,41
2024-03-12,2024,31,41,3587.5,146805.5,0.0,41
2024-03-13,2024,31,41,1947.5,148753.0,0.0,41
2024-03-14,2024,31,41,-4182.0,144571.0,-4182.0,41
2024-03-15,2024,31,41,-4120.5,140450.5,-8302.5,41
2024-03-17,2024,31,41,533.0,140983.5,-7769.5,41
2024-03-18,2024,31,41,779.0,141762.5,-6990.5,41
2024-03-19,2024,31,41,6560.0,148322.5,-430.5,41
2024-03-20,2024,31,41,10865.0,159187.5,0.0,41
2024-03-21,2024,31,41,3423.5,162611.0,0.0,41
2024-03-22,2024,31,41,-8118.0,154493.0,-8118.0,41
2024-03-24,2024,31,41,-369.0,154124.0,-8487.0,41
2024-03-25,2024,31,41,-1783.5,152340.5,-10270.5,41
2024-03-26,2024,31,41,1414.5,153755.0,-8856.0,41
2024-03-27,2024,31,41,6601.0,160356.0,-2255.0,41
2024-03-28,2024,31,41,615.0,160971.0,-1640.0,41
2024-03-31,2024,31,41,3608.0,164579.0,0.0,41
2024-04-01,2024,31,41,-11316.0,153263.0,-11316.0,41
2024-04-02,2024,31,41,-6273.0,146990.0,-17589.0,41
2024-04-03,2024,31,41,1578.5,148568.5,-16010.5,41
2024-04-04,2024,31,41,41.0,148609.5,-15969.5,0
2024-04-05,2024,31,41,0.0,148609.5,-15969.5,0
2024-04-07,2024,31,41,0.0,148609.5,-15969.5,0
2024-04-08,2024,31,41,0.0,148609.5,-15969.5,0
2024-04-09,2024,31,41,0.0,148609.5,-15969.5,0
2024-04-10,2024,31,41,0.0,148609.5,-15969.5,0
2024-04-11,2024,31,41,0.0,148609.5,-15969.5,0
2024-04-12,2024,31,41,0.0,148609.5,-15969.5,0
2024-04-14,2024,31,41,0.0,148609.5,-15969.5,0
2024-04-15,2024,31,41,0.0,148609.5,-15969.5,0
2024-04-16,2024,31,41,0.0,148609.5,-15969.5,0
2024-04-17,2024,31,41,0.0,148609.5,-15969.5,0
2024-04-18,2024,31,41,0.0,148609.5,-15969.5,0
2024-04-19,2024,31,41,0.0,148609.5,-15969.5,0
2024-04-21,2024,31,41,0.0,148609.5,-15969.5,0
2024-04-22,2024,31,41,0.0,148609.5,-15969.5,0
2024-04-23,2024,31,41,0.0,148609.5,-15969.5,0
2024-04-24,2024,31,41,0.0,148609.5,-15969.5,0
2024-04-25,2024,31,41,0.0,148609.5,-15969.5,0
2024-04-26,2024,31,41,0.0,148609.5,-15969.5,0
2024-04-28,2024,31,41,0.0,148609.5,-15969.5,0
2024-04-29,2024,31,41,0.0,148609.5,-15969.5,0
2024-04-30,2024,31,41,0.0,148609.5,-15969.5,0
2024-05-01,2024,31,41,0.0,148609.5,-15969.5,0
2024-05-02,2024,31,41,0.0,148609.5,-15969.5,0
2024-05-03,2024,31,41,0.0,148609.5,-15969.5,0
2024-05-05,2024,31,41,0.0,148609.5,-15969.5,0
2024-05-06,2024,31,41,0.0,148609.5,-15969.5,0
2024-05-07,2024,31,41,0.0,148609.5,-15969.5,0
2024-05-08,2024,31,41,0.0,148609.5,-15969.5,0
2024-05-09,2024,31,41,6432.0,155041.5,-9537.5,32
2024-05-10,2024,31,41,800.0,155841.5,-8737.5,32
2024-05-12,2024,31,41,368.0,156209.5,-8369.5,32
2024-05-13,2024,31,41,-1424.0,154785.5,-9793.5,32
2024-05-14,2024,31,41,2640.0,157425.5,-7153.5,32
2024-05-15,2024,31,41,6496.0,163921.5,-657.5,32
2024-05-16,2024,31,41,-2176.0,161745.5,-2833.5,32
2024-05-17,2024,31,41,2478.0,164223.5,-355.5,41
2024-05-19,2024,31,41,779.0,165002.5,0.0,41
2024-05-20,2024,31,41,-4633.0,160369.5,-4633.0,41
2024-05-21,2024,31,41,1394.0,161763.5,-3239.0,41
2024-05-22,2024,31,41,-3321.0,158442.5,-6560.0,41
2024-05-23,2024,31,41,0.0,158442.5,-6560.0,0
2024-05-24,2024,31,41,0.0,158442.5,-6560.0,0
2024-05-26,2024,31,41,0.0,158442.5,-6560.0,0
2024-05-27,2024,31,41,0.0,158442.5,-6560.0,0
2024-05-28,2024,31,41,0.0,158442.5,-6560.0,0
2024-05-29,2024,31,41,0.0,158442.5,-6560.0,0
2024-05-30,2024,31,41,0.0,158442.5,-6560.0,0
2024-05-31,2024,31,41,0.0,158442.5,-6560.0,0
2024-06-02,2024,31,41,0.0,158442.5,-6560.0,0
2024-06-03,2024,31,41,0.0,158442.5,-6560.0,0
2024-06-04,2024,31,41,0.0,158442.5,-6560.0,0
2024-06-05,2024,31,41,0.0,158442.5,-6560.0,0
2024-06-06,2024,31,41,0.0,158442.5,-6560.0,0
2024-06-07,2024,31,41,0.0,158442.5,-6560.0,0
2024-06-09,2024,31,41,0.0,158442.5,-6560.0,0
2024-06-10,2024,31,41,0.0,158442.5,-6560.0,0
2024-06-11,2024,31,41,0.0,158442.5,-6560.0,0
2024-06-12,2024,31,41,0.0,158442.5,-6560.0,0
2024-06-13,2024,31,41,0.0,158442.5,-6560.0,0
2024-06-14,2024,31,41,0.0,158442.5,-6560.0,0
2024-06-16,2024,31,41,0.0,158442.5,-6560.0,0
2024-06-17,2024,31,41,4368.0,162810.5,-2192.0,32
2024-06-18,2024,31,41,-112.0,162698.5,-2304.0,32
2024-06-19,2024,31,41,0.0,162698.5,-2304.0,32
2024-06-20,2024,31,41,5200.0,167898.5,0.0,32
2024-06-21,2024,31,41,80.0,167978.5,0.0,32
2024-06-23,2024,31,41,-1312.0,166666.5,-1312.0,32
2024-06-24,2024,31,41,6608.0,173274.5,0.0,32
2024-06-25,2024,31,41,-6416.0,166858.5,-6416.0,32
2024-06-26,2024,31,41,-1520.0,165338.5,-7936.0,32
2024-06-27,2024,31,41,2144.0,167482.5,-5792.0,32
2024-06-28,2024,31,41,56.5,167539.0,-5735.5,41
2024-06-30,2024,31,41,-123.0,167416.0,-5858.5,41
2024-07-01,2024,31,41,-1496.5,165919.5,-7355.0,41
2024-07-02,2024,31,41,3956.5,169876.0,-3398.5,41
2024-07-03,2024,31,41,-184.5,169691.5,-3583.0,41
2024-07-04,2024,31,41,984.0,170675.5,-2599.0,41
2024-07-05,2024,31,41,-430.5,170245.0,-3029.5,41
2024-07-07,2024,31,41,-451.0,169794.0,-3480.5,41
2024-07-08,2024,31,41,1865.5,171659.5,-1615.0,41
2024-07-09,2024,31,41,-2972.5,168687.0,-4587.5,41
2024-07-10,2024,31,41,9409.5,178096.5,0.0,41
2024-07-11,2024,31,41,1435.0,179531.5,0.0,41
2024-07-12,2024,31,41,4448.5,183980.0,0.0,41
2024-07-14,2024,31,41,861.0,184841.0,0.0,41
2024-07-15,2024,31,41,4120.5,188961.5,0.0,41
2024-07-16,2024,31,41,14739.5,203701.0,0.0,41
2024-07-17,2024,31,41,6273.0,209974.0,0.0,41
2024-07-18,2024,31,41,-12587.0,197387.0,-12587.0,41
2024-07-19,2024,31,41,-8876.5,188510.5,-21463.5,41
2024-07-21,2024,31,41,656.0,189166.5,-20807.5,41
2024-07-22,2024,31,41,1435.0,190601.5,-19372.5,41
2024-07-23,2024,31,41,-2644.5,187957.0,-22017.0,41
2024-07-24,2024,31,41,61.5,188018.5,-21955.5,0
2024-07-25,2024,31,41,0.0,188018.5,-21955.5,0
2024-07-26,2024,31,41,0.0,188018.5,-21955.5,0
2024-07-28,2024,31,41,0.0,188018.5,-21955.5,0
2024-07-29,2024,31,41,0.0,188018.5,-21955.5,0
2024-07-30,2024,31,41,0.0,188018.5,-21955.5,0
2024-07-31,2024,31,41,0.0,188018.5,-21955.5,0
2024-08-01,2024,31,41,0.0,188018.5,-21955.5,0
2024-08-02,2024,31,41,0.0,188018.5,-21955.5,0
2024-08-04,2024,31,41,0.0,188018.5,-21955.5,0
2024-08-05,2024,31,41,0.0,188018.5,-21955.5,0
2024-08-06,2024,31,41,0.0,188018.5,-21955.5,0
2024-08-07,2024,31,41,0.0,188018.5,-21955.5,0
2024-08-08,2024,31,41,0.0,188018.5,-21955.5,0
2024-08-09,2024,31,41,0.0,188018.5,-21955.5,0
2024-08-11,2024,31,41,0.0,188018.5,-21955.5,0
2024-08-12,2024,31,41,0.0,188018.5,-21955.5,0
2024-08-13,2024,31,41,0.0,188018.5,-21955.5,0
2024-08-14,2024,31,41,0.0,188018.5,-21955.5,0
2024-08-15,2024,31,41,8928.0,196946.5,-13027.5,32
2024-08-16,2024,31,41,928.0,197874.5,-12099.5,32
2024-08-18,2024,31,41,112.0,197986.5,-11987.5,32
2024-08-19,2024,31,41,3056.0,201042.5,-8931.5,32
2024-08-20,2024,31,41,32.0,201074.5,-8899.5,32
2024-08-21,2024,31,41,-544.0,200530.5,-9443.5,32
2024-08-22,2024,31,41,-1136.0,199394.5,-10579.5,32
2024-08-23,2024,31,41,6001.5,205396.0,-4578.0,41
2024-08-25,2024,31,41,-717.5,204678.5,-5295.5,41
2024-08-26,2024,31,41,1558.0,206236.5,-3737.5,41
2024-08-27,2024,31,41,881.5,207118.0,-2856.0,41
2024-08-28,2024,31,41,-1701.5,205416.5,-4557.5,41
2024-08-29,2024,31,41,3587.5,209004.0,-970.0,41
2024-08-30,2024,31,41,3915.5,212919.5,0.0,41
2024-09-01,2024,31,41,-389.5,212530.0,-389.5,41
2024-09-02,2024,31,41,-840.5,211689.5,-1230.0,41
2024-09-03,2024,31,41,-14145.0,197544.5,-15375.0,41
2024-09-04,2024,31,41,2603.5,200148.0,-12771.5,41
2024-09-05,2024,31,41,-3362.0,196786.0,-16133.5,41
2024-09-06,2024,31,41,-61.5,196724.5,-16195.0,0
2024-09-08,2024,31,41,0.0,196724.5,-16195.0,0
2024-09-09,2024,31,41,0.0,196724.5,-16195.0,0
2024-09-10,2024,31,41,0.0,196724.5,-16195.0,0
2024-09-11,2024,31,41,0.0,196724.5,-16195.0,0
2024-09-12,2024,31,41,0.0,196724.5,-16195.0,0
2024-09-13,2024,31,41,0.0,196724.5,-16195.0,0
2024-09-15,2024,31,41,0.0,196724.5,-16195.0,0
2024-09-16,2024,31,41,2528.0,199252.5,-13667.0,32
2024-09-17,2024,31,41,800.0,200052.5,-12867.0,32
2024-09-18,2024,31,41,1744.0,201796.5,-11123.0,32
2024-09-19,2024,31,41,4032.0,205828.5,-7091.0,32
2024-09-20,2024,31,41,16.0,205844.5,-7075.0,32
2024-09-22,2024,31,41,1136.0,206980.5,-5939.0,32
2024-09-23,2024,31,41,-1328.0,205652.5,-7267.0,32
2024-09-24,2024,31,41,1344.0,206996.5,-5923.0,32
2024-09-25,2024,31,41,-2144.0,204852.5,-8067.0,32
2024-09-26,2024,31,41,2592.0,207444.5,-5475.0,32
2024-09-27,2024,31,41,1115.0,208559.5,-4360.0,41
2024-09-29,2024,31,41,1086.5,209646.0,-3273.5,41
2024-09-30,2024,31,41,-902.0,208744.0,-4175.5,41
2024-10-01,2024,31,41,-4366.5,204377.5,-8542.0,41
2024-10-02,2024,31,41,881.5,205259.0,-7660.5,41
2024-10-03,2024,31,41,-3075.0,202184.0,-10735.5,41
2024-10-04,2024,31,41,6560.0,208744.0,-4175.5,41
2024-10-06,2024,31,41,82.0,208826.0,-4093.5,41
2024-10-07,2024,31,41,-8651.0,200175.0,-12744.5,41
2024-10-08,2024,31,41,2460.0,202635.0,-10284.5,41
2024-10-09,2024,31,41,10250.0,212885.0,-34.5,41
2024-10-10,2024,31,41,-1558.0,211327.0,-1592.5,41
2024-10-11,2024,31,41,7093.0,218420.0,0.0,41
2024-10-13,2024,31,41,820.0,219240.0,0.0,41
2024-10-14,2024,31,41,5658.0,224898.0,0.0,41
2024-10-15,2024,31,41,-8302.5,216595.5,-8302.5,41
2024-10-16,2024,31,41,5494.0,222089.5,-2808.5,41
2024-10-17,2024,31,41,4038.5,226128.0,0.0,41
2024-10-18,2024,31,41,1107.0,227235.0,0.0,41
2024-10-20,2024,31,41,246.0,227481.0,0.0,41
2024-10-21,2024,31,41,-8876.5,218604.5,-8876.5,41
2024-10-22,2024,31,41,-1599.0,217005.5,-10475.5,41
2024-10-23,2024,31,41,-7421.0,209584.5,-17896.5,41
2024-10-24,2024,31,41,-1824.5,207760.0,-19721.0,41
2024-10-25,2024,31,41,61.5,207821.5,-19659.5,0
2024-10-27,2024,31,41,0.0,207821.5,-19659.5,0
2024-10-28,2024,31,41,0.0,207821.5,-19659.5,0
2024-10-29,2024,31,41,0.0,207821.5,-19659.5,0
2024-10-30,2024,31,41,0.0,207821.5,-19659.5,0
2024-10-31,2024,31,41,0.0,207821.5,-19659.5,0
2024-11-01,2024,31,41,0.0,207821.5,-19659.5,0
2024-11-03,2024,31,41,0.0,207821.5,-19659.5,0
2024-11-04,2024,31,41,0.0,207821.5,-19659.5,0
2024-11-05,2024,31,41,0.0,207821.5,-19659.5,0
2024-11-06,2024,31,41,17056.0,224877.5,-2603.5,32
2024-11-07,2024,31,41,-1776.0,223101.5,-4379.5,32
2024-11-08,2024,31,41,3904.0,227005.5,-475.5,32
2024-11-10,2024,31,41,576.0,227581.5,0.0,32
2024-11-11,2024,31,41,3456.0,231037.5,0.0,32
2024-11-12,2024,31,41,-5984.0,225053.5,-5984.0,32
2024-11-13,2024,31,41,1040.0,226093.5,-4944.0,32
2024-11-14,2024,31,41,-4560.0,221533.5,-9504.0,32
2024-11-15,2024,31,41,-3096.5,218437.0,-12600.5,41
2024-11-17,2024,31,41,-266.5,218170.5,-12867.0,41
2024-11-18,2024,31,41,615.0,218785.5,-12252.0,41
2024-11-19,2024,31,41,-2316.5,216469.0,-14568.5,41
2024-11-20,2024,31,41,184.5,216653.5,-14384.0,41
2024-11-21,2024,31,41,10086.0,226739.5,-4298.0,41
2024-11-22,2024,31,41,9368.5,236108.0,0.0,41
2024-11-24,2024,31,41,4100.0,240208.0,0.0,41
2024-11-25,2024,31,41,3854.0,244062.0,0.0,41
2024-11-26,2024,31,41,2911.0,246973.0,0.0,41
2024-11-27,2024,31,41,-1906.5,245066.5,-1906.5,41
2024-11-28,2024,31,41,1681.0,246747.5,-225.5,41
2024-11-29,2024,31,41,1845.0,248592.5,0.0,41
2024-12-01,2024,31,41,-1640.0,246952.5,-1640.0,41
2024-12-02,2024,31,41,-1599.0,245353.5,-3239.0,41
2024-12-03,2024,31,41,922.5,246276.0,-2316.5,41
2024-12-04,2024,31,41,2972.5,249248.5,0.0,41
2024-12-05,2024,31,41,-5371.0,243877.5,-5371.0,41
2024-12-06,2024,31,41,-2747.0,241130.5,-8118.0,41
2024-12-08,2024,31,41,-430.5,240700.0,-8548.5,41
2024-12-09,2024,31,41,-4305.0,236395.0,-12853.5,41
2024-12-10,2024,31,41,-2829.0,233566.0,-15682.5,41
2024-12-11,2024,31,41,-3895.0,229671.0,-19577.5,41
2024-12-12,2024,31,41,-3054.5,226616.5,-22632.0,41
2024-12-13,2024,31,41,20.5,226637.0,-22611.5,0
2024-12-15,2024,31,41,0.0,226637.0,-22611.5,0
2024-12-16,2024,31,41,0.0,226637.0,-22611.5,0
2024-12-17,2024,31,41,0.0,226637.0,-22611.5,0
2024-12-18,2024,31,41,0.0,226637.0,-22611.5,0
2024-12-19,2024,31,41,0.0,226637.0,-22611.5,0
2024-12-20,2024,31,41,0.0,226637.0,-22611.5,0
2024-12-22,2024,31,41,0.0,226637.0,-22611.5,0
2024-12-23,2024,31,41,0.0,226637.0,-22611.5,0
2024-12-24,2024,31,41,0.0,226637.0,-22611.5,0
2024-12-25,2024,31,41,0.0,226637.0,-22611.5,0
2024-12-26,2024,31,41,0.0,226637.0,-22611.5,0
2024-12-27,2024,31,41,0.0,226637.0,-22611.5,0
2024-12-29,2024,31,41,0.0,226637.0,-22611.5,0
2024-12-30,2024,31,41,0.0,226637.0,-22611.5,0
2024-12-31,2024,31,41,0.0,226637.0,-22611.5,0
2025-01-01,2025,40,50,0.0,226637.0,-22611.5,0
2025-01-02,2025,40,50,0.0,226637.0,-22611.5,0
2025-01-03,2025,40,50,0.0,226637.0,-22611.5,0
2025-01-05,2025,40,50,0.0,226637.0,-22611.5,0
2025-01-06,2025,40,50,0.0,226637.0,-22611.5,0
2025-01-07,2025,40,50,0.0,226637.0,-22611.5,0
2025-01-08,2025,40,50,0.0,226637.0,-22611.5,0
2025-01-09,2025,40,50,0.0,226637.0,-22611.5,0
2025-01-10,2025,40,50,0.0,226637.0,-22611.5,0
2025-01-12,2025,40,50,0.0,226637.0,-22611.5,0
2025-01-13,2025,40,50,0.0,226637.0,-22611.5,0
2025-01-14,2025,40,50,0.0,226637.0,-22611.5,0
2025-01-15,2025,40,50,14780.5,241417.5,-7831.0,41
2025-01-16,2025,40,50,-1455.5,239962.0,-9286.5,41
2025-01-17,2025,40,50,5207.0,245169.0,-4079.5,41
2025-01-19,2025,40,50,553.5,245722.5,-3526.0,41
2025-01-20,2025,40,50,2234.5,247957.0,-1291.5,41
2025-01-21,2025,40,50,9163.5,257120.5,0.0,41
2025-01-22,2025,40,50,1578.5,258699.0,0.0,41
2025-01-23,2025,40,50,7831.0,266530.0,0.0,41
2025-01-24,2025,40,50,-2574.0,263956.0,-2574.0,50
2025-01-26,2025,40,50,-3975.0,259981.0,-6549.0,50
2025-01-27,2025,40,50,10000.0,269981.0,0.0,50
2025-01-28,2025,40,50,4850.0,274831.0,0.0,50
2025-01-29,2025,40,50,-1075.0,273756.0,-1075.0,50
2025-01-30,2025,40,50,2850.0,276606.0,0.0,50
2025-01-31,2025,40,50,-9925.0,266681.0,-9925.0,50
2025-02-02,2025,40,50,-17000.0,249681.0,-26925.0,50
2025-02-03,2025,40,50,14300.0,263981.0,-12625.0,50
2025-02-04,2025,40,50,75.0,264056.0,-12550.0,50
2025-02-05,2025,40,50,12350.0,276406.0,-200.0,50
2025-02-06,2025,40,50,-6450.0,269956.0,-6650.0,50
2025-02-07,2025,40,50,-10300.0,259656.0,-16950.0,50
2025-02-09,2025,40,50,1775.0,261431.0,-15175.0,50
2025-02-10,2025,40,50,550.0,261981.0,-14625.0,50
2025-02-11,2025,40,50,4300.0,266281.0,-10325.0,50
2025-02-12,2025,40,50,-3500.0,262781.0,-13825.0,50
2025-02-13,2025,40,50,8025.0,270806.0,-5800.0,50
2025-02-14,2025,40,50,-5625.0,265181.0,-11425.0,50
2025-02-16,2025,40,50,975.0,266156.0,-10450.0,50
2025-02-17,2025,40,50,125.0,266281.0,-10325.0,50
2025-02-18,2025,40,50,75.0,266356.0,-10250.0,50
2025-02-19,2025,40,50,-1775.0,264581.0,-12025.0,50
2025-02-20,2025,40,50,-8800.0,255781.0,-20825.0,50
2025-02-21,2025,40,50,50.0,255831.0,-20775.0,0
2025-02-23,2025,40,50,0.0,255831.0,-20775.0,0
2025-02-24,2025,40,50,0.0,255831.0,-20775.0,0
2025-02-25,2025,40,50,0.0,255831.0,-20775.0,0
2025-02-26,2025,40,50,0.0,255831.0,-20775.0,0
2025-02-27,2025,40,50,0.0,255831.0,-20775.0,0
2025-02-28,2025,40,50,0.0,255831.0,-20775.0,0
2025-03-02,2025,40,50,0.0,255831.0,-20775.0,0
2025-03-03,2025,40,50,0.0,255831.0,-20775.0,0
2025-03-04,2025,40,50,0.0,255831.0,-20775.0,0
2025-03-05,2025,40,50,0.0,255831.0,-20775.0,0
2025-03-06,2025,40,50,0.0,255831.0,-20775.0,0
2025-03-07,2025,40,50,0.0,255831.0,-20775.0,0
2025-03-09,2025,40,50,0.0,255831.0,-20775.0,0
2025-03-10,2025,40,50,0.0,255831.0,-20775.0,0
2025-03-11,2025,40,50,0.0,255831.0,-20775.0,0
2025-03-12,2025,40,50,0.0,255831.0,-20775.0,0
2025-03-13,2025,40,50,0.0,255831.0,-20775.0,0
2025-03-14,2025,40,50,0.0,255831.0,-20775.0,0
2025-03-16,2025,40,50,0.0,255831.0,-20775.0,0
2025-03-17,2025,40,50,0.0,255831.0,-20775.0,0
2025-03-18,2025,40,50,0.0,255831.0,-20775.0,0
2025-03-19,2025,40,50,0.0,255831.0,-20775.0,0
2025-03-20,2025,40,50,0.0,255831.0,-20775.0,0
2025-03-21,2025,40,50,0.0,255831.0,-20775.0,0
2025-03-23,2025,40,50,0.0,255831.0,-20775.0,0
2025-03-24,2025,40,50,0.0,255831.0,-20775.0,0
2025-03-25,2025,40,50,0.0,255831.0,-20775.0,0
2025-03-26,2025,40,50,0.0,255831.0,-20775.0,0
2025-03-27,2025,40,50,0.0,255831.0,-20775.0,0
2025-03-28,2025,40,50,0.0,255831.0,-20775.0,0
2025-03-30,2025,40,50,0.0,255831.0,-20775.0,0
2025-03-31,2025,40,50,0.0,255831.0,-20775.0,0
2025-04-01,2025,40,50,0.0,255831.0,-20775.0,0
2025-04-02,2025,40,50,0.0,255831.0,-20775.0,0
2025-04-03,2025,40,50,0.0,255831.0,-20775.0,0
2025-04-04,2025,40,50,0.0,255831.0,-20775.0,0
2025-04-06,2025,40,50,0.0,255831.0,-20775.0,0
2025-04-07,2025,40,50,0.0,255831.0,-20775.0,0
2025-04-08,2025,40,50,0.0,255831.0,-20775.0,0
2025-04-09,2025,40,50,73287.5,329118.5,0.0,41
2025-04-10,2025,40,50,-21525.0,307593.5,-21525.0,41
2025-04-11,2025,40,50,14268.0,321861.5,-7257.0,41
2025-04-13,2025,40,50,1312.0,323173.5,-5945.0,41
2025-04-14,2025,40,50,4469.0,327642.5,-1476.0,41
2025-04-15,2025,40,50,-5965.5,321677.0,-7441.5,41
2025-04-16,2025,40,50,-6642.0,315035.0,-14083.5,41
2025-04-17,2025,40,50,-14452.5,300582.5,-28536.0,41
2025-04-20,2025,40,50,-8323.0,292259.5,-36859.0,41
2025-04-21,2025,40,50,-11336.5,280923.0,-48195.5,41
2025-04-22,2025,40,50,27839.0,308762.0,-20356.5,41
2025-04-23,2025,40,50,-2952.0,305810.0,-23308.5,41
2025-04-24,2025,40,50,13161.0,318971.0,-10147.5,41
2025-04-25,2025,40,50,-68.5,318902.5,-10216.0,50
2025-04-27,2025,40,50,-4950.0,313952.5,-15166.0,50
2025-04-28,2025,40,50,8425.0,322377.5,-6741.0,50
2025-04-29,2025,40,50,3525.0,325902.5,-3216.0,50
2025-04-30,2025,40,50,11325.0,337227.5,0.0,50
2025-05-01,2025,40,50,4900.0,342127.5,0.0,50
2025-05-02,2025,40,50,5850.0,347977.5,0.0,50
2025-05-04,2025,40,50,-7025.0,340952.5,-7025.0,50
2025-05-05,2025,40,50,3450.0,344402.5,-3575.0,50
2025-05-06,2025,40,50,-3825.0,340577.5,-7400.0,50
2025-05-07,2025,40,50,7500.0,348077.5,0.0,50
2025-05-08,2025,40,50,875.0,348952.5,0.0,50
2025-05-09,2025,40,50,-2700.0,346252.5,-2700.0,50
2025-05-11,2025,40,50,10375.0,356627.5,0.0,50
2025-05-12,2025,40,50,14850.0,371477.5,0.0,50
2025-05-13,2025,40,50,-3600.0,367877.5,-3600.0,50
2025-05-14,2025,40,50,-7025.0,360852.5,-10625.0,50
2025-05-15,2025,40,50,10925.0,371777.5,0.0,50
2025-05-16,2025,40,50,3750.0,375527.5,0.0,50
2025-05-18,2025,40,50,-3425.0,372102.5,-3425.0,50
2025-05-19,2025,40,50,10625.0,382727.5,0.0,50
2025-05-20,2025,40,50,-4375.0,378352.5,-4375.0,50
2025-05-21,2025,40,50,-17750.0,360602.5,-22125.0,50
2025-05-22,2025,40,50,325.0,360927.5,-21800.0,50
2025-05-23,2025,40,50,-7225.0,353702.5,-29025.0,50
2025-05-25,2025,40,50,9275.0,362977.5,-19750.0,50
2025-05-26,2025,40,50,-1100.0,361877.5,-20850.0,50
2025-05-27,2025,40,50,9700.0,371577.5,-11150.0,50
2025-05-28,2025,40,50,7850.0,379427.5,-3300.0,50
2025-05-29,2025,40,50,-12050.0,367377.5,-15350.0,50
2025-05-30,2025,40,50,1425.0,368802.5,-13925.0,50
2025-06-01,2025,40,50,-3400.0,365402.5,-17325.0,50
2025-06-02,2025,40,50,2075.0,367477.5,-15250.0,50
2025-06-03,2025,40,50,8650.0,376127.5,-6600.0,50
2025-06-04,2025,40,50,-2250.0,373877.5,-8850.0,50
2025-06-05,2025,40,50,250.0,374127.5,-8600.0,50
2025-06-06,2025,40,50,8550.0,382677.5,-50.0,50
2025-06-08,2025,40,50,-2200.0,380477.5,-2250.0,50
2025-06-09,2025,40,50,4425.0,384902.5,0.0,50
2025-06-10,2025,40,50,-2675.0,382227.5,-2675.0,50
2025-06-11,2025,40,50,-1425.0,380802.5,-4100.0,50
2025-06-12,2025,40,50,-8600.0,372202.5,-12700.0,50
2025-06-13,2025,40,50,-5900.0,366302.5,-18600.0,50
2025-06-15,2025,40,50,9250.0,375552.5,-9350.0,50
2025-06-16,2025,40,50,4550.0,380102.5,-4800.0,50
2025-06-17,2025,40,50,-4275.0,375827.5,-9075.0,50
2025-06-18,2025,40,50,-2450.0,373377.5,-11525.0,50
2025-06-19,2025,40,50,-1575.0,371802.5,-13100.0,50
2025-06-20,2025,40,50,4375.0,376177.5,-8725.0,50
2025-06-22,2025,40,50,-4675.0,371502.5,-13400.0,50
2025-06-23,2025,40,50,18475.0,389977.5,0.0,50
2025-06-24,2025,40,50,7425.0,397402.5,0.0,50
2025-06-25,2025,40,50,-2000.0,395402.5,-2000.0,50
2025-06-26,2025,40,50,11400.0,406802.5,0.0,50
2025-06-27,2025,40,50,11250.0,418052.5,0.0,50
2025-06-29,2025,40,50,3100.0,421152.5,0.0,50
2025-06-30,2025,40,50,-450.0,420702.5,-450.0,50
2025-07-01,2025,40,50,12900.0,433602.5,0.0,50
2025-07-02,2025,40,50,-1625.0,431977.5,-1625.0,50
2025-07-03,2025,40,50,4600.0,436577.5,0.0,50
2025-07-04,2025,40,50,-3675.0,432902.5,-3675.0,50
2025-07-06,2025,40,50,3350.0,436252.5,-325.0,50
2025-07-07,2025,40,50,-8625.0,427627.5,-8950.0,50
2025-07-08,2025,40,50,-4125.0,423502.5,-13075.0,50
2025-07-09,2025,40,50,3675.0,427177.5,-9400.0,50
2025-07-10,2025,40,50,3975.0,431152.5,-5425.0,50
2025-07-11,2025,40,50,-5300.0,425852.5,-10725.0,50
2025-07-13,2025,40,50,-3850.0,422002.5,-14575.0,50
2025-07-14,2025,40,50,6325.0,428327.5,-8250.0,50
2025-07-15,2025,40,50,-12200.0,416127.5,-20450.0,50
2025-07-16,2025,40,50,5400.0,421527.5,-15050.0,50
2025-07-17,2025,40,50,10275.0,431802.5,-4775.0,50
2025-07-18,2025,40,50,-6550.0,425252.5,-11325.0,50
2025-07-20,2025,40,50,900.0,426152.5,-10425.0,50
2025-07-21,2025,40,50,475.0,426627.5,-9950.0,50
2025-07-22,2025,40,50,5800.0,432427.5,-4150.0,50
2025-07-23,2025,40,50,6500.0,438927.5,0.0,50
2025-07-24,2025,40,50,-1375.0,437552.5,-1375.0,50
2025-07-25,2025,40,50,1425.0,438977.5,0.0,50
2025-07-27,2025,40,50,4325.0,443302.5,0.0,50
2025-07-28,2025,40,50,-5175.0,438127.5,-5175.0,50
2025-07-29,2025,40,50,-5075.0,433052.5,-10250.0,50
2025-07-30,2025,40,50,-2350.0,430702.5,-12600.0,50
2025-07-31,2025,40,50,-12775.0,417927.5,-25375.0,50
2025-08-01,2025,40,50,-75.0,417852.5,-25450.0,0
2025-08-03,2025,40,50,0.0,417852.5,-25450.0,0
2025-08-04,2025,40,50,0.0,417852.5,-25450.0,0
2025-08-05,2025,40,50,0.0,417852.5,-25450.0,0
2025-08-06,2025,40,50,0.0,417852.5,-25450.0,0
2025-08-07,2025,40,50,0.0,417852.5,-25450.0,0
2025-08-08,2025,40,50,0.0,417852.5,-25450.0,0
2025-08-10,2025,40,50,0.0,417852.5,-25450.0,0
2025-08-11,2025,40,50,0.0,417852.5,-25450.0,0
2025-08-12,2025,40,50,0.0,417852.5,-25450.0,0
2025-08-13,2025,40,50,0.0,417852.5,-25450.0,0
2025-08-14,2025,40,50,5494.0,423346.5,-19956.0,41
2025-08-15,2025,40,50,-5576.0,417770.5,-25532.0,41
2025-08-17,2025,40,50,123.0,417893.5,-25409.0,0
2025-08-18,2025,40,50,-3034.0,414859.5,-28443.0,41
2025-08-19,2025,40,50,41.0,414900.5,-28402.0,0
2025-08-20,2025,40,50,0.0,414900.5,-28402.0,0
2025-08-21,2025,40,50,0.0,414900.5,-28402.0,0
2025-08-22,2025,40,50,0.0,414900.5,-28402.0,0
2025-08-24,2025,40,50,-1250.5,413650.0,-29652.5,41
2025-08-25,2025,40,50,-7605.5,406044.5,-37258.0,41
2025-08-26,2025,40,50,4879.0,410923.5,-32379.0,41
2025-08-27,2025,40,50,3977.0,414900.5,-28402.0,41
2025-08-28,2025,40,50,-1763.0,413137.5,-30165.0,41
2025-08-29,2025,40,50,-164.0,412973.5,-30329.0,41
2025-08-31,2025,40,50,-635.5,412338.0,-30964.5,41
2025-09-01,2025,40,50,-184.5,412153.5,-31149.0,41
2025-09-02,2025,40,50,-7810.5,404343.0,-38959.5,41
2025-09-03,2025,40,50,1107.0,405450.0,-37852.5,41
2025-09-04,2025,40,50,8897.0,414347.0,-28955.5,41
2025-09-05,2025,40,50,-4777.0,409570.0,-33732.5,50
2025-09-07,2025,40,50,1025.0,410595.0,-32707.5,50
2025-09-08,2025,40,50,2950.0,413545.0,-29757.5,50
2025-09-09,2025,40,50,2175.0,415720.0,-27582.5,50
2025-09-10,2025,40,50,-3475.0,412245.0,-31057.5,50
2025-09-11,2025,40,50,14450.0,426695.0,-16607.5,50
2025-09-12,2025,40,50,-7350.0,419345.0,-23957.5,50
2025-09-14,2025,40,50,8975.0,428320.0,-14982.5,50
2025-09-15,2025,40,50,1775.0,430095.0,-13207.5,50
2025-09-16,2025,40,50,-4925.0,425170.0,-18132.5,50
2025-09-17,2025,40,50,10325.0,435495.0,-7807.5,50
2025-09-18,2025,40,50,1525.0,437020.0,-6282.5,50
2025-09-19,2025,40,50,1175.0,438195.0,-5107.5,50
2025-09-21,2025,40,50,-200.0,437995.0,-5307.5,50
2025-09-22,2025,40,50,3050.0,441045.0,-2257.5,50
2025-09-23,2025,40,50,-1000.0,440045.0,-3257.5,50
2025-09-24,2025,40,50,-3775.0,436270.0,-7032.5,50
2025-09-25,2025,40,50,-6425.0,429845.0,-13457.5,50
2025-09-26,2025,40,50,7075.0,436920.0,-6382.5,50
2025-09-28,2025,40,50,2850.0,439770.0,-3532.5,50
2025-09-29,2025,40,50,-1725.0,438045.0,-5257.5,50
2025-09-30,2025,40,50,-2625.0,435420.0,-7882.5,50
2025-10-01,2025,40,50,5350.0,440770.0,-2532.5,50
2025-10-02,2025,40,50,4350.0,445120.0,0.0,50
2025-10-03,2025,40,50,3850.0,448970.0,0.0,50
2025-10-05,2025,40,50,2200.0,451170.0,0.0,50
2025-10-06,2025,40,50,-6575.0,444595.0,-6575.0,50
2025-10-07,2025,40,50,1025.0,445620.0,-5550.0,50
2025-10-08,2025,40,50,-2300.0,443320.0,-7850.0,50
2025-10-09,2025,40,50,-4275.0,439045.0,-12125.0,50
2025-10-10,2025,40,50,25.0,439070.0,-12100.0,0
2025-10-12,2025,40,50,0.0,439070.0,-12100.0,0
2025-10-13,2025,40,50,0.0,439070.0,-12100.0,0
2025-10-14,2025,40,50,0.0,439070.0,-12100.0,0
2025-10-15,2025,40,50,0.0,439070.0,-12100.0,0
2025-10-16,2025,40,50,0.0,439070.0,-12100.0,0
2025-10-17,2025,40,50,0.0,439070.0,-12100.0,0
2025-10-19,2025,40,50,0.0,439070.0,-12100.0,0
2025-10-20,2025,40,50,0.0,439070.0,-12100.0,0
2025-10-21,2025,40,50,0.0,439070.0,-12100.0,0
2025-10-22,2025,40,50,0.0,439070.0,-12100.0,0
2025-10-23,2025,40,50,0.0,439070.0,-12100.0,0
2025-10-24,2025,40,50,8466.5,447536.5,-3633.5,41
2025-10-26,2025,40,50,5576.0,453112.5,0.0,41
2025-10-27,2025,40,50,1148.0,454260.5,0.0,41
2025-10-28,2025,40,50,2665.0,456925.5,0.0,41
2025-10-29,2025,40,50,738.0,457663.5,0.0,41
2025-10-30,2025,40,50,-3649.0,454014.5,-3649.0,41
2025-10-31,2025,40,50,574.0,454588.5,-3075.0,41
2025-11-02,2025,40,50,881.5,455470.0,-2193.5,41
2025-11-03,2025,40,50,-9594.0,445876.0,-11787.5,41
2025-11-04,2025,40,50,-1332.5,444543.5,-13120.0,41
2025-11-05,2025,40,50,3854.0,448397.5,-9266.0,41
2025-11-06,2025,40,50,-7585.0,440812.5,-16851.0,41
2025-11-07,2025,40,50,2780.5,443593.0,-14070.5,50
2025-11-09,2025,40,50,0.0,443593.0,-14070.5,50
2025-11-10,2025,40,50,7800.0,451393.0,-6270.5,50
2025-11-11,2025,40,50,14875.0,466268.0,0.0,50
2025-11-12,2025,40,50,10275.0,476543.0,0.0,50
2025-11-13,2025,40,50,-23175.0,453368.0,-23175.0,50
2025-11-14,2025,40,50,-6900.0,446468.0,-30075.0,50
2025-11-16,2025,40,50,75.0,446543.0,-30000.0,50
2025-11-17,2025,40,50,0.0,446543.0,-30000.0,0
2025-11-18,2025,40,50,0.0,446543.0,-30000.0,0
2025-11-19,2025,40,50,0.0,446543.0,-30000.0,0
2025-11-20,2025,40,50,0.0,446543.0,-30000.0,0
2025-11-21,2025,40,50,0.0,446543.0,-30000.0,0
2025-11-23,2025,40,50,0.0,446543.0,-30000.0,0
2025-11-24,2025,40,50,0.0,446543.0,-30000.0,0
2025-11-25,2025,40,50,0.0,446543.0,-30000.0,0
2025-11-26,2025,40,50,0.0,446543.0,-30000.0,0
2025-11-27,2025,40,50,0.0,446543.0,-30000.0,0
2025-11-28,2025,40,50,0.0,446543.0,-30000.0,0
2025-11-30,2025,40,50,0.0,446543.0,-30000.0,0
2025-12-01,2025,40,50,0.0,446543.0,-30000.0,0
2025-12-02,2025,40,50,0.0,446543.0,-30000.0,0
2025-12-03,2025,40,50,7318.5,453861.5,-22681.5,41
2025-12-04,2025,40,50,-1558.0,452303.5,-24239.5,41
2025-12-05,2025,40,50,1414.5,453718.0,-22825.0,41
2025-12-07,2025,40,50,143.5,453861.5,-22681.5,41
2025-12-08,2025,40,50,-4448.5,449413.0,-27130.0,41
2025-12-09,2025,40,50,-3239.0,446174.0,-30369.0,41
2025-12-10,2025,40,50,0.0,446174.0,-30369.0,0
2025-12-11,2025,40,50,19147.0,465321.0,-11222.0,41
2025-12-12,2025,40,50,-6724.0,458597.0,-17946.0,41
2025-12-14,2025,40,50,10373.0,468970.0,-7573.0,41
2025-12-15,2025,40,50,-6129.5,462840.5,-13702.5,41
2025-12-16,2025,40,50,-6293.5,456547.0,-19996.0,41
2025-12-17,2025,40,50,-4182.0,452365.0,-24178.0,41
2025-12-18,2025,40,50,389.5,452754.5,-23788.5,41
2025-12-19,2025,40,50,5453.0,458207.5,-18335.5,50
2025-12-21,2025,40,50,250.0,458457.5,-18085.5,50
2025-12-22,2025,40,50,3575.0,462032.5,-14510.5,50
2025-12-23,2025,40,50,2000.0,464032.5,-12510.5,50
2025-12-24,2025,40,50,7425.0,471457.5,-5085.5,50
2025-12-25,2025,40,50,375.0,471832.5,-4710.5,50
2025-12-26,2025,40,50,-750.0,471082.5,-5460.5,50
2025-12-28,2025,40,50,-250.0,470832.5,-5710.5,50
2025-12-29,2025,40,50,-6000.0,464832.5,-11710.5,50
2025-12-30,2025,40,50,-3175.0,461657.5,-14885.5,50
2025-12-31,2025,40,50,-7125.0,454532.5,-22010.5,50
2026-01-01,2026,40,50,2675.0,457207.5,-19335.5,50
2026-01-02,2026,40,50,3700.0,460907.5,-15635.5,50
2026-01-04,2026,40,50,825.0,461732.5,-14810.5,50
2026-01-05,2026,40,50,15350.0,477082.5,0.0,50
2026-01-06,2026,40,50,13775.0,490857.5,0.0,50
2026-01-07,2026,40,50,-16025.0,474832.5,-16025.0,50
2026-01-08,2026,40,50,8600.0,483432.5,-7425.0,50
2026-01-09,2026,40,50,5825.0,489257.5,-1600.0,50
2026-01-11,2026,40,50,-6375.0,482882.5,-7975.0,50
2026-01-12,2026,40,50,8025.0,490907.5,0.0,50
2026-01-13,2026,40,50,-13075.0,477832.5,-13075.0,50
2026-01-14,2026,40,50,650.0,478482.5,-12425.0,50
2026-01-15,2026,40,50,11100.0,489582.5,-1325.0,50
2026-01-16,2026,40,50,-4775.0,484807.5,-6100.0,50
2026-01-18,2026,40,50,-9475.0,475332.5,-15575.0,50
2026-01-19,2026,40,50,-2400.0,472932.5,-17975.0,50
2026-01-20,2026,40,50,-7900.0,465032.5,-25875.0,50
2026-01-21,2026,40,50,14800.0,479832.5,-11075.0,50
2026-01-22,2026,40,50,6000.0,485832.5,-5075.0,50
2026-01-23,2026,40,50,-10425.0,475407.5,-15500.0,50
2026-01-25,2026,40,50,-1100.0,474307.5,-16600.0,50
2026-01-26,2026,40,50,9550.0,483857.5,-7050.0,50
2026-01-27,2026,40,50,-9300.0,474557.5,-16350.0,50
2026-01-28,2026,40,50,-525.0,474032.5,-16875.0,50
2026-01-29,2026,40,50,-3650.0,470382.5,-20525.0,50
2026-01-30,2026,40,50,75.0,470457.5,-20450.0,50
2026-02-01,2026,40,50,-8300.0,462157.5,-28750.0,50
2026-02-02,2026,40,50,22950.0,485107.5,-5800.0,50
2026-02-03,2026,40,50,-4125.0,480982.5,-9925.0,50
2026-02-04,2026,40,50,3250.0,484232.5,-6675.0,50
2026-02-05,2026,40,50,-16450.0,467782.5,-23125.0,50
2026-02-06,2026,40,50,33175.0,500957.5,0.0,50
2026-02-08,2026,40,50,2000.0,502957.5,0.0,50
2026-02-09,2026,40,50,-1125.0,501832.5,-1125.0,50
2026-02-10,2026,40,50,3900.0,505732.5,0.0,50
2026-02-11,2026,40,50,-1050.0,504682.5,-1050.0,50
2026-02-12,2026,40,50,-21325.0,483357.5,-22375.0,50
2026-02-13,2026,40,50,675.0,484032.5,-21700.0,50
2026-02-15,2026,40,50,2900.0,486932.5,-18800.0,50
2026-02-16,2026,40,50,-5350.0,481582.5,-24150.0,50
2026-02-17,2026,40,50,5550.0,487132.5,-18600.0,50
2026-02-18,2026,40,50,1250.0,488382.5,-17350.0,50
2026-02-19,2026,40,50,-4500.0,483882.5,-21850.0,50
2026-02-20,2026,40,50,4025.0,487907.5,-17825.0,50
2026-02-22,2026,40,50,-8075.0,479832.5,-25900.0,50
2026-02-23,2026,40,50,-10550.0,469282.5,-36450.0,50
2026-02-24,2026,40,50,7425.0,476707.5,-29025.0,50
2026-02-25,2026,40,50,5325.0,482032.5,-23700.0,50
2026-02-26,2026,40,50,-3800.0,478232.5,-27500.0,50
2026-02-27,2026,40,50,-9650.0,468582.5,-37150.0,50
2026-03-01,2026,40,50,-9775.0,458807.5,-46925.0,0
2026-03-02,2026,40,50,0.0,458807.5,-46925.0,0
2026-03-03,2026,40,50,0.0,458807.5,-46925.0,0
2026-03-04,2026,40,50,0.0,458807.5,-46925.0,0
2026-03-05,2026,40,50,0.0,458807.5,-46925.0,0
2026-03-06,2026,40,50,0.0,458807.5,-46925.0,0
2026-03-08,2026,40,50,0.0,458807.5,-46925.0,0
