date,realized_points,open_unrealized_points,total_equity_points,open_units
2019-05-05,0.0,0.0,0.0,0
2019-05-06,0.0,0.0,0.0,0
2019-05-07,0.0,0.0,0.0,0
2019-05-08,0.0,0.0,0.0,0
2019-05-09,0.0,0.0,0.0,0
2019-05-10,0.0,0.0,0.0,0
2019-05-12,0.0,0.0,0.0,0
2019-05-13,0.0,0.0,0.0,0
2019-05-14,0.0,0.0,0.0,0
2019-05-15,0.0,0.0,0.0,0
2019-05-16,0.0,0.0,0.0,0
2019-05-17,0.0,0.0,0.0,0
2019-05-19,0.0,0.0,0.0,0
2019-05-20,0.0,0.0,0.0,0
2019-05-21,0.0,0.0,0.0,0
2019-05-22,0.0,0.0,0.0,0
2019-05-23,0.0,0.0,0.0,0
2019-05-24,0.0,0.0,0.0,0
2019-05-26,0.0,0.0,0.0,0
2019-05-27,0.0,0.0,0.0,0
2019-05-28,0.0,0.0,0.0,0
2019-05-29,0.0,0.0,0.0,0
2019-05-30,0.0,0.0,0.0,0
2019-05-31,0.0,0.0,0.0,0
2019-06-02,0.0,0.0,0.0,0
2019-06-03,0.0,0.0,0.0,0
2019-06-04,0.0,0.0,0.0,0
2019-06-05,0.0,0.0,0.0,0
2019-06-06,0.0,0.0,0.0,0
2019-06-07,0.0,0.0,0.0,0
2019-06-09,0.0,-5.25,-5.25,1
2019-06-10,0.0,46.5,46.5,1
2019-06-11,0.0,53.0,53.0,1
2019-06-12,0.0,28.75,28.75,1
2019-06-13,0.0,34.5,34.5,1
2019-06-14,0.0,16.5,16.5,2
2019-06-16,0.0,100.5,100.5,2
2019-06-17,0.0,174.0,174.0,2
2019-06-18,0.0,418.5,418.5,2
2019-06-19,0.0,503.0,503.0,2
2019-06-20,0.0,576.0,576.0,2
2019-06-21,0.0,518.75,518.75,3
2019-06-23,0.0,590.0,590.0,3
2019-06-24,0.0,556.25,556.25,3
2019-06-25,0.0,158.0,158.0,3
2019-06-26,0.0,240.5,240.5,3
2019-06-27,0.0,366.5,366.5,3
2019-06-28,0.0,501.0,501.0,4
2019-06-30,0.0,815.0,815.0,4
2019-07-01,0.0,715.0,715.0,4
2019-07-02,0.0,947.0,947.0,4
2019-07-03,0.0,1165.0,1165.0,4
2019-07-04,0.0,1222.0,1222.0,4
2019-07-05,0.0,1013.5,1013.5,5
2019-07-07,0.0,953.5,953.5,5
2019-07-08,0.0,709.75,709.75,5
2019-07-09,0.0,974.75,974.75,5
2019-07-10,0.0,1376.0,1376.0,5
2019-07-11,0.0,1348.5,1348.5,5
2019-07-12,0.0,1529.75,1529.75,6
2019-07-14,0.0,1493.75,1493.75,6
2019-07-15,0.0,1748.75,1748.75,6
2019-07-16,0.0,1430.75,1430.75,6
2019-07-17,0.0,1019.75,1019.75,6
2019-07-18,0.0,1456.25,1456.25,6
2019-07-19,0.0,653.75,653.75,7
2019-07-21,0.0,877.75,877.75,7
2019-07-22,0.0,1422.0,1422.0,7
2019-07-23,0.0,1595.25,1595.25,7
2019-07-24,0.0,2038.0,2038.0,7
2019-07-25,0.0,1870.0,1870.0,7
2019-07-26,0.0,2005.0,2005.0,8
2019-07-28,0.0,2029.0,2029.0,8
2019-07-29,0.0,1965.0,1965.0,8
2019-07-30,0.0,1801.0,1801.0,8
2019-07-31,0.0,585.0,585.0,8
2019-08-01,0.0,171.0,171.0,8
2019-08-02,0.0,-449.0,-449.0,8
2019-08-04,-467.0,0.0,-467.0,0
2019-08-05,-467.0,0.0,-467.0,0
2019-08-06,-467.0,0.0,-467.0,0
2019-08-07,-467.0,0.0,-467.0,0
2019-08-08,-467.0,0.0,-467.0,0
2019-08-09,-467.0,0.0,-467.0,0
2019-08-11,-467.0,0.0,-467.0,0
2019-08-12,-467.0,0.0,-467.0,0
2019-08-13,-467.0,0.0,-467.0,0
2019-08-14,-467.0,0.0,-467.0,0
2019-08-15,-467.0,0.0,-467.0,0
2019-08-16,-467.0,0.0,-467.0,0
2019-08-18,-467.0,0.0,-467.0,0
2019-08-19,-467.0,0.0,-467.0,0
2019-08-20,-467.0,0.0,-467.0,0
2019-08-21,-467.0,0.0,-467.0,0
2019-08-22,-467.0,0.0,-467.0,0
2019-08-23,-467.0,0.0,-467.0,0
2019-08-25,-467.0,0.0,-467.0,0
2019-08-26,-467.0,0.0,-467.0,0
2019-08-27,-467.0,0.0,-467.0,0
2019-08-28,-467.0,0.0,-467.0,0
2019-08-29,-467.0,0.0,-467.0,0
2019-08-30,-467.0,0.0,-467.0,0
2019-09-01,-467.0,0.0,-467.0,0
2019-09-02,-467.0,0.0,-467.0,0
2019-09-03,-467.0,0.0,-467.0,0
2019-09-04,-467.0,0.0,-467.0,0
2019-09-05,-467.0,0.0,-467.0,0
2019-09-06,-467.0,-5.25,-472.25,2
2019-09-08,-467.0,-7.75,-474.75,2
2019-09-09,-467.0,-49.75,-516.75,2
2019-09-10,-467.0,-113.75,-580.75,2
2019-09-11,-467.0,168.25,-298.75,2
2019-09-12,-467.0,131.25,-335.75,2
2019-09-13,-467.0,79.75,-387.25,3
2019-09-15,-467.0,-136.25,-603.25,3
2019-09-16,-467.0,1.0,-466.0,3
2019-09-17,-467.0,79.75,-387.25,3
2019-09-18,-467.0,64.0,-403.0,3
2019-09-19,-467.0,127.0,-340.0,3
2019-09-20,-467.0,-166.75,-633.75,4
2019-09-22,-467.0,10.25,-456.75,4
2019-09-23,-467.0,45.25,-421.75,4
2019-09-24,-467.0,-484.75,-951.75,4
2019-09-25,-467.0,-230.75,-697.75,4
2019-09-26,-467.0,-386.75,-853.75,4
2019-09-27,-467.0,-605.0,-1072.0,5
2019-09-29,-467.0,-566.25,-1033.25,5
2019-09-30,-467.0,-276.25,-743.25,5
2019-10-01,-467.0,-572.5,-1039.5,5
2019-10-02,-467.0,-1387.5,-1854.5,5
2019-10-03,-1852.0,0.0,-1852.0,0
2019-10-04,-1852.0,0.0,-1852.0,0
2019-10-06,-1852.0,0.0,-1852.0,0
2019-10-07,-1852.0,0.0,-1852.0,0
2019-10-08,-1852.0,0.0,-1852.0,0
2019-10-09,-1852.0,0.0,-1852.0,0
2019-10-10,-1852.0,0.0,-1852.0,0
2019-10-11,-1852.0,0.0,-1852.0,0
2019-10-13,-1852.0,0.0,-1852.0,0
2019-10-14,-1852.0,0.0,-1852.0,0
2019-10-15,-1852.0,0.0,-1852.0,0
2019-10-16,-1852.0,0.0,-1852.0,0
2019-10-17,-1852.0,0.0,-1852.0,0
2019-10-18,-1852.0,0.0,-1852.0,0
2019-10-20,-1852.0,0.0,-1852.0,0
2019-10-21,-1852.0,0.0,-1852.0,0
2019-10-22,-1852.0,0.0,-1852.0,0
2019-10-23,-1852.0,0.0,-1852.0,0
2019-10-24,-1852.0,0.0,-1852.0,0
2019-10-25,-1852.0,0.0,-1852.0,0
2019-10-27,-1852.0,9.0,-1843.0,1
2019-10-28,-1852.0,64.75,-1787.25,1
2019-10-29,-1852.0,11.0,-1841.0,1
2019-10-30,-1852.0,75.25,-1776.75,1
2019-10-31,-1852.0,41.5,-1810.5,1
2019-11-01,-1852.0,133.0,-1719.0,2
2019-11-03,-1852.0,160.5,-1691.5,2
2019-11-04,-1852.0,286.5,-1565.5,2
2019-11-05,-1852.0,233.5,-1618.5,2
2019-11-06,-1852.0,213.5,-1638.5,2
2019-11-07,-1852.0,281.5,-1570.5,2
2019-11-08,-1852.0,339.0,-1513.0,3
2019-11-10,-1852.0,315.75,-1536.25,3
2019-11-11,-1852.0,291.0,-1561.0,3
2019-11-12,-1852.0,352.5,-1499.5,3
2019-11-13,-1852.0,351.75,-1500.25,3
2019-11-14,-1852.0,373.5,-1478.5,3
2019-11-15,-1852.0,545.75,-1306.25,4
2019-11-17,-1852.0,491.75,-1360.25,4
2019-11-18,-1852.0,561.75,-1290.25,4
2019-11-19,-1852.0,521.75,-1330.25,4
2019-11-20,-1852.0,331.75,-1520.25,4
2019-11-21,-1852.0,330.75,-1521.25,4
2019-11-22,-1852.0,394.5,-1457.5,5
2019-11-24,-1852.0,518.25,-1333.75,5
2019-11-25,-1852.0,862.0,-990.0,5
2019-11-26,-1852.0,992.0,-860.0,5
2019-11-27,-1852.0,1112.0,-740.0,5
2019-11-28,-1852.0,1230.75,-621.25,5
2019-11-29,-1852.0,1090.75,-761.25,6
2019-12-01,-1852.0,1149.25,-702.75,6
2019-12-02,-1852.0,388.75,-1463.25,6
2019-12-03,-1852.0,133.75,-1718.25,6
2019-12-04,-1852.0,307.75,-1544.25,6
2019-12-05,-1852.0,451.75,-1400.25,6
2019-12-06,-1852.0,983.5,-868.5,7
2019-12-08,-1852.0,992.25,-859.75,7
2019-12-09,-1852.0,668.5,-1183.5,7
2019-12-10,-1852.0,687.75,-1164.25,7
2019-12-11,-1852.0,1064.0,-788.0,7
2019-12-12,-1852.0,1674.75,-177.25,7
2019-12-13,-1852.0,1818.75,-33.25,8
2019-12-15,-1852.0,1924.75,72.75,8
2019-12-16,-1852.0,2430.75,578.75,8
2019-12-17,-1852.0,2466.75,614.75,8
2019-12-18,-1852.0,2616.75,764.75,8
2019-12-19,-1852.0,3080.75,1228.75,8
2019-12-20,-1852.0,3334.5,1482.5,9
2019-12-22,-1852.0,3442.5,1590.5,9
2019-12-23,-1852.0,3505.5,1653.5,9
2019-12-24,-1852.0,3512.25,1660.25,9
2019-12-25,-1852.0,3514.5,1662.5,9
2019-12-26,-1852.0,4214.25,2362.25,9
2019-12-27,-1852.0,3954.25,2102.25,10
2019-12-29,-1852.0,4144.25,2292.25,10
2019-12-30,-1852.0,3516.75,1664.75,10
2019-12-31,-1852.0,3881.75,2029.75,10
2020-01-01,-1852.0,3926.75,2074.75,10
2020-01-02,-1852.0,5154.25,3302.25,10
2020-01-03,-1852.0,4258.75,2406.75,11
2020-01-05,-1852.0,3904.0,2052.0,11
2020-01-06,-1852.0,4685.0,2833.0,11
2020-01-07,-1852.0,3618.0,1766.0,11
2020-01-08,-1852.0,5818.0,3966.0,11
2020-01-09,-1852.0,6516.5,4664.5,11
2020-01-10,-1852.0,6115.25,4263.25,12
2020-01-12,-1852.0,6226.25,4374.25,12
2020-01-13,-1852.0,7636.25,5784.25,12
2020-01-14,-1852.0,6748.25,4896.25,12
2020-01-15,-1852.0,7267.25,5415.25,12
2020-01-16,-1852.0,8125.25,6273.25,12
2020-01-17,-1852.0,8431.75,6579.75,13
2020-01-19,-1852.0,8607.25,6755.25,13
2020-01-20,-1852.0,8415.5,6563.5,13
2020-01-21,-1852.0,8522.75,6670.75,13
2020-01-22,-1852.0,8578.0,6726.0,13
2020-01-23,-1852.0,9715.5,7863.5,13
2020-01-24,-1852.0,7983.75,6131.75,14
2020-01-26,-1852.0,6265.25,4413.25,14
2020-01-27,-1852.0,5764.75,3912.75,14
2020-01-28,-1852.0,7462.25,5610.25,14
2020-01-29,-1852.0,7766.75,5914.75,14
2020-01-30,-1852.0,9114.25,7262.25,14
2020-01-31,-1852.0,6260.5,4408.5,15
2020-02-02,-1852.0,6376.75,4524.75,15
2020-02-03,-1852.0,7419.25,5567.25,15
2020-02-04,-1852.0,11143.0,9291.0,15
2020-02-05,-1852.0,11788.0,9936.0,15
2020-02-06,-1852.0,13074.25,11222.25,15
2020-02-07,-1852.0,12061.0,10209.0,16
2020-02-09,-1852.0,11361.0,9509.0,16
2020-02-10,-1852.0,14065.0,12213.0,16
2020-02-11,-1852.0,14321.0,12469.0,16
2020-02-12,-1852.0,14885.0,13033.0,16
2020-02-13,-1852.0,15417.0,13565.0,16
2020-02-14,-1852.0,15766.0,13914.0,17
2020-02-16,-1852.0,16331.25,14479.25,17
2020-02-17,-1852.0,15290.0,13438.0,17
2020-02-18,-1852.0,16335.5,14483.5,17
2020-02-19,-1852.0,17708.25,15856.25,17
2020-02-20,-1852.0,14780.0,12928.0,17
2020-02-21,-1852.0,12808.75,10956.75,18
2020-02-23,-1852.0,10171.75,8319.75,18
2020-02-24,8324.25,0.0,8324.25,0
2020-02-25,8324.25,0.0,8324.25,0
2020-02-26,8324.25,0.0,8324.25,0
2020-02-27,8324.25,0.0,8324.25,0
2020-02-28,8324.25,0.0,8324.25,0
2020-03-01,8324.25,0.0,8324.25,0
2020-03-02,8324.25,0.0,8324.25,0
2020-03-03,8324.25,0.0,8324.25,0
2020-03-04,8324.25,0.0,8324.25,0
2020-03-05,8324.25,0.0,8324.25,0
2020-03-06,8324.25,0.0,8324.25,0
2020-03-08,8324.25,0.0,8324.25,0
2020-03-09,8324.25,0.0,8324.25,0
2020-03-10,8324.25,0.0,8324.25,0
2020-03-11,8324.25,0.0,8324.25,0
2020-03-12,8324.25,0.0,8324.25,0
2020-03-13,8324.25,0.0,8324.25,0
2020-03-15,8324.25,0.0,8324.25,0
2020-03-16,8324.25,0.0,8324.25,0
2020-03-17,8324.25,0.0,8324.25,0
2020-03-18,8324.25,0.0,8324.25,0
2020-03-19,8324.25,0.0,8324.25,0
2020-03-20,8324.25,0.0,8324.25,0
2020-03-22,8324.25,0.0,8324.25,0
2020-03-23,8324.25,0.0,8324.25,0
2020-03-24,8324.25,0.0,8324.25,0
2020-03-25,8324.25,0.0,8324.25,0
2020-03-26,8324.25,0.0,8324.25,0
2020-03-27,8324.25,0.0,8324.25,0
2020-03-29,8324.25,0.0,8324.25,0
2020-03-30,8324.25,0.0,8324.25,0
2020-03-31,8324.25,0.0,8324.25,0
2020-04-01,8324.25,0.0,8324.25,0
2020-04-02,8324.25,0.0,8324.25,0
2020-04-03,8324.25,0.0,8324.25,0
2020-04-05,8324.25,0.0,8324.25,0
2020-04-06,8324.25,0.0,8324.25,0
2020-04-07,8324.25,0.0,8324.25,0
2020-04-08,8324.25,0.0,8324.25,0
2020-04-09,8324.25,13.25,8337.5,1
2020-04-12,8324.25,-108.25,8216.0,1
2020-04-13,8324.25,139.0,8463.25,1
2020-04-14,8324.25,447.0,8771.25,1
2020-04-15,8324.25,306.25,8630.5,1
2020-04-16,8324.25,706.75,9031.0,1
2020-04-17,8324.25,599.0,8923.25,2
2020-04-19,8324.25,477.0,8801.25,2
2020-04-20,8324.25,443.5,8767.75,2
2020-04-21,8324.25,-101.0,8223.25,2
2020-04-22,8324.25,216.0,8540.25,2
2020-04-23,8324.25,87.5,8411.75,2
2020-04-24,8324.25,511.5,8835.75,3
2020-04-26,8324.25,470.25,8794.5,3
2020-04-27,8324.25,680.25,9004.5,3
2020-04-28,8324.25,513.0,8837.25,3
2020-04-29,8324.25,1482.75,9807.0,3
2020-04-30,8324.25,724.5,9048.75,3
2020-05-01,8324.25,297.75,8622.0,4
2020-05-03,8324.25,-178.25,8146.0,4
2020-05-04,8324.25,784.75,9109.0,4
2020-05-05,8324.25,1314.75,9639.0,4
2020-05-06,8324.25,1348.75,9673.0,4
2020-05-07,8324.25,2054.75,10379.0,4
2020-05-08,8324.25,2390.5,10714.75,5
2020-05-10,8324.25,2551.75,10876.0,5
2020-05-11,8324.25,2670.5,10994.75,5
2020-05-12,8324.25,1355.5,9679.75,5
2020-05-13,8324.25,1341.75,9666.0,5
2020-05-14,8324.25,1823.0,10147.25,5
2020-05-15,8324.25,1882.25,10206.5,6
2020-05-17,8324.25,2152.25,10476.5,6
2020-05-18,8324.25,3229.25,11553.5,6
2020-05-19,8324.25,3073.25,11397.5,6
2020-05-20,8324.25,4078.25,12402.5,6
2020-05-21,8324.25,3580.25,11904.5,6
2020-05-22,8324.25,3721.25,12045.5,7
2020-05-24,8324.25,3954.0,12278.25,7
2020-05-25,8324.25,4333.75,12658.0,7
2020-05-26,8324.25,3523.5,11847.75,7
2020-05-27,8324.25,3857.75,12182.0,7
2020-05-28,8324.25,3689.75,12014.0,7
2020-05-29,8324.25,4952.0,13276.25,8
2020-05-31,8324.25,4298.0,12622.25,8
2020-06-01,8324.25,4766.0,13090.25,8
2020-06-02,8324.25,5640.0,13964.25,8
2020-06-03,8324.25,5814.0,14138.25,8
2020-06-04,8324.25,5190.0,13514.25,8
2020-06-05,8324.25,6702.75,15027.0,9
2020-06-07,8324.25,7272.0,15596.25,9
2020-06-08,8324.25,7355.25,15679.5,9
2020-06-09,8324.25,8338.5,16662.75,9
2020-06-10,8324.25,8826.75,17151.0,9
2020-06-11,8324.25,5544.0,13868.25,9
2020-06-12,8324.25,5193.75,13518.0,10
2020-06-14,8324.25,4153.75,12478.0,10
2020-06-15,8324.25,7423.75,15748.0,10
2020-06-16,8324.25,8611.25,16935.5,10
2020-06-17,8324.25,8266.25,16590.5,10
2020-06-18,8324.25,8978.75,17303.0,10
2020-06-19,8324.25,7954.5,16278.75,11
2020-06-21,8324.25,7740.0,16064.25,11
2020-06-22,8324.25,10432.25,18756.5,11
2020-06-23,8324.25,10773.25,19097.5,11
2020-06-24,8324.25,8493.5,16817.75,11
2020-06-25,8324.25,9953.75,18278.0,11
2020-06-26,8324.25,7034.5,15358.75,12
2020-06-28,8324.25,6830.5,15154.75,12
2020-06-29,8324.25,8819.5,17143.75,12
2020-06-30,8324.25,9323.5,17647.75,12
2020-07-01,8324.25,12140.5,20464.75,12
2020-07-02,8324.25,13106.5,21430.75,12
2020-07-03,8324.25,12809.5,21133.75,13
2020-07-05,8324.25,13690.25,22014.5,13
2020-07-06,8324.25,16901.25,25225.5,13
2020-07-07,8324.25,15734.5,24058.75,13
2020-07-08,8324.25,17453.75,25778.0,13
2020-07-09,8324.25,18386.5,26710.75,13
2020-07-10,8324.25,19561.0,27885.25,14
2020-07-12,8324.25,20037.0,28361.25,14
2020-07-13,8324.25,16799.5,25123.75,14
2020-07-14,8324.25,17807.5,26131.75,14
2020-07-15,8324.25,16824.0,25148.25,14
2020-07-16,8324.25,15697.0,24021.25,14
2020-07-17,8324.25,16472.75,24797.0,15
2020-07-19,8324.25,16832.75,25157.0,15
2020-07-20,8324.25,21366.5,29690.75,15
2020-07-21,8324.25,20219.0,28543.25,15
2020-07-22,8324.25,19465.25,27789.5,15
2020-07-23,8324.25,15861.5,24185.75,15
2020-07-24,8324.25,14068.25,22392.5,16
2020-07-26,8324.25,13684.25,22008.5,16
2020-07-27,8324.25,17836.25,26160.5,16
2020-07-28,8324.25,15684.25,24008.5,16
2020-07-29,8324.25,17532.25,25856.5,16
2020-07-30,8324.25,21148.25,29472.5,16
2020-07-31,8324.25,21357.25,29681.5,17
2020-08-02,8324.25,21293.5,29617.75,17
2020-08-03,8324.25,23414.25,31738.5,17
2020-08-04,8324.25,24047.5,32371.75,17
2020-08-05,8324.25,24311.0,32635.25,17
2020-08-06,8324.25,27086.25,35410.5,17
2020-08-07,8324.25,25017.0,33341.25,18
2020-08-09,8324.25,24589.5,32913.75,18
2020-08-10,8324.25,23991.0,32315.25,18
2020-08-11,8324.25,21268.5,29592.75,18
2020-08-12,8324.25,25030.5,33354.75,18
2020-08-13,8324.25,26353.5,34677.75,18
2020-08-14,8324.25,25303.25,33627.5,19
2020-08-16,8324.25,25602.5,33926.75,19
2020-08-17,8324.25,28329.0,36653.25,19
2020-08-18,8324.25,30447.5,38771.75,19
2020-08-19,8324.25,28053.5,36377.75,19
2020-08-20,8324.25,32024.5,40348.75,19
2020-08-21,8324.25,33252.25,41576.5,20
2020-08-23,8324.25,33662.25,41986.5,20
2020-08-24,8324.25,34927.25,43251.5,20
2020-08-25,8324.25,36927.25,45251.5,20
2020-08-26,8324.25,41347.25,49671.5,20
2020-08-27,8324.25,41377.25,49701.5,20
2020-08-28,8324.25,42075.5,50399.75,21
2020-08-30,8324.25,42999.5,51323.75,21
2020-08-31,8324.25,44627.0,52951.25,21
2020-09-01,8324.25,49567.25,57891.5,21
2020-09-02,8324.25,50853.5,59177.75,21
2020-09-03,8324.25,33617.75,41942.0,21
2020-09-04,41947.25,0.0,41947.25,0
2020-09-06,41947.25,0.0,41947.25,0
2020-09-07,41947.25,0.0,41947.25,0
2020-09-08,41947.25,0.0,41947.25,0
2020-09-09,41947.25,0.0,41947.25,0
2020-09-10,41947.25,0.0,41947.25,0
2020-09-11,41947.25,0.0,41947.25,0
2020-09-13,41947.25,0.0,41947.25,0
2020-09-14,41947.25,0.0,41947.25,0
2020-09-15,41947.25,0.0,41947.25,0
2020-09-16,41947.25,0.0,41947.25,0
2020-09-17,41947.25,0.0,41947.25,0
2020-09-18,41947.25,0.0,41947.25,0
2020-09-20,41947.25,0.0,41947.25,0
2020-09-21,41947.25,0.0,41947.25,0
2020-09-22,41947.25,0.0,41947.25,0
2020-09-23,41947.25,0.0,41947.25,0
2020-09-24,41947.25,0.0,41947.25,0
2020-09-25,41947.25,0.0,41947.25,0
2020-09-27,41947.25,0.0,41947.25,0
2020-09-28,41947.25,0.0,41947.25,0
2020-09-29,41947.25,0.0,41947.25,0
2020-09-30,41947.25,0.0,41947.25,0
2020-10-01,41947.25,0.0,41947.25,0
2020-10-02,41947.25,0.0,41947.25,0
2020-10-04,41947.25,0.0,41947.25,0
2020-10-05,41947.25,0.0,41947.25,0
2020-10-06,41947.25,0.0,41947.25,0
2020-10-07,41947.25,0.0,41947.25,0
2020-10-08,41947.25,0.0,41947.25,0
2020-10-09,41947.25,0.0,41947.25,0
2020-10-11,41947.25,0.0,41947.25,0
2020-10-12,41947.25,365.75,42313.0,1
2020-10-13,41947.25,371.25,42318.5,1
2020-10-14,41947.25,217.5,42164.75,1
2020-10-15,41947.25,172.0,42119.25,1
2020-10-16,41947.25,-34.75,41912.5,2
2020-10-18,41947.25,124.75,42072.0,2
2020-10-19,41947.25,-191.25,41756.0,2
2020-10-20,41947.25,-213.75,41733.5,2
2020-10-21,41947.25,-370.75,41576.5,2
2020-10-22,41947.25,-291.75,41655.5,2
2020-10-23,41947.25,-275.75,41671.5,3
2020-10-25,41947.25,-402.5,41544.75,3
2020-10-26,41947.25,-816.5,41130.75,3
2020-10-27,41947.25,-671.0,41276.25,3
2020-10-28,41947.25,-1716.5,40230.75,3
2020-10-29,40230.0,0.0,40230.0,0
2020-10-30,40230.0,0.0,40230.0,0
2020-11-01,40230.0,0.0,40230.0,0
2020-11-02,40230.0,0.0,40230.0,0
2020-11-03,40230.0,0.0,40230.0,0
2020-11-04,40230.0,0.0,40230.0,0
2020-11-05,40230.0,272.25,40502.25,1
2020-11-06,40230.0,291.0,40521.0,2
2020-11-08,40230.0,566.5,40796.5,2
2020-11-09,40230.0,-190.0,40040.0,2
2020-11-10,40230.0,-703.5,39526.5,2
2020-11-11,40230.0,-105.5,40124.5,2
2020-11-12,40230.0,-195.5,40034.5,2
2020-11-13,40230.0,6.75,40236.75,3
2020-11-15,40230.0,304.5,40534.5,3
2020-11-16,40230.0,314.25,40544.25,3
2020-11-17,40230.0,105.75,40335.75,3
2020-11-18,40230.0,-190.5,40039.5,3
2020-11-19,40230.0,-19.5,40210.5,3
2020-11-20,40230.0,-134.75,40095.25,4
2020-11-22,40230.0,-53.75,40176.25,4
2020-11-23,40230.0,28.25,40258.25,4
2020-11-24,40230.0,725.25,40955.25,4
2020-11-25,40230.0,939.25,41169.25,4
2020-11-26,40230.0,839.25,41069.25,4
2020-11-27,40230.0,1315.25,41545.25,5
2020-11-29,40230.0,1531.5,41761.5,5
2020-11-30,40230.0,1691.5,41921.5,5
2020-12-01,40230.0,2201.5,42431.5,5
2020-12-02,40230.0,2277.75,42507.75,5
2020-12-03,40230.0,2372.75,42602.75,5
2020-12-04,40230.0,2498.75,42728.75,6
2020-12-06,40230.0,2705.75,42935.75,6
2020-12-07,40230.0,2888.75,43118.75,6
2020-12-08,40230.0,3320.75,43550.75,6
2020-12-09,40230.0,1616.75,41846.75,6
2020-12-10,40230.0,1856.75,42086.75,6
2020-12-11,40230.0,1662.0,41892.0,7
2020-12-13,40230.0,2012.0,42242.0,7
2020-12-14,40230.0,2453.0,42683.0,7
2020-12-15,40230.0,3261.5,43491.5,7
2020-12-16,40230.0,3875.75,44105.75,7
2020-12-17,40230.0,4346.5,44576.5,7
2020-12-18,40230.0,4444.25,44674.25,8
2020-12-20,40230.0,4450.25,44680.25,8
2020-12-21,40230.0,4068.25,44298.25,8
2020-12-22,40230.0,4220.25,44450.25,8
2020-12-23,40230.0,3696.25,43926.25,8
2020-12-24,40230.0,4090.25,44320.25,8
2020-12-27,40230.0,4332.25,44562.25,8
2020-12-28,40230.0,5272.25,45502.25,8
2020-12-29,40230.0,5214.25,45444.25,8
2020-12-30,40230.0,5246.25,45476.25,8
2020-12-31,40230.0,5532.25,45762.25,8
2021-01-03,40230.0,5368.25,45598.25,8
2021-01-04,40230.0,3856.25,44086.25,8
2021-01-05,40230.0,4816.25,45046.25,8
2021-01-06,40230.0,3840.25,44070.25,8
2021-01-07,40230.0,5964.25,46194.25,8
2021-01-08,40230.0,7498.75,47728.75,9
2021-01-10,40230.0,7120.75,47350.75,9
2021-01-11,40230.0,5676.25,45906.25,9
2021-01-12,40230.0,5449.0,45679.0,9
2021-01-13,40230.0,6108.25,46338.25,9
2021-01-14,40230.0,5631.25,45861.25,9
2021-01-15,40230.0,4205.5,44435.5,10
2021-01-17,40230.0,4028.0,44258.0,10
2021-01-18,40230.0,4883.0,45113.0,10
2021-01-19,40230.0,7065.5,47295.5,10
2021-01-20,40230.0,9713.0,49943.0,10
2021-01-21,40230.0,10405.5,50635.5,10
2021-01-22,40230.0,10054.0,50284.0,11
2021-01-24,40230.0,10562.75,50792.75,11
2021-01-25,40230.0,11266.75,51496.75,11
2021-01-26,40230.0,12336.5,52566.5,11
2021-01-27,40230.0,5942.75,46172.75,11
2021-01-28,40230.0,7689.0,47919.0,11
2021-01-29,40230.0,4763.0,44993.0,11
2021-01-31,44756.5,0.0,44756.5,0
2021-02-01,44756.5,0.0,44756.5,0
2021-02-02,44756.5,0.0,44756.5,0
2021-02-03,44756.5,0.0,44756.5,0
2021-02-04,44756.5,0.0,44756.5,0
2021-02-05,44756.5,77.0,44833.5,2
2021-02-07,44756.5,147.0,44903.5,2
2021-02-08,44756.5,232.5,44989.0,2
2021-02-09,44756.5,244.5,45001.0,2
2021-02-10,44756.5,177.0,44933.5,2
2021-02-11,44756.5,331.5,45088.0,2
2021-02-12,44756.5,552.25,45308.75,3
2021-02-14,44756.5,564.25,45320.75,3
2021-02-15,44756.5,661.0,45417.5,3
2021-02-16,44756.5,281.5,45038.0,3
2021-02-17,44756.5,196.0,44952.5,3
2021-02-18,44756.5,-66.5,44690.0,3
2021-02-19,44756.5,-214.5,44542.0,4
2021-02-21,44756.5,-134.5,44622.0,4
2021-02-22,44756.5,-1588.5,43168.0,4
2021-02-23,43168.0,0.0,43168.0,0
2021-02-24,43168.0,0.0,43168.0,0
2021-02-25,43168.0,0.0,43168.0,0
2021-02-26,43168.0,0.0,43168.0,0
2021-02-28,43168.0,0.0,43168.0,0
2021-03-01,43168.0,0.0,43168.0,0
2021-03-02,43168.0,0.0,43168.0,0
2021-03-03,43168.0,0.0,43168.0,0
2021-03-04,43168.0,0.0,43168.0,0
2021-03-05,43168.0,0.0,43168.0,0
2021-03-07,43168.0,0.0,43168.0,0
2021-03-08,43168.0,0.0,43168.0,0
2021-03-09,43168.0,0.0,43168.0,0
2021-03-10,43168.0,0.0,43168.0,0
2021-03-11,43168.0,0.0,43168.0,0
2021-03-12,43168.0,0.0,43168.0,0
2021-03-14,43168.0,0.0,43168.0,0
2021-03-15,43168.0,0.0,43168.0,0
2021-03-16,43168.0,0.0,43168.0,0
2021-03-17,43168.0,0.0,43168.0,0
2021-03-18,43168.0,0.0,43168.0,0
2021-03-19,43168.0,0.0,43168.0,0
2021-03-21,43168.0,0.0,43168.0,0
2021-03-22,43168.0,0.0,43168.0,0
2021-03-23,43168.0,0.0,43168.0,0
2021-03-24,43168.0,0.0,43168.0,0
2021-03-25,43168.0,0.0,43168.0,0
2021-03-26,43168.0,0.0,43168.0,0
2021-03-28,43168.0,0.0,43168.0,0
2021-03-29,43168.0,0.0,43168.0,0
2021-03-30,43168.0,0.0,43168.0,0
2021-03-31,43168.0,0.0,43168.0,0
2021-04-01,43168.0,0.0,43168.0,0
2021-04-02,43168.0,0.0,43168.0,0
2021-04-04,43168.0,0.0,43168.0,0
2021-04-05,43168.0,0.0,43168.0,0
2021-04-06,43168.0,-21.5,43146.5,1
2021-04-07,43168.0,22.25,43190.25,1
2021-04-08,43168.0,186.25,43354.25,1
2021-04-09,43168.0,188.25,43356.25,2
2021-04-11,43168.0,128.25,43296.25,2
2021-04-12,43168.0,205.25,43373.25,2
2021-04-13,43168.0,504.25,43672.25,2
2021-04-14,43168.0,193.75,43361.75,2
2021-04-15,43168.0,591.25,43759.25,2
2021-04-16,43168.0,611.0,43779.0,3
2021-04-18,43168.0,517.25,43685.25,3
2021-04-19,43168.0,296.0,43464.0,3
2021-04-20,43168.0,-217.75,42950.25,3
2021-04-21,43168.0,194.0,43362.0,3
2021-04-22,43168.0,-177.25,42990.75,3
2021-04-23,43168.0,213.75,43381.75,4
2021-04-25,43168.0,232.75,43400.75,4
2021-04-26,43168.0,701.75,43869.75,4
2021-04-27,43168.0,443.75,43611.75,4
2021-04-28,43168.0,479.75,43647.75,4
2021-04-29,43168.0,254.75,43422.75,4
2021-04-30,43168.0,63.25,43231.25,5
2021-05-02,43168.0,134.5,43302.5,5
2021-05-03,43168.0,-419.25,42748.75,5
2021-05-04,43168.0,-1641.75,41526.25,5
2021-05-05,43168.0,-1763.0,41405.0,5
2021-05-06,43168.0,-1205.5,41962.5,5
2021-05-07,43168.0,-695.5,42472.5,6
2021-05-09,43168.0,-568.0,42600.0,6
2021-05-10,43168.0,-2993.5,40174.5,6
2021-05-11,40170.0,0.0,40170.0,0
2021-05-12,40170.0,0.0,40170.0,0
2021-05-13,40170.0,0.0,40170.0,0
2021-05-14,40170.0,0.0,40170.0,0
2021-05-16,40170.0,0.0,40170.0,0
2021-05-17,40170.0,0.0,40170.0,0
2021-05-18,40170.0,0.0,40170.0,0
2021-05-19,40170.0,0.0,40170.0,0
2021-05-20,40170.0,0.0,40170.0,0
2021-05-21,40170.0,0.0,40170.0,0
2021-05-23,40170.0,0.0,40170.0,0
2021-05-24,40170.0,0.0,40170.0,0
2021-05-25,40170.0,0.0,40170.0,0
2021-05-26,40170.0,0.0,40170.0,0
2021-05-27,40170.0,0.0,40170.0,0
2021-05-28,40170.0,0.0,40170.0,0
2021-05-30,40170.0,0.0,40170.0,0
2021-05-31,40170.0,0.0,40170.0,0
2021-06-01,40170.0,0.0,40170.0,0
2021-06-02,40170.0,0.0,40170.0,0
2021-06-03,40170.0,0.0,40170.0,0
2021-06-04,40170.0,0.0,40170.0,0
2021-06-06,40170.0,-4.5,40165.5,1
2021-06-07,40170.0,50.75,40220.75,1
2021-06-08,40170.0,45.0,40215.0,1
2021-06-09,40170.0,43.0,40213.0,1
2021-06-10,40170.0,195.75,40365.75,1
2021-06-11,40170.0,232.5,40402.5,2
2021-06-13,40170.0,282.0,40452.0,2
2021-06-14,40170.0,475.5,40645.5,2
2021-06-15,40170.0,325.5,40495.5,2
2021-06-16,40170.0,36.0,40206.0,2
2021-06-17,40170.0,614.0,40784.0,2
2021-06-18,40170.0,254.25,40424.25,3
2021-06-20,40170.0,315.0,40485.0,3
2021-06-21,40170.0,605.25,40775.25,3
2021-06-22,40170.0,1017.75,41187.75,3
2021-06-23,40170.0,1059.0,41229.0,3
2021-06-24,40170.0,1239.75,41409.75,3
2021-06-25,40170.0,1201.75,41371.75,4
2021-06-27,40170.0,1295.75,41465.75,4
2021-06-28,40170.0,1843.75,42013.75,4
2021-06-29,40170.0,2227.75,42397.75,4
2021-06-30,40170.0,2118.75,42288.75,4
2021-07-01,40170.0,2008.75,42178.75,4
2021-07-02,40170.0,2663.75,42833.75,5
2021-07-04,40170.0,2733.75,42903.75,5
2021-07-05,40170.0,2732.5,42902.5,5
2021-07-06,40170.0,2985.0,43155.0,5
2021-07-07,40170.0,3212.5,43382.5,5
2021-07-08,40170.0,2621.25,42791.25,5
2021-07-09,40170.0,3230.75,43400.75,6
2021-07-11,40170.0,3320.75,43490.75,6
2021-07-12,40170.0,3622.25,43792.25,6
2021-07-13,40170.0,3413.75,43583.75,6
2021-07-14,40170.0,3769.25,43939.25,6
2021-07-15,40170.0,2885.75,43055.75,6
2021-07-16,40170.0,2377.0,42547.0,7
2021-07-18,40170.0,2184.5,42354.5,7
2021-07-19,40170.0,1811.75,41981.75,7
2021-07-20,40170.0,2886.25,43056.25,7
2021-07-21,40170.0,3533.75,43703.75,7
2021-07-22,40170.0,4480.5,44650.5,7
2021-07-23,40170.0,5316.25,45486.25,8
2021-07-25,40170.0,5544.25,45714.25,8
2021-07-26,40170.0,5468.25,45638.25,8
2021-07-27,40170.0,3938.25,44108.25,8
2021-07-28,40170.0,4482.25,44652.25,8
2021-07-29,40170.0,3536.25,43706.25,8
2021-07-30,40170.0,4333.25,44503.25,9
2021-08-01,40170.0,4643.75,44813.75,9
2021-08-02,40170.0,4279.25,44449.25,9
2021-08-03,40170.0,4907.0,45077.0,9
2021-08-04,40170.0,5381.75,45551.75,9
2021-08-05,40170.0,6072.5,46242.5,9
2021-08-06,40170.0,5474.75,45644.75,10
2021-08-08,40170.0,4767.25,44937.25,10
2021-08-09,40170.0,5734.75,45904.75,10
2021-08-10,40170.0,4902.25,45072.25,10
2021-08-11,40170.0,4504.75,44674.75,10
2021-08-12,40170.0,5224.75,45394.75,10
2021-08-13,40170.0,5792.75,45962.75,11
2021-08-15,40170.0,5685.5,45855.5,11
2021-08-16,40170.0,5867.0,46037.0,11
2021-08-17,40170.0,3958.5,44128.5,11
2021-08-18,40170.0,2732.0,42902.0,11
2021-08-19,40170.0,3515.75,43685.75,11
2021-08-20,40170.0,5484.25,45654.25,12
2021-08-22,40170.0,5631.25,45801.25,12
2021-08-23,40170.0,8298.25,48468.25,12
2021-08-24,40170.0,8637.25,48807.25,12
2021-08-25,40170.0,8685.25,48855.25,12
2021-08-26,40170.0,7683.25,47853.25,12
2021-08-27,40170.0,9475.5,49645.5,13
2021-08-29,40170.0,9794.0,49964.0,13
2021-08-30,40170.0,11688.75,51858.75,13
2021-08-31,40170.0,11672.5,51842.5,13
2021-09-01,40170.0,11952.0,52122.0,13
2021-09-02,40170.0,11672.5,51842.5,13
2021-09-03,40170.0,12414.25,52584.25,14
2021-09-05,40170.0,12368.75,52538.75,14
2021-09-06,40170.0,12914.75,53084.75,14
2021-09-07,40170.0,12533.25,52703.25,14
2021-09-08,40170.0,11665.25,51835.25,14
2021-09-09,40170.0,11161.25,51331.25,14
2021-09-10,40170.0,9386.75,49556.75,15
2021-09-12,40170.0,10088.0,50258.0,15
2021-09-13,40170.0,9499.25,49669.25,15
2021-09-14,40170.0,8925.5,49095.5,15
2021-09-15,40170.0,10346.75,50516.75,15
2021-09-16,40170.0,10043.0,50213.0,15
2021-09-17,40170.0,7072.25,47242.25,16
2021-09-19,47242.25,0.0,47242.25,0
2021-09-20,47242.25,0.0,47242.25,0
2021-09-21,47242.25,0.0,47242.25,0
2021-09-22,47242.25,0.0,47242.25,0
2021-09-23,47242.25,0.0,47242.25,0
2021-09-24,47242.25,0.0,47242.25,0
2021-09-26,47242.25,0.0,47242.25,0
2021-09-27,47242.25,0.0,47242.25,0
2021-09-28,47242.25,0.0,47242.25,0
2021-09-29,47242.25,0.0,47242.25,0
2021-09-30,47242.25,0.0,47242.25,0
2021-10-01,47242.25,0.0,47242.25,0
2021-10-03,47242.25,0.0,47242.25,0
2021-10-04,47242.25,0.0,47242.25,0
2021-10-05,47242.25,0.0,47242.25,0
2021-10-06,47242.25,0.0,47242.25,0
2021-10-07,47242.25,0.0,47242.25,0
2021-10-08,47242.25,0.0,47242.25,0
2021-10-10,47242.25,0.0,47242.25,0
2021-10-11,47242.25,0.0,47242.25,0
2021-10-12,47242.25,0.0,47242.25,0
2021-10-13,47242.25,0.0,47242.25,0
2021-10-14,47242.25,0.0,47242.25,0
2021-10-15,47242.25,0.0,47242.25,0
2021-10-17,47242.25,0.0,47242.25,0
2021-10-18,47242.25,0.0,47242.25,0
2021-10-19,47242.25,117.0,47359.25,1
2021-10-20,47242.25,43.0,47285.25,1
2021-10-21,47242.25,99.5,47341.75,1
2021-10-22,47242.25,15.75,47258.0,2
2021-10-24,47242.25,-19.75,47222.5,2
2021-10-25,47242.25,445.75,47688.0,2
2021-10-26,47242.25,487.75,47730.0,2
2021-10-27,47242.25,620.25,47862.5,2
2021-10-28,47242.25,712.25,47954.5,2
2021-10-29,47242.25,1173.5,48415.75,3
2021-10-31,47242.25,1208.0,48450.25,3
2021-11-01,47242.25,1195.25,48437.5,3
2021-11-02,47242.25,1394.75,48637.0,3
2021-11-03,47242.25,2124.5,49366.75,3
2021-11-04,47242.25,2587.25,49829.5,3
2021-11-05,47242.25,2592.25,49834.5,4
2021-11-07,47242.25,2468.25,49710.5,4
2021-11-08,47242.25,2462.25,49704.5,4
2021-11-09,47242.25,1962.25,49204.5,4
2021-11-10,47242.25,1181.25,48423.5,4
2021-11-11,47242.25,1477.25,48719.5,4
2021-11-12,47242.25,2046.75,49289.0,5
2021-11-14,47242.25,2169.25,49411.5,5
2021-11-15,47242.25,1986.75,49229.0,5
2021-11-16,47242.25,2564.25,49806.5,5
2021-11-17,47242.25,2685.5,49927.75,5
2021-11-18,47242.25,3518.0,50760.25,5
2021-11-19,47242.25,3995.0,51237.25,6
2021-11-21,47242.25,3998.0,51240.25,6
2021-11-22,47242.25,2846.0,50088.25,6
2021-11-23,47242.25,2184.5,49426.75,6
2021-11-24,47242.25,2612.0,49854.25,6
2021-11-25,47242.25,2691.5,49933.75,6
2021-11-26,47242.25,734.0,47976.25,6
2021-11-28,47985.25,0.0,47985.25,0
2021-11-29,47985.25,0.0,47985.25,0
2021-11-30,47985.25,0.0,47985.25,0
2021-12-01,47985.25,0.0,47985.25,0
2021-12-02,47985.25,0.0,47985.25,0
2021-12-03,47985.25,0.0,47985.25,0
2021-12-05,47985.25,0.0,47985.25,0
2021-12-06,47985.25,0.0,47985.25,0
2021-12-07,47985.25,0.0,47985.25,0
2021-12-08,47985.25,0.0,47985.25,0
2021-12-09,47985.25,0.0,47985.25,0
2021-12-10,47985.25,0.0,47985.25,0
2021-12-12,47985.25,0.0,47985.25,0
2021-12-13,47985.25,0.0,47985.25,0
2021-12-14,47985.25,0.0,47985.25,0
2021-12-15,47985.25,0.0,47985.25,0
2021-12-16,47985.25,0.0,47985.25,0
2021-12-17,47985.25,0.0,47985.25,0
2021-12-19,47985.25,0.0,47985.25,0
2021-12-20,47985.25,0.0,47985.25,0
2021-12-21,47985.25,0.0,47985.25,0
2021-12-22,47985.25,0.0,47985.25,0
2021-12-23,47985.25,0.0,47985.25,0
2021-12-26,47985.25,0.0,47985.25,0
2021-12-27,47985.25,0.0,47985.25,0
2021-12-28,47985.25,-15.75,47969.5,1
2021-12-29,47985.25,-91.75,47893.5,1
2021-12-30,47985.25,-116.75,47868.5,1
2021-12-31,47985.25,-253.5,47731.75,2
2022-01-02,47985.25,-152.0,47833.25,2
2022-01-03,47985.25,47.5,48032.75,2
2022-01-04,47985.25,-454.5,47530.75,2
2022-01-05,47985.25,-1351.5,46633.75,2
2022-01-06,47985.25,-1285.5,46699.75,2
2022-01-07,47985.25,-1775.0,46210.25,2
2022-01-09,46243.75,0.0,46243.75,0
2022-01-10,46243.75,0.0,46243.75,0
2022-01-11,46243.75,0.0,46243.75,0
2022-01-12,46243.75,0.0,46243.75,0
2022-01-13,46243.75,0.0,46243.75,0
2022-01-14,46243.75,0.0,46243.75,0
2022-01-16,46243.75,0.0,46243.75,0
2022-01-17,46243.75,0.0,46243.75,0
2022-01-18,46243.75,0.0,46243.75,0
2022-01-19,46243.75,0.0,46243.75,0
2022-01-20,46243.75,0.0,46243.75,0
2022-01-21,46243.75,0.0,46243.75,0
2022-01-23,46243.75,0.0,46243.75,0
2022-01-24,46243.75,0.0,46243.75,0
2022-01-25,46243.75,0.0,46243.75,0
2022-01-26,46243.75,0.0,46243.75,0
2022-01-27,46243.75,0.0,46243.75,0
2022-01-28,46243.75,0.0,46243.75,0
2022-01-30,46243.75,0.0,46243.75,0
2022-01-31,46243.75,0.0,46243.75,0
2022-02-01,46243.75,0.0,46243.75,0
2022-02-02,46243.75,0.0,46243.75,0
2022-02-03,46243.75,0.0,46243.75,0
2022-02-04,46243.75,0.0,46243.75,0
2022-02-06,46243.75,0.0,46243.75,0
2022-02-07,46243.75,0.0,46243.75,0
2022-02-08,46243.75,0.0,46243.75,0
2022-02-09,46243.75,0.0,46243.75,0
2022-02-10,46243.75,0.0,46243.75,0
2022-02-11,46243.75,0.0,46243.75,0
2022-02-13,46243.75,0.0,46243.75,0
2022-02-14,46243.75,0.0,46243.75,0
2022-02-15,46243.75,0.0,46243.75,0
2022-02-16,46243.75,0.0,46243.75,0
2022-02-17,46243.75,0.0,46243.75,0
2022-02-18,46243.75,0.0,46243.75,0
2022-02-20,46243.75,0.0,46243.75,0
2022-02-21,46243.75,0.0,46243.75,0
2022-02-22,46243.75,0.0,46243.75,0
2022-02-23,46243.75,0.0,46243.75,0
2022-02-24,46243.75,0.0,46243.75,0
2022-02-25,46243.75,0.0,46243.75,0
2022-02-27,46243.75,0.0,46243.75,0
2022-02-28,46243.75,0.0,46243.75,0
2022-03-01,46243.75,0.0,46243.75,0
2022-03-02,46243.75,0.0,46243.75,0
2022-03-03,46243.75,0.0,46243.75,0
2022-03-04,46243.75,0.0,46243.75,0
2022-03-06,46243.75,0.0,46243.75,0
2022-03-07,46243.75,0.0,46243.75,0
2022-03-08,46243.75,0.0,46243.75,0
2022-03-09,46243.75,0.0,46243.75,0
2022-03-10,46243.75,0.0,46243.75,0
2022-03-11,46243.75,0.0,46243.75,0
2022-03-13,46243.75,0.0,46243.75,0
2022-03-14,46243.75,0.0,46243.75,0
2022-03-15,46243.75,0.0,46243.75,0
2022-03-16,46243.75,0.0,46243.75,0
2022-03-17,46243.75,0.0,46243.75,0
2022-03-18,46243.75,0.0,46243.75,0
2022-03-20,46243.75,0.0,46243.75,0
2022-03-21,46243.75,0.0,46243.75,0
2022-03-22,46243.75,0.0,46243.75,0
2022-03-23,46243.75,-192.0,46051.75,1
2022-03-24,46243.75,84.0,46327.75,1
2022-03-25,46243.75,128.25,46372.0,2
2022-03-27,46243.75,65.25,46309.0,2
2022-03-28,46243.75,569.25,46813.0,2
2022-03-29,46243.75,1066.25,47310.0,2
2022-03-30,46243.75,830.75,47074.5,2
2022-03-31,46243.75,448.25,46692.0,2
2022-04-01,46243.75,405.0,46648.75,3
2022-04-03,46243.75,301.5,46545.25,3
2022-04-04,46243.75,1301.25,47545.0,3
2022-04-05,46243.75,349.5,46593.25,3
2022-04-06,46243.75,-809.25,45434.5,3
2022-04-07,46243.75,-457.5,45786.25,3
2022-04-08,46243.75,-1185.0,45058.75,4
2022-04-10,46243.75,-1240.0,45003.75,4
2022-04-11,46243.75,-2567.0,43676.75,4
2022-04-12,43675.75,0.0,43675.75,0
2022-04-13,43675.75,0.0,43675.75,0
2022-04-14,43675.75,0.0,43675.75,0
2022-04-17,43675.75,0.0,43675.75,0
2022-04-18,43675.75,0.0,43675.75,0
2022-04-19,43675.75,0.0,43675.75,0
2022-04-20,43675.75,0.0,43675.75,0
2022-04-21,43675.75,0.0,43675.75,0
2022-04-22,43675.75,0.0,43675.75,0
2022-04-24,43675.75,0.0,43675.75,0
2022-04-25,43675.75,0.0,43675.75,0
2022-04-26,43675.75,0.0,43675.75,0
2022-04-27,43675.75,0.0,43675.75,0
2022-04-28,43675.75,0.0,43675.75,0
2022-04-29,43675.75,0.0,43675.75,0
2022-05-01,43675.75,0.0,43675.75,0
2022-05-02,43675.75,0.0,43675.75,0
2022-05-03,43675.75,0.0,43675.75,0
2022-05-04,43675.75,0.0,43675.75,0
2022-05-05,43675.75,0.0,43675.75,0
2022-05-06,43675.75,0.0,43675.75,0
2022-05-08,43675.75,0.0,43675.75,0
2022-05-09,43675.75,0.0,43675.75,0
2022-05-10,43675.75,0.0,43675.75,0
2022-05-11,43675.75,0.0,43675.75,0
2022-05-12,43675.75,0.0,43675.75,0
2022-05-13,43675.75,0.0,43675.75,0
2022-05-15,43675.75,0.0,43675.75,0
2022-05-16,43675.75,0.0,43675.75,0
2022-05-17,43675.75,0.0,43675.75,0
2022-05-18,43675.75,0.0,43675.75,0
2022-05-19,43675.75,0.0,43675.75,0
2022-05-20,43675.75,0.0,43675.75,0
2022-05-22,43675.75,0.0,43675.75,0
2022-05-23,43675.75,0.0,43675.75,0
2022-05-24,43675.75,0.0,43675.75,0
2022-05-25,43675.75,0.0,43675.75,0
2022-05-26,43675.75,0.0,43675.75,0
2022-05-27,43675.75,0.0,43675.75,0
2022-05-29,43675.75,0.0,43675.75,0
2022-05-30,43675.75,0.0,43675.75,0
2022-05-31,43675.75,0.0,43675.75,0
2022-06-01,43675.75,0.0,43675.75,0
2022-06-02,43675.75,0.0,43675.75,0
2022-06-03,43675.75,-369.5,43306.25,2
2022-06-05,43675.75,-369.5,43306.25,2
2022-06-06,43675.75,-263.0,43412.75,2
2022-06-07,43675.75,-128.0,43547.75,2
2022-06-08,43675.75,-220.5,43455.25,2
2022-06-09,43675.75,-892.5,42783.25,2
2022-06-10,43675.75,-1741.0,41934.75,3
2022-06-12,43675.75,-2244.25,41431.5,3
2022-06-13,41429.25,0.0,41429.25,0
2022-06-14,41429.25,0.0,41429.25,0
2022-06-15,41429.25,0.0,41429.25,0
2022-06-16,41429.25,0.0,41429.25,0
2022-06-17,41429.25,0.0,41429.25,0
2022-06-19,41429.25,0.0,41429.25,0
2022-06-20,41429.25,0.0,41429.25,0
2022-06-21,41429.25,0.0,41429.25,0
2022-06-22,41429.25,0.0,41429.25,0
2022-06-23,41429.25,0.0,41429.25,0
2022-06-24,41429.25,0.0,41429.25,0
2022-06-26,41429.25,0.0,41429.25,0
2022-06-27,41429.25,0.0,41429.25,0
2022-06-28,41429.25,0.0,41429.25,0
2022-06-29,41429.25,0.0,41429.25,0
2022-06-30,41429.25,0.0,41429.25,0
2022-07-01,41429.25,0.0,41429.25,0
2022-07-03,41429.25,0.0,41429.25,0
2022-07-04,41429.25,0.0,41429.25,0
2022-07-05,41429.25,0.0,41429.25,0
2022-07-06,41429.25,0.0,41429.25,0
2022-07-07,41429.25,0.0,41429.25,0
2022-07-08,41429.25,0.0,41429.25,0
2022-07-10,41429.25,0.0,41429.25,0
2022-07-11,41429.25,0.0,41429.25,0
2022-07-12,41429.25,0.0,41429.25,0
2022-07-13,41429.25,0.0,41429.25,0
2022-07-14,41429.25,0.0,41429.25,0
2022-07-15,41429.25,0.0,41429.25,0
2022-07-17,41429.25,0.0,41429.25,0
2022-07-18,41429.25,0.0,41429.25,0
2022-07-19,41429.25,0.0,41429.25,0
2022-07-20,41429.25,0.0,41429.25,0
2022-07-21,41429.25,112.25,41541.5,1
2022-07-22,41429.25,23.75,41453.0,2
2022-07-24,41429.25,-24.25,41405.0,2
2022-07-25,41429.25,-233.75,41195.5,2
2022-07-26,41429.25,-270.25,41159.0,2
2022-07-27,41429.25,323.75,41753.0,2
2022-07-28,41429.25,955.25,42384.5,2
2022-07-29,41429.25,1094.0,42523.25,3
2022-07-31,41429.25,928.25,42357.5,3
2022-08-01,41429.25,1022.75,42452.0,3
2022-08-02,41429.25,879.5,42308.75,3
2022-08-03,41429.25,1873.25,43302.5,3
2022-08-04,41429.25,2170.25,43599.5,3
2022-08-05,41429.25,1809.0,43238.25,4
2022-08-07,41429.25,1661.0,43090.25,4
2022-08-08,41429.25,1833.0,43262.25,4
2022-08-09,41429.25,1161.0,42590.25,4
2022-08-10,41429.25,2546.0,43975.25,4
2022-08-11,41429.25,2293.0,43722.25,4
2022-08-12,41429.25,3287.5,44716.75,5
2022-08-14,41429.25,3086.25,44515.5,5
2022-08-15,41429.25,3791.25,45220.5,5
2022-08-16,41429.25,3645.0,45074.25,5
2022-08-17,41429.25,2662.5,44091.75,5
2022-08-18,41429.25,3021.25,44450.5,5
2022-08-19,41429.25,1616.75,43046.0,6
2022-08-21,41429.25,1243.25,42672.5,6
2022-08-22,41429.25,-147.25,41282.0,6
2022-08-23,41429.25,-508.75,40920.5,6
2022-08-24,41429.25,-274.75,41154.5,6
2022-08-25,41429.25,985.25,42414.5,6
2022-08-26,41429.25,-2532.25,38897.0,6
2022-08-28,38453.0,0.0,38453.0,0
2022-08-29,38453.0,0.0,38453.0,0
2022-08-30,38453.0,0.0,38453.0,0
2022-08-31,38453.0,0.0,38453.0,0
2022-09-01,38453.0,0.0,38453.0,0
2022-09-02,38453.0,0.0,38453.0,0
2022-09-04,38453.0,0.0,38453.0,0
2022-09-05,38453.0,0.0,38453.0,0
2022-09-06,38453.0,0.0,38453.0,0
2022-09-07,38453.0,0.0,38453.0,0
2022-09-08,38453.0,0.0,38453.0,0
2022-09-09,38453.0,0.0,38453.0,0
2022-09-11,38453.0,0.0,38453.0,0
2022-09-12,38453.0,0.0,38453.0,0
2022-09-13,38453.0,0.0,38453.0,0
2022-09-14,38453.0,0.0,38453.0,0
2022-09-15,38453.0,0.0,38453.0,0
2022-09-16,38453.0,0.0,38453.0,0
2022-09-18,38453.0,0.0,38453.0,0
2022-09-19,38453.0,0.0,38453.0,0
2022-09-20,38453.0,0.0,38453.0,0
2022-09-21,38453.0,0.0,38453.0,0
2022-09-22,38453.0,0.0,38453.0,0
2022-09-23,38453.0,0.0,38453.0,0
2022-09-25,38453.0,0.0,38453.0,0
2022-09-26,38453.0,0.0,38453.0,0
2022-09-27,38453.0,0.0,38453.0,0
2022-09-28,38453.0,0.0,38453.0,0
2022-09-29,38453.0,0.0,38453.0,0
2022-09-30,38453.0,0.0,38453.0,0
2022-10-02,38453.0,0.0,38453.0,0
2022-10-03,38453.0,0.0,38453.0,0
2022-10-04,38453.0,0.0,38453.0,0
2022-10-05,38453.0,0.0,38453.0,0
2022-10-06,38453.0,0.0,38453.0,0
2022-10-07,38453.0,0.0,38453.0,0
2022-10-09,38453.0,0.0,38453.0,0
2022-10-10,38453.0,0.0,38453.0,0
2022-10-11,38453.0,0.0,38453.0,0
2022-10-12,38453.0,0.0,38453.0,0
2022-10-13,38453.0,0.0,38453.0,0
2022-10-14,38453.0,0.0,38453.0,0
2022-10-16,38453.0,0.0,38453.0,0
2022-10-17,38453.0,0.0,38453.0,0
2022-10-18,38453.0,0.0,38453.0,0
2022-10-19,38453.0,0.0,38453.0,0
2022-10-20,38453.0,0.0,38453.0,0
2022-10-21,38453.0,0.0,38453.0,0
2022-10-23,38453.0,0.0,38453.0,0
2022-10-24,38453.0,0.0,38453.0,0
2022-10-25,38453.0,0.0,38453.0,0
2022-10-26,38453.0,0.0,38453.0,0
2022-10-27,38453.0,0.0,38453.0,0
2022-10-28,38453.0,0.0,38453.0,0
2022-10-30,38453.0,0.0,38453.0,0
2022-10-31,38453.0,0.0,38453.0,0
2022-11-01,38453.0,0.0,38453.0,0
2022-11-02,38453.0,0.0,38453.0,0
2022-11-03,38453.0,0.0,38453.0,0
2022-11-04,38453.0,0.0,38453.0,0
2022-11-06,38453.0,0.0,38453.0,0
2022-11-07,38453.0,0.0,38453.0,0
2022-11-08,38453.0,0.0,38453.0,0
2022-11-09,38453.0,0.0,38453.0,0
2022-11-10,38453.0,0.0,38453.0,0
2022-11-11,38453.0,0.0,38453.0,0
2022-11-13,38453.0,15.25,38468.25,1
2022-11-14,38453.0,-29.0,38424.0,1
2022-11-15,38453.0,102.75,38555.75,1
2022-11-16,38453.0,-16.0,38437.0,1
2022-11-17,38453.0,-76.25,38376.75,1
2022-11-18,38453.0,-103.75,38349.25,2
2022-11-20,38453.0,-104.75,38348.25,2
2022-11-21,38453.0,-334.75,38118.25,2
2022-11-22,38453.0,-32.75,38420.25,2
2022-11-23,38453.0,254.25,38707.25,2
2022-11-24,38453.0,312.75,38765.75,2
2022-11-25,38453.0,45.25,38498.25,3
2022-11-27,38453.0,-126.5,38326.5,3
2022-11-28,38453.0,-450.5,38002.5,3
2022-11-29,38453.0,-797.0,37656.0,3
2022-11-30,38453.0,912.25,39365.25,3
2022-12-01,38453.0,813.25,39266.25,3
2022-12-02,38453.0,634.5,39087.5,4
2022-12-04,38453.0,721.5,39174.5,4
2022-12-05,38453.0,-7.5,38445.5,4
2022-12-06,38453.0,-971.5,37481.5,4
2022-12-07,38453.0,-1242.5,37210.5,4
2022-12-08,38453.0,-734.5,37718.5,4
2022-12-09,38453.0,-1116.75,37336.25,5
2022-12-11,38453.0,-1201.75,37251.25,5
2022-12-12,38453.0,257.0,38710.0,5
2022-12-13,38453.0,917.0,39370.0,5
2022-12-14,38453.0,533.25,38986.25,5
2022-12-15,38453.0,-1588.0,36865.0,5
2022-12-16,38453.0,-2327.75,36125.25,6
2022-12-18,38453.0,-2126.75,36326.25,6
2022-12-19,38453.0,-2962.25,35490.75,6
2022-12-20,35490.75,0.0,35490.75,0
2022-12-21,35490.75,0.0,35490.75,0
2022-12-22,35490.75,0.0,35490.75,0
2022-12-23,35490.75,0.0,35490.75,0
2022-12-26,35490.75,0.0,35490.75,0
2022-12-27,35490.75,0.0,35490.75,0
2022-12-28,35490.75,0.0,35490.75,0
2022-12-29,35490.75,0.0,35490.75,0
2022-12-30,35490.75,0.0,35490.75,0
2023-01-02,35490.75,0.0,35490.75,0
2023-01-03,35490.75,0.0,35490.75,0
2023-01-04,35490.75,0.0,35490.75,0
2023-01-05,35490.75,0.0,35490.75,0
2023-01-06,35490.75,0.0,35490.75,0
2023-01-08,35490.75,0.0,35490.75,0
2023-01-09,35490.75,0.0,35490.75,0
2023-01-10,35490.75,0.0,35490.75,0
2023-01-11,35490.75,0.0,35490.75,0
2023-01-12,35490.75,0.0,35490.75,0
2023-01-13,35490.75,0.0,35490.75,0
2023-01-15,35490.75,0.0,35490.75,0
2023-01-16,35490.75,0.0,35490.75,0
2023-01-17,35490.75,0.0,35490.75,0
2023-01-18,35490.75,0.0,35490.75,0
2023-01-19,35490.75,0.0,35490.75,0
2023-01-20,35490.75,0.0,35490.75,0
2023-01-22,35490.75,-19.5,35471.25,1
2023-01-23,35490.75,240.75,35731.5,1
2023-01-24,35490.75,162.25,35653.0,1
2023-01-25,35490.75,229.5,35720.25,1
2023-01-26,35490.75,362.0,35852.75,1
2023-01-27,35490.75,496.25,35987.0,2
2023-01-29,35490.75,467.75,35958.5,2
2023-01-30,35490.75,61.25,35552.0,2
2023-01-31,35490.75,263.25,35754.0,2
2023-02-01,35490.75,1147.25,36638.0,2
2023-02-02,35490.75,1383.75,36874.5,2
2023-02-03,35490.75,1298.25,36789.0,3
2023-02-05,35490.75,1221.0,36711.75,3
2023-02-06,35490.75,1056.75,36547.5,3
2023-02-07,35490.75,1698.75,37189.5,3
2023-02-08,35490.75,1131.75,36622.5,3
2023-02-09,35490.75,753.0,36243.75,3
2023-02-10,35490.75,442.75,35933.5,4
2023-02-12,35490.75,323.75,35814.5,4
2023-02-13,35490.75,1251.75,36742.5,4
2023-02-14,35490.75,1527.75,37018.5,4
2023-02-15,35490.75,2082.75,37573.5,4
2023-02-16,35490.75,806.75,36297.5,4
2023-02-17,35490.75,644.25,36135.0,5
2023-02-19,35490.75,525.5,36016.25,5
2023-02-20,35490.75,621.75,36112.5,5
2023-02-21,35490.75,-700.75,34790.0,5
2023-02-22,35490.75,-434.5,35056.25,5
2023-02-23,35490.75,-403.25,35087.5,5
2023-02-24,35490.75,-1241.75,34249.0,6
2023-02-26,35490.75,-1130.75,34360.0,6
2023-02-27,35490.75,-674.75,34816.0,6
2023-02-28,35490.75,-1102.25,34388.5,6
2023-03-01,35490.75,-1406.75,34084.0,6
2023-03-02,35490.75,-1012.25,34478.5,6
2023-03-03,35490.75,753.75,36244.5,7
2023-03-05,35490.75,514.0,36004.75,7
2023-03-06,35490.75,781.75,36272.5,7
2023-03-07,35490.75,-296.25,35194.5,7
2023-03-08,35490.75,43.25,35534.0,7
2023-03-09,35490.75,-1631.5,33859.25,7
2023-03-10,35490.75,-2335.0,33155.75,7
2023-03-12,34020.25,0.0,34020.25,0
2023-03-13,34020.25,0.0,34020.25,0
2023-03-14,34020.25,0.0,34020.25,0
2023-03-15,34020.25,0.0,34020.25,0
2023-03-16,34020.25,0.0,34020.25,0
2023-03-17,34020.25,-48.75,33971.5,2
2023-03-19,34020.25,63.75,34084.0,2
2023-03-20,34020.25,37.75,34058.0,2
2023-03-21,34020.25,388.75,34409.0,2
2023-03-22,34020.25,89.25,34109.5,2
2023-03-23,34020.25,381.75,34402.0,2
2023-03-24,34020.25,552.75,34573.0,3
2023-03-26,34020.25,623.25,34643.5,3
2023-03-27,34020.25,247.5,34267.75,3
2023-03-28,34020.25,58.5,34078.75,3
2023-03-29,34020.25,609.0,34629.25,3
2023-03-30,34020.25,1068.0,35088.25,3
2023-03-31,34020.25,1748.25,35768.5,4
2023-04-02,34020.25,1474.25,35494.5,4
2023-04-03,34020.25,1502.25,35522.5,4
2023-04-04,34020.25,1477.25,35497.5,4
2023-04-05,34020.25,742.25,34762.5,4
2023-04-06,34020.25,1152.25,35172.5,4
2023-04-07,34020.25,1237.25,35257.5,5
2023-04-09,34020.25,1114.75,35135.0,5
2023-04-10,34020.25,1194.75,35215.0,5
2023-04-11,34020.25,781.0,34801.25,5
2023-04-12,34020.25,-9.0,34011.25,5
2023-04-13,34020.25,1292.25,35312.5,5
2023-04-14,34020.25,1347.0,35367.25,6
2023-04-16,34020.25,1270.5,35290.75,6
2023-04-17,34020.25,1224.0,35244.25,6
2023-04-18,34020.25,1201.5,35221.75,6
2023-04-19,34020.25,919.5,34939.75,6
2023-04-20,34020.25,645.0,34665.25,6
2023-04-21,34020.25,608.0,34628.25,7
2023-04-23,34020.25,559.0,34579.25,7
2023-04-24,34020.25,427.75,34448.0,7
2023-04-25,34020.25,-198.75,33821.5,7
2023-04-26,34020.25,-219.75,33800.5,7
2023-04-27,34020.25,1553.0,35573.25,7
2023-04-28,34020.25,2406.5,36426.75,8
2023-04-30,34020.25,2248.5,36268.75,8
2023-05-01,34020.25,2076.5,36096.75,8
2023-05-02,34020.25,1248.5,35268.75,8
2023-05-03,34020.25,572.5,34592.75,8
2023-05-04,34020.25,540.5,34560.75,8
2023-05-05,34020.25,2251.25,36271.5,9
2023-05-07,34020.25,2195.0,36215.25,9
2023-05-08,34020.25,2489.75,36510.0,9
2023-05-09,34020.25,1936.25,35956.5,9
2023-05-10,34020.25,3252.5,37272.75,9
2023-05-11,34020.25,3549.5,37569.75,9
2023-05-12,34020.25,2771.5,36791.75,10
2023-05-14,34020.25,2739.0,36759.25,10
2023-05-15,34020.25,3659.0,37679.25,10
2023-05-16,34020.25,4071.5,38091.75,10
2023-05-17,34020.25,5509.0,39529.25,10
2023-05-18,34020.25,8371.5,42391.75,10
2023-05-19,34020.25,7478.25,41498.5,11
2023-05-21,34020.25,7613.0,41633.25,11
2023-05-22,34020.25,8597.5,42617.75,11
2023-05-23,34020.25,6455.25,40475.5,11
2023-05-24,34020.25,7541.5,41561.75,11
2023-05-25,34020.25,8839.5,42859.75,11
2023-05-26,34020.25,13332.25,47352.5,12
2023-05-28,34020.25,13878.25,47898.5,12
2023-05-29,34020.25,13512.25,47532.5,12
2023-05-30,34020.25,13941.25,47961.5,12
2023-05-31,34020.25,12600.25,46620.5,12
2023-06-01,34020.25,14679.25,48699.5,12
2023-06-02,34020.25,15919.25,49939.5,13
2023-06-04,34020.25,15269.25,49289.5,13
2023-06-05,34020.25,15649.5,49669.75,13
2023-06-06,34020.25,16029.75,50050.0,13
2023-06-07,34020.25,12588.0,46608.25,13
2023-06-08,34020.25,14794.75,48815.0,13
2023-06-09,34020.25,15623.75,49644.0,14
2023-06-11,34020.25,16019.25,50039.5,14
2023-06-12,34020.25,21780.25,55800.5,14
2023-06-13,34020.25,23215.25,57235.5,14
2023-06-14,34020.25,24741.25,58761.5,14
2023-06-15,34020.25,26771.25,60791.5,14
2023-06-16,34020.25,25949.25,59969.5,15
2023-06-18,34020.25,25975.5,59995.75,15
2023-06-19,34020.25,25158.0,59178.25,15
2023-06-20,34020.25,25356.75,59377.0,15
2023-06-21,34020.25,22041.75,56062.0,15
2023-06-22,34020.25,24753.0,58773.25,15
2023-06-23,34020.25,22235.25,56255.5,16
2023-06-25,34020.25,22959.25,56979.5,16
2023-06-26,34020.25,19635.25,53655.5,16
2023-06-27,34020.25,22295.25,56315.5,16
2023-06-28,34020.25,24103.25,58123.5,16
2023-06-29,34020.25,23215.25,57235.5,16
2023-06-30,34020.25,26394.0,60414.25,17
2023-07-02,34020.25,26963.5,60983.75,17
2023-07-03,34020.25,26738.25,60758.5,17
2023-07-04,34020.25,26785.0,60805.25,17
2023-07-05,34020.25,27082.5,61102.75,17
2023-07-06,34020.25,24847.0,58867.25,17
2023-07-07,34020.25,24243.75,58264.0,18
2023-07-09,34020.25,24050.25,58070.5,18
2023-07-10,34020.25,24257.25,58277.5,18
2023-07-11,34020.25,25557.75,59578.0,18
2023-07-12,34020.25,29288.25,63308.5,18
2023-07-13,34020.25,33617.25,67637.5,18
2023-07-14,34020.25,33275.0,67295.25,19
2023-07-16,34020.25,32790.5,66810.75,19
2023-07-17,34020.25,35664.25,69684.5,19
2023-07-18,34020.25,38381.25,72401.5,19
2023-07-19,34020.25,36400.5,70420.75,19
2023-07-20,34020.25,31137.5,65157.75,19
2023-07-21,34020.25,30676.5,64696.75,20
2023-07-23,34020.25,30561.5,64581.75,20
2023-07-24,34020.25,30926.5,64946.75,20
2023-07-25,34020.25,32331.5,66351.75,20
2023-07-26,34020.25,32641.5,66661.75,20
2023-07-27,34020.25,31306.5,65326.75,20
2023-07-28,34020.25,36494.0,70514.25,21
2023-07-30,34020.25,37370.75,71391.0,21
2023-07-31,34020.25,36803.75,70824.0,21
2023-08-01,34020.25,34551.5,68571.75,21
2023-08-02,34020.25,29070.5,63090.75,21
2023-08-03,34020.25,28844.75,62865.0,21
2023-08-04,34020.25,26403.5,60423.75,21
2023-08-06,60523.5,0.0,60523.5,0
2023-08-07,60523.5,0.0,60523.5,0
2023-08-08,60523.5,0.0,60523.5,0
2023-08-09,60523.5,0.0,60523.5,0
2023-08-10,60523.5,0.0,60523.5,0
2023-08-11,60523.5,0.0,60523.5,0
2023-08-13,60523.5,0.0,60523.5,0
2023-08-14,60523.5,0.0,60523.5,0
2023-08-15,60523.5,0.0,60523.5,0
2023-08-16,60523.5,0.0,60523.5,0
2023-08-17,60523.5,0.0,60523.5,0
2023-08-18,60523.5,0.0,60523.5,0
2023-08-20,60523.5,0.0,60523.5,0
2023-08-21,60523.5,0.0,60523.5,0
2023-08-22,60523.5,0.0,60523.5,0
2023-08-23,60523.5,0.0,60523.5,0
2023-08-24,60523.5,0.0,60523.5,0
2023-08-25,60523.5,0.0,60523.5,0
2023-08-27,60523.5,0.0,60523.5,0
2023-08-28,60523.5,0.0,60523.5,0
2023-08-29,60523.5,0.0,60523.5,0
2023-08-30,60523.5,68.25,60591.75,1
2023-08-31,60523.5,101.75,60625.25,1
2023-09-01,60523.5,85.75,60609.25,2
2023-09-03,60523.5,94.25,60617.75,2
2023-09-04,60523.5,113.25,60636.75,2
2023-09-05,60523.5,104.75,60628.25,2
2023-09-06,60523.5,-156.75,60366.75,2
2023-09-07,60523.5,-377.75,60145.75,2
2023-09-08,60523.5,-269.25,60254.25,3
2023-09-10,60523.5,-244.5,60279.0,3
2023-09-11,60523.5,762.75,61286.25,3
2023-09-12,60523.5,303.75,60827.25,3
2023-09-13,60523.5,525.75,61049.25,3
2023-09-14,60523.5,818.25,61341.75,3
2023-09-15,60523.5,-65.0,60458.5,4
2023-09-17,60523.5,55.0,60578.5,4
2023-09-18,60523.5,100.0,60623.5,4
2023-09-19,60523.5,-64.0,60459.5,4
2023-09-20,60523.5,-1143.0,59380.5,4
2023-09-21,60523.5,-2192.0,58331.5,4
2023-09-22,58331.5,0.0,58331.5,0
2023-09-24,58331.5,0.0,58331.5,0
2023-09-25,58331.5,0.0,58331.5,0
2023-09-26,58331.5,0.0,58331.5,0
2023-09-27,58331.5,0.0,58331.5,0
2023-09-28,58331.5,0.0,58331.5,0
2023-09-29,58331.5,0.0,58331.5,0
2023-10-01,58331.5,0.0,58331.5,0
2023-10-02,58331.5,0.0,58331.5,0
2023-10-03,58331.5,0.0,58331.5,0
2023-10-04,58331.5,0.0,58331.5,0
2023-10-05,58331.5,0.0,58331.5,0
2023-10-06,58331.5,0.0,58331.5,0
2023-10-08,58331.5,0.0,58331.5,0
2023-10-09,58331.5,0.0,58331.5,0
2023-10-10,58331.5,0.0,58331.5,0
2023-10-11,58331.5,0.0,58331.5,0
2023-10-12,58331.5,-84.75,58246.75,1
2023-10-13,58331.5,-317.0,58014.5,2
2023-10-15,58331.5,-198.0,58133.5,2
2023-10-16,58331.5,51.0,58382.5,2
2023-10-17,58331.5,-108.5,58223.0,2
2023-10-18,58331.5,-455.0,57876.5,2
2023-10-19,58331.5,-844.0,57487.5,2
2023-10-20,58331.5,-1267.5,57064.0,3
2023-10-22,58331.5,-1082.25,57249.25,3
2023-10-23,58331.5,-924.0,57407.5,3
2023-10-24,58331.5,-766.5,57565.0,3
2023-10-25,58331.5,-2161.5,56170.0,3
2023-10-26,56169.25,0.0,56169.25,0
2023-10-27,56169.25,0.0,56169.25,0
2023-10-29,56169.25,0.0,56169.25,0
2023-10-30,56169.25,0.0,56169.25,0
2023-10-31,56169.25,0.0,56169.25,0
2023-11-01,56169.25,0.0,56169.25,0
2023-11-02,56169.25,0.0,56169.25,0
2023-11-03,56169.25,0.0,56169.25,0
2023-11-05,56169.25,-11.25,56158.0,1
2023-11-06,56169.25,21.75,56191.0,1
2023-11-07,56169.25,181.25,56350.5,1
2023-11-08,56169.25,171.0,56340.25,1
2023-11-09,56169.25,45.75,56215.0,1
2023-11-10,56169.25,377.75,56547.0,2
2023-11-12,56169.25,335.75,56505.0,2
2023-11-13,56169.25,332.25,56501.5,2
2023-11-14,56169.25,1024.75,57194.0,2
2023-11-15,56169.25,945.25,57114.5,2
2023-11-16,56169.25,986.75,57156.0,2
2023-11-17,56169.25,964.0,57133.25,3
2023-11-19,56169.25,933.25,57102.5,3
2023-11-20,56169.25,1644.25,57813.5,3
2023-11-21,56169.25,1204.75,57374.0,3
2023-11-22,56169.25,1479.25,57648.5,3
2023-11-23,56169.25,1535.5,57704.75,3
2023-11-24,56169.25,1374.25,57543.5,4
2023-11-26,56169.25,1276.25,57445.5,4
2023-11-27,56169.25,1370.25,57539.5,4
2023-11-28,56169.25,1544.25,57713.5,4
2023-11-29,56169.25,1519.25,57688.5,4
2023-11-30,56169.25,1189.25,57358.5,4
2023-12-01,56169.25,1468.0,57637.25,5
2023-12-03,56169.25,1273.0,57442.25,5
2023-12-04,56169.25,560.5,56729.75,5
2023-12-05,56169.25,953.0,57122.25,5
2023-12-06,56169.25,395.5,56564.75,5
2023-12-07,56169.25,1413.0,57582.25,5
2023-12-08,56169.25,1764.75,57934.0,6
2023-12-10,56169.25,1836.75,58006.0,6
2023-12-11,56169.25,3938.25,60107.5,6
2023-12-12,56169.25,4866.75,61036.0,6
2023-12-13,56169.25,6105.75,62275.0,6
2023-12-14,56169.25,5772.75,61942.0,6
2023-12-15,56169.25,6086.75,62256.0,7
2023-12-17,56169.25,6141.0,62310.25,7
2023-12-18,56169.25,6844.5,63013.75,7
2023-12-19,56169.25,7569.0,63738.25,7
2023-12-20,56169.25,6057.0,62226.25,7
2023-12-21,56169.25,6968.75,63138.0,7
2023-12-22,56169.25,7107.5,63276.75,8
2023-12-25,56169.25,7439.5,63608.75,8
2023-12-26,56169.25,8123.5,64292.75,8
2023-12-27,56169.25,8381.5,64550.75,8
2023-12-28,56169.25,8213.5,64382.75,8
2023-12-29,56169.25,7426.0,63595.25,9
2024-01-01,56169.25,7657.75,63827.0,9
2024-01-02,56169.25,4910.5,61079.75,9
2024-01-03,56169.25,3335.5,59504.75,9
2024-01-04,59504.75,0.0,59504.75,0
2024-01-05,59504.75,0.0,59504.75,0
2024-01-07,59504.75,0.0,59504.75,0
2024-01-08,59504.75,0.0,59504.75,0
2024-01-09,59504.75,0.0,59504.75,0
2024-01-10,59504.75,0.0,59504.75,0
2024-01-11,59504.75,0.0,59504.75,0
2024-01-12,59504.75,0.0,59504.75,0
2024-01-14,59504.75,0.0,59504.75,0
2024-01-15,59504.75,0.0,59504.75,0
2024-01-16,59504.75,0.0,59504.75,0
2024-01-17,59504.75,-125.5,59379.25,1
2024-01-18,59504.75,169.5,59674.25,1
2024-01-19,59504.75,510.0,60014.75,2
2024-01-21,59504.75,551.0,60055.75,2
2024-01-22,59504.75,512.5,60017.25,2
2024-01-23,59504.75,735.5,60240.25,2
2024-01-24,59504.75,817.5,60322.25,2
2024-01-25,59504.75,668.5,60173.25,2
2024-01-26,59504.75,566.25,60071.0,3
2024-01-28,59504.75,491.25,59996.0,3
2024-01-29,59504.75,1218.0,60722.75,3
2024-01-30,59504.75,396.75,59901.5,3
2024-01-31,59504.75,-100.5,59404.25,3
2024-02-01,59504.75,832.5,60337.25,3
2024-02-02,59504.75,1044.75,60549.5,4
2024-02-04,59504.75,1130.75,60635.5,4
2024-02-05,59504.75,1085.75,60590.5,4
2024-02-06,59504.75,908.75,60413.5,4
2024-02-07,59504.75,1670.75,61175.5,4
2024-02-08,59504.75,1769.75,61274.5,4
2024-02-09,59504.75,2454.5,61959.25,5
2024-02-11,59504.75,2440.75,61945.5,5
2024-02-12,59504.75,1952.0,61456.75,5
2024-02-13,59504.75,717.0,60221.75,5
2024-02-14,59504.75,1659.5,61164.25,5
2024-02-15,59504.75,2028.25,61533.0,5
2024-02-16,59504.75,862.25,60367.0,6
2024-02-18,59504.75,1199.75,60704.5,6
2024-02-19,59504.75,1024.25,60529.0,6
2024-02-20,59504.75,-55.75,59449.0,6
2024-02-21,59504.75,758.75,60263.5,6
2024-02-22,59504.75,2783.75,62288.5,6
2024-02-23,59504.75,2255.0,61759.75,7
2024-02-25,59504.75,2405.5,61910.25,7
2024-02-26,59504.75,2269.0,61773.75,7
2024-02-27,59504.75,2563.0,62067.75,7
2024-02-28,59504.75,1616.25,61121.0,7
2024-02-29,59504.75,2944.5,62449.25,7
2024-03-01,59504.75,4754.75,64259.5,8
2024-03-03,59504.75,4930.75,64435.5,8
2024-03-04,59504.75,3968.75,63473.5,8
2024-03-05,59504.75,1882.75,61387.5,8
2024-03-06,59504.75,2330.75,61835.5,8
2024-03-07,59504.75,4312.75,63817.5,8
2024-03-08,59504.75,2611.5,62116.25,9
2024-03-10,59504.75,2499.0,62003.75,9
2024-03-11,59504.75,4760.25,64265.0,9
2024-03-12,59504.75,6420.75,65925.5,9
2024-03-13,59504.75,5471.25,64976.0,9
2024-03-14,59504.75,4260.75,63765.5,9
2024-03-15,59504.75,2679.75,62184.5,10
2024-03-17,59504.75,2834.75,62339.5,10
2024-03-18,59504.75,3959.75,63464.5,10
2024-03-19,59504.75,4729.75,64234.5,10
2024-03-20,59504.75,7832.25,67337.0,10
2024-03-21,59504.75,7934.75,67439.5,10
2024-03-22,59504.75,7661.75,67166.5,11
2024-03-24,59504.75,7903.75,67408.5,11
2024-03-25,59504.75,7403.25,66908.0,11
2024-03-26,59504.75,6839.5,66344.25,11
2024-03-27,59504.75,6740.5,66245.25,11
2024-03-28,59504.75,6575.5,66080.25,11
2024-03-31,59504.75,8151.25,67656.0,11
2024-04-01,59504.75,6630.5,66135.25,11
2024-04-02,59504.75,5071.25,64576.0,11
2024-04-03,59504.75,6361.0,65865.75,11
2024-04-04,59504.75,2464.25,61969.0,11
2024-04-05,59504.75,4888.75,64393.5,12
2024-04-07,59504.75,4990.75,64495.5,12
2024-04-08,59504.75,4783.75,64288.5,12
2024-04-09,59504.75,5578.75,65083.5,12
2024-04-10,59504.75,3064.75,62569.5,12
2024-04-11,59504.75,7045.75,66550.5,12
2024-04-12,59504.75,3202.5,62707.25,13
2024-04-14,59504.75,4063.75,63568.5,13
2024-04-15,59504.75,-710.5,58794.25,13
2024-04-16,58810.5,0.0,58810.5,0
2024-04-17,58810.5,0.0,58810.5,0
2024-04-18,58810.5,0.0,58810.5,0
2024-04-19,58810.5,0.0,58810.5,0
2024-04-21,58810.5,0.0,58810.5,0
2024-04-22,58810.5,0.0,58810.5,0
2024-04-23,58810.5,0.0,58810.5,0
2024-04-24,58810.5,0.0,58810.5,0
2024-04-25,58810.5,0.0,58810.5,0
2024-04-26,58810.5,0.0,58810.5,0
2024-04-28,58810.5,0.0,58810.5,0
2024-04-29,58810.5,0.0,58810.5,0
2024-04-30,58810.5,0.0,58810.5,0
2024-05-01,58810.5,0.0,58810.5,0
2024-05-02,58810.5,0.0,58810.5,0
2024-05-03,58810.5,0.0,58810.5,0
2024-05-05,58810.5,0.0,58810.5,0
2024-05-06,58810.5,0.0,58810.5,0
2024-05-07,58810.5,20.5,58831.0,1
2024-05-08,58810.5,-22.0,58788.5,1
2024-05-09,58810.5,47.5,58858.0,1
2024-05-10,58810.5,48.75,58859.25,2
2024-05-12,58810.5,60.75,58871.25,2
2024-05-13,58810.5,137.25,58947.75,2
2024-05-14,58810.5,403.75,59214.25,2
2024-05-15,58810.5,1011.75,59822.25,2
2024-05-16,58810.5,872.25,59682.75,2
2024-05-17,58810.5,850.25,59660.75,3
2024-05-19,58810.5,950.0,59760.5,3
2024-05-20,58810.5,1204.25,60014.75,3
2024-05-21,58810.5,1389.5,60200.0,3
2024-05-22,58810.5,1573.25,60383.75,3
2024-05-23,58810.5,1052.0,59862.5,3
2024-05-24,58810.5,1577.0,60387.5,4
2024-05-26,58810.5,1436.0,60246.5,4
2024-05-27,58810.5,1723.0,60533.5,4
2024-05-28,58810.5,1810.0,60620.5,4
2024-05-29,58810.5,984.0,59794.5,4
2024-05-30,58810.5,326.0,59136.5,4
2024-05-31,58810.5,436.0,59246.5,5
2024-06-02,58810.5,537.25,59347.75,5
2024-06-03,58810.5,829.75,59640.25,5
2024-06-04,58810.5,1266.0,60076.5,5
2024-06-05,58810.5,3033.5,61844.0,5
2024-06-06,58810.5,2952.25,61762.75,5
2024-06-07,58810.5,2726.25,61536.75,6
2024-06-09,58810.5,2702.25,61512.75,6
2024-06-10,58810.5,3048.75,61859.25,6
2024-06-11,58810.5,4080.75,62891.25,6
2024-06-12,58810.5,6141.75,64952.25,6
2024-06-13,58810.5,6251.25,65061.75,6
2024-06-14,58810.5,6757.75,65568.25,7
2024-06-16,58810.5,6864.5,65675.0,7
2024-06-17,58810.5,10319.0,69129.5,7
2024-06-18,58810.5,10446.75,69257.25,7
2024-06-19,58810.5,10536.0,69346.5,7
2024-06-20,58810.5,9370.5,68181.0,7
2024-06-21,58810.5,8966.5,67777.0,8
2024-06-23,58810.5,8960.5,67771.0,8
2024-06-24,58810.5,7068.5,65879.0,8
2024-06-25,58810.5,8620.5,67431.0,8
2024-06-26,58810.5,8244.5,67055.0,8
2024-06-27,58810.5,9658.5,68469.0,8
2024-06-28,58810.5,8595.5,67406.0,9
2024-06-30,58810.5,8406.5,67217.0,9
2024-07-01,58810.5,9063.5,67874.0,9
2024-07-02,58810.5,11032.25,69842.75,9
2024-07-03,58810.5,12512.75,71323.25,9
2024-07-04,58810.5,12407.0,71217.5,9
2024-07-05,58810.5,14168.0,72978.5,10
2024-07-07,58810.5,14170.5,72981.0,10
2024-07-08,58810.5,15648.0,74458.5,10
2024-07-09,58810.5,15240.5,74051.0,10
2024-07-10,58810.5,17078.0,75888.5,10
2024-07-11,58810.5,12410.5,71221.0,10
2024-07-12,58810.5,13646.75,72457.25,11
2024-07-14,58810.5,13869.5,72680.0,11
2024-07-15,58810.5,14658.75,73469.25,11
2024-07-16,58810.5,13927.25,72737.75,11
2024-07-17,58810.5,8353.0,67163.5,11
2024-07-18,67152.5,0.0,67152.5,0
2024-07-19,67152.5,0.0,67152.5,0
2024-07-21,67152.5,0.0,67152.5,0
2024-07-22,67152.5,0.0,67152.5,0
2024-07-23,67152.5,0.0,67152.5,0
2024-07-24,67152.5,0.0,67152.5,0
2024-07-25,67152.5,0.0,67152.5,0
2024-07-26,67152.5,0.0,67152.5,0
2024-07-28,67152.5,0.0,67152.5,0
2024-07-29,67152.5,0.0,67152.5,0
2024-07-30,67152.5,0.0,67152.5,0
2024-07-31,67152.5,0.0,67152.5,0
2024-08-01,67152.5,0.0,67152.5,0
2024-08-02,67152.5,0.0,67152.5,0
2024-08-04,67152.5,0.0,67152.5,0
2024-08-05,67152.5,0.0,67152.5,0
2024-08-06,67152.5,0.0,67152.5,0
2024-08-07,67152.5,0.0,67152.5,0
2024-08-08,67152.5,0.0,67152.5,0
2024-08-09,67152.5,0.0,67152.5,0
2024-08-11,67152.5,0.0,67152.5,0
2024-08-12,67152.5,0.0,67152.5,0
2024-08-13,67152.5,0.0,67152.5,0
2024-08-14,67152.5,-10.0,67142.5,1
2024-08-15,67152.5,497.0,67649.5,1
2024-08-16,67152.5,510.25,67662.75,2
2024-08-18,67152.5,598.25,67750.75,2
2024-08-19,67152.5,1023.25,68175.75,2
2024-08-20,67152.5,881.25,68033.75,2
2024-08-21,67152.5,1174.25,68326.75,2
2024-08-22,67152.5,578.75,67731.25,2
2024-08-23,67152.5,870.5,68023.0,3
2024-08-25,67152.5,826.25,67978.75,3
2024-08-26,67152.5,251.0,67403.5,3
2024-08-27,67152.5,298.25,67450.75,3
2024-08-28,67152.5,-884.5,66268.0,3
2024-08-29,67152.5,-172.75,66979.75,3
2024-08-30,67152.5,376.25,67528.75,4
2024-09-01,67152.5,344.25,67496.75,4
2024-09-02,67152.5,322.25,67474.75,4
2024-09-03,67152.5,-2169.75,64982.75,4
2024-09-04,67152.5,-2268.75,64883.75,4
2024-09-05,67152.5,-2349.75,64802.75,4
2024-09-06,67152.5,-4489.75,62662.75,4
2024-09-08,62750.75,0.0,62750.75,0
2024-09-09,62750.75,0.0,62750.75,0
2024-09-10,62750.75,0.0,62750.75,0
2024-09-11,62750.75,0.0,62750.75,0
2024-09-12,62750.75,0.0,62750.75,0
2024-09-13,62750.75,0.0,62750.75,0
2024-09-15,62750.75,40.25,62791.0,1
2024-09-16,62750.75,174.75,62925.5,1
2024-09-17,62750.75,207.25,62958.0,1
2024-09-18,62750.75,265.25,63016.0,1
2024-09-19,62750.75,551.0,63301.75,1
2024-09-20,62750.75,485.5,63236.25,2
2024-09-22,62750.75,581.0,63331.75,2
2024-09-23,62750.75,593.5,63344.25,2
2024-09-24,62750.75,816.0,63566.75,2
2024-09-25,62750.75,1012.0,63762.75,2
2024-09-26,62750.75,1144.5,63895.25,2
2024-09-27,62750.75,823.25,63574.0,3
2024-09-29,62750.75,1060.25,63811.0,3
2024-09-30,62750.75,985.25,63736.0,3
2024-10-01,62750.75,40.25,62791.0,3
2024-10-02,62750.75,407.0,63157.75,3
2024-10-03,62750.75,191.75,62942.5,3
2024-10-04,62750.75,845.5,63596.25,4
2024-10-06,62750.75,954.5,63705.25,4
2024-10-07,62750.75,-35.5,62715.25,4
2024-10-08,62750.75,1124.5,63875.25,4
2024-10-09,62750.75,1833.5,64584.25,4
2024-10-10,62750.75,1838.5,64589.25,4
2024-10-11,62750.75,1620.0,64370.75,5
2024-10-13,62750.75,1693.75,64444.5,5
2024-10-14,62750.75,2717.5,65468.25,5
2024-10-15,62750.75,1317.5,64068.25,5
2024-10-16,62750.75,1127.5,63878.25,5
2024-10-17,62750.75,1583.75,64334.5,5
2024-10-18,62750.75,1997.5,64748.25,6
2024-10-20,62750.75,2173.0,64923.75,6
2024-10-21,62750.75,2186.5,64937.25,6
2024-10-22,62750.75,2269.0,65019.75,6
2024-10-23,62750.75,832.0,63582.75,6
2024-10-24,62750.75,1378.0,64128.75,6
2024-10-25,62750.75,1913.0,64663.75,7
2024-10-27,62750.75,2761.75,65512.5,7
2024-10-28,62750.75,2128.25,64879.0,7
2024-10-29,62750.75,3808.25,66559.0,7
2024-10-30,62750.75,1557.75,64308.5,7
2024-10-31,62750.75,-909.75,61841.0,7
2024-11-01,62750.75,-228.25,62522.5,8
2024-11-03,62750.75,-504.25,62246.5,8
2024-11-04,62750.75,-878.25,61872.5,8
2024-11-05,62750.75,1167.75,63918.5,8
2024-11-06,62750.75,5543.75,68294.5,8
2024-11-07,62750.75,8229.75,70980.5,8
2024-11-08,62750.75,8241.25,70992.0,9
2024-11-10,62750.75,8934.25,71685.0,9
2024-11-11,62750.75,8142.25,70893.0,9
2024-11-12,62750.75,7638.25,70389.0,9
2024-11-13,62750.75,7692.25,70443.0,9
2024-11-14,62750.75,5743.75,68494.5,9
2024-11-15,62750.75,1766.0,64516.75,10
2024-11-17,62750.75,2413.5,65164.25,10
2024-11-18,62750.75,2953.5,65704.25,10
2024-11-19,62750.75,4561.0,67311.75,10
2024-11-20,62750.75,4256.0,67006.75,10
2024-11-21,62750.75,4466.0,67216.75,10
2024-11-22,62750.75,5557.25,68308.0,11
2024-11-24,62750.75,6187.0,68937.75,11
2024-11-25,62750.75,5070.5,67821.25,11
2024-11-26,62750.75,6737.0,69487.75,11
2024-11-27,62750.75,4949.5,67700.25,11
2024-11-28,62750.75,5659.0,68409.75,11
2024-11-29,62750.75,6800.25,69551.0,12
2024-12-01,62750.75,6476.25,69227.0,12
2024-12-02,62750.75,9467.25,72218.0,12
2024-12-03,62750.75,10895.25,73646.0,12
2024-12-04,62750.75,13025.25,75776.0,12
2024-12-05,62750.75,12371.25,75122.0,12
2024-12-06,62750.75,14501.25,77252.0,13
2024-12-08,62750.75,14810.0,77560.75,13
2024-12-09,62750.75,12310.75,75061.5,13
2024-12-10,62750.75,11829.75,74580.5,13
2024-12-11,62750.75,16116.5,78867.25,13
2024-12-12,62750.75,15937.75,78688.5,13
2024-12-13,62750.75,16096.75,78847.5,14
2024-12-15,62750.75,16499.25,79250.0,14
2024-12-16,62750.75,20835.75,83586.5,14
2024-12-17,62750.75,23289.25,86040.0,14
2024-12-18,62750.75,12043.75,74794.5,14
2024-12-19,74812.0,0.0,74812.0,0
2024-12-20,74812.0,0.0,74812.0,0
2024-12-22,74812.0,0.0,74812.0,0
2024-12-23,74812.0,0.0,74812.0,0
2024-12-24,74812.0,0.0,74812.0,0
2024-12-25,74812.0,0.0,74812.0,0
2024-12-26,74812.0,0.0,74812.0,0
2024-12-27,74812.0,0.0,74812.0,0
2024-12-29,74812.0,0.0,74812.0,0
2024-12-30,74812.0,0.0,74812.0,0
2024-12-31,74812.0,0.0,74812.0,0
2025-01-01,74812.0,0.0,74812.0,0
2025-01-02,74812.0,0.0,74812.0,0
2025-01-03,74812.0,0.0,74812.0,0
2025-01-05,74812.0,0.0,74812.0,0
2025-01-06,74812.0,0.0,74812.0,0
2025-01-07,74812.0,0.0,74812.0,0
2025-01-08,74812.0,0.0,74812.0,0
2025-01-09,74812.0,0.0,74812.0,0
2025-01-10,74812.0,0.0,74812.0,0
2025-01-12,74812.0,0.0,74812.0,0
2025-01-13,74812.0,0.0,74812.0,0
2025-01-14,74812.0,0.0,74812.0,0
2025-01-15,74812.0,0.0,74812.0,0
2025-01-16,74812.0,0.0,74812.0,0
2025-01-17,74812.0,0.0,74812.0,0
2025-01-19,74812.0,0.0,74812.0,0
2025-01-20,74812.0,0.0,74812.0,0
2025-01-21,74812.0,0.0,74812.0,0
2025-01-22,74812.0,0.0,74812.0,0
2025-01-23,74812.0,45.25,74857.25,1
2025-01-24,74812.0,-23.75,74788.25,2
2025-01-26,74812.0,-508.75,74303.25,2
2025-01-27,74812.0,-1185.75,73626.25,2
2025-01-28,74812.0,-749.75,74062.25,2
2025-01-29,74812.0,-763.75,74048.25,2
2025-01-30,74812.0,-443.75,74368.25,2
2025-01-31,74812.0,-725.0,74087.0,3
2025-02-02,74812.0,-2099.0,72713.0,3
2025-02-03,74812.0,-724.25,74087.75,3
2025-02-04,74812.0,-737.0,74075.0,3
2025-02-05,74812.0,-117.5,74694.5,3
2025-02-06,74812.0,123.25,74935.25,3
2025-02-07,74812.0,-727.25,74084.75,4
2025-02-09,74812.0,-443.25,74368.75,4
2025-02-10,74812.0,151.75,74963.75,4
2025-02-11,74812.0,214.75,75026.75,4
2025-02-12,74812.0,523.75,75335.75,4
2025-02-13,74812.0,1308.75,76120.75,4
2025-02-14,74812.0,1788.0,76600.0,5
2025-02-16,74812.0,1830.5,76642.5,5
2025-02-17,74812.0,1875.5,76687.5,5
2025-02-18,74812.0,2025.5,76837.5,5
2025-02-19,74812.0,1860.5,76672.5,5
2025-02-20,74812.0,1580.5,76392.5,5
2025-02-21,74812.0,-956.5,73855.5,6
2025-02-23,74812.0,-365.5,74446.5,6
2025-02-24,74812.0,-2602.0,72210.0,6
2025-02-25,74812.0,-3560.5,71251.5,6
2025-02-26,71250.0,0.0,71250.0,0
2025-02-27,71250.0,0.0,71250.0,0
2025-02-28,71250.0,0.0,71250.0,0
2025-03-02,71250.0,0.0,71250.0,0
2025-03-03,71250.0,0.0,71250.0,0
2025-03-04,71250.0,0.0,71250.0,0
2025-03-05,71250.0,0.0,71250.0,0
2025-03-06,71250.0,0.0,71250.0,0
2025-03-07,71250.0,0.0,71250.0,0
2025-03-09,71250.0,0.0,71250.0,0
2025-03-10,71250.0,0.0,71250.0,0
2025-03-11,71250.0,0.0,71250.0,0
2025-03-12,71250.0,0.0,71250.0,0
2025-03-13,71250.0,0.0,71250.0,0
2025-03-14,71250.0,0.0,71250.0,0
2025-03-16,71250.0,0.0,71250.0,0
2025-03-17,71250.0,0.0,71250.0,0
2025-03-18,71250.0,0.0,71250.0,0
2025-03-19,71250.0,0.0,71250.0,0
2025-03-20,71250.0,0.0,71250.0,0
2025-03-21,71250.0,0.0,71250.0,0
2025-03-23,71250.0,0.0,71250.0,0
2025-03-24,71250.0,0.0,71250.0,0
2025-03-25,71250.0,0.0,71250.0,0
2025-03-26,71250.0,0.0,71250.0,0
2025-03-27,71250.0,0.0,71250.0,0
2025-03-28,71250.0,0.0,71250.0,0
2025-03-30,71250.0,0.0,71250.0,0
2025-03-31,71250.0,0.0,71250.0,0
2025-04-01,71250.0,0.0,71250.0,0
2025-04-02,71250.0,0.0,71250.0,0
2025-04-03,71250.0,0.0,71250.0,0
2025-04-04,71250.0,0.0,71250.0,0
2025-04-06,71250.0,0.0,71250.0,0
2025-04-07,71250.0,0.0,71250.0,0
2025-04-08,71250.0,0.0,71250.0,0
2025-04-09,71250.0,0.0,71250.0,0
2025-04-10,71250.0,-956.0,70294.0,1
2025-04-11,71250.0,-500.5,70749.5,2
2025-04-13,71250.0,-112.5,71137.5,2
2025-04-14,71250.0,-438.0,70812.0,2
2025-04-15,71250.0,-682.0,70568.0,2
2025-04-16,71250.0,-1333.5,69916.5,2
2025-04-17,71250.0,-1278.5,69971.5,2
2025-04-20,71250.0,-1510.0,69740.0,2
2025-04-21,71250.0,-2132.0,69118.0,2
2025-04-22,71250.0,-616.0,70634.0,2
2025-04-23,71250.0,-459.5,70790.5,2
2025-04-24,71250.0,686.5,71936.5,2
2025-04-25,71250.0,1051.5,72301.5,3
2025-04-27,71250.0,750.0,72000.0,3
2025-04-28,71250.0,972.75,72222.75,3
2025-04-29,71250.0,1077.0,72327.0,3
2025-04-30,71250.0,2138.25,73388.25,3
2025-05-01,71250.0,1758.0,73008.0,3
2025-05-02,71250.0,3030.75,74280.75,4
2025-05-04,71250.0,2569.75,73819.75,4
2025-05-05,71250.0,2262.75,73512.75,4
2025-05-06,71250.0,2498.75,73748.75,4
2025-05-07,71250.0,2037.75,73287.75,4
2025-05-08,71250.0,2785.75,74035.75,4
2025-05-09,71250.0,2818.75,74068.75,5
2025-05-11,71250.0,4351.25,75601.25,5
2025-05-12,71250.0,6628.75,77878.75,5
2025-05-13,71250.0,8547.5,79797.5,5
2025-05-14,71250.0,8963.75,80213.75,5
2025-05-15,71250.0,9160.0,80410.0,5
2025-05-16,71250.0,9018.75,80268.75,6
2025-05-18,71250.0,8882.25,80132.25,6
2025-05-19,71250.0,9831.75,81081.75,6
2025-05-20,71250.0,9183.75,80433.75,6
2025-05-21,71250.0,7476.75,78726.75,6
2025-05-22,71250.0,7665.75,78915.75,6
2025-05-23,71250.0,6250.25,77500.25,7
2025-05-25,71250.0,7898.75,79148.75,7
2025-05-26,71250.0,8229.5,79479.5,7
2025-05-27,71250.0,9871.0,81121.0,7
2025-05-28,71250.0,11939.5,83189.5,7
2025-05-29,71250.0,8796.5,80046.5,7
2025-05-30,71250.0,9145.5,80395.5,8
2025-06-01,71250.0,8621.5,79871.5,8
2025-06-02,71250.0,10151.5,81401.5,8
2025-06-03,71250.0,11835.5,83085.5,8
2025-06-04,71250.0,12123.5,83373.5,8
2025-06-05,71250.0,10561.5,81811.5,8
2025-06-06,71250.0,12681.25,83931.25,9
2025-06-08,71250.0,12249.25,83499.25,9
2025-06-09,71250.0,12881.5,84131.5,9
2025-06-10,71250.0,13986.25,85236.25,9
2025-06-11,71250.0,12940.0,84190.0,9
2025-06-12,71250.0,12449.5,83699.5,9
2025-06-13,71250.0,11297.75,82547.75,10
2025-06-15,71250.0,11630.25,82880.25,10
2025-06-16,71250.0,14915.25,86165.25,10
2025-06-17,71250.0,13812.75,85062.75,10
2025-06-18,71250.0,14245.25,85495.25,10
2025-06-19,71250.0,13627.75,84877.75,10
2025-06-20,71250.0,13564.25,84814.25,11
2025-06-22,71250.0,12318.5,83568.5,11
2025-06-23,71250.0,17549.0,88799.0,11
2025-06-24,71250.0,19617.0,90867.0,11
2025-06-25,71250.0,20065.25,91315.25,11
2025-06-26,71250.0,22405.5,93655.5,11
2025-06-27,71250.0,23126.75,94376.75,12
2025-06-29,71250.0,24050.75,95300.75,12
2025-06-30,71250.0,24821.75,96071.75,12
2025-07-01,71250.0,22742.75,93992.75,12
2025-07-02,71250.0,24425.75,95675.75,12
2025-07-03,71250.0,26660.75,97910.75,12
2025-07-04,71250.0,25097.75,96347.75,13
2025-07-06,71250.0,26128.0,97378.0,13
2025-07-07,71250.0,24701.25,95951.25,13
2025-07-08,71250.0,25055.5,96305.5,13
2025-07-09,71250.0,26794.25,98044.25,13
2025-07-10,71250.0,26917.75,98167.75,13
2025-07-11,71250.0,25481.25,96731.25,14
2025-07-13,71250.0,24490.75,95740.75,14
2025-07-14,71250.0,26520.75,97770.75,14
2025-07-15,71250.0,26559.25,97809.25,14
2025-07-16,71250.0,26926.75,98176.75,14
2025-07-17,71250.0,30283.25,101533.25,14
2025-07-18,71250.0,29577.5,100827.5,15
2025-07-20,71250.0,30046.25,101296.25,15
2025-07-21,71250.0,31343.75,102593.75,15
2025-07-22,71250.0,30072.5,101322.5,15
2025-07-23,71250.0,32161.25,103411.25,15
2025-07-24,71250.0,32240.0,103490.0,15
2025-07-25,71250.0,32864.0,104114.0,16
2025-07-27,71250.0,34256.0,105506.0,16
2025-07-28,71250.0,34164.0,105414.0,16
2025-07-29,71250.0,33304.0,104554.0,16
2025-07-30,71250.0,37308.0,108558.0,16
2025-07-31,71250.0,30468.0,101718.0,16
2025-08-01,71250.0,23559.5,94809.5,17
2025-08-03,94495.0,0.0,94495.0,0
2025-08-04,94495.0,0.0,94495.0,0
2025-08-05,94495.0,0.0,94495.0,0
2025-08-06,94495.0,0.0,94495.0,0
2025-08-07,94495.0,0.0,94495.0,0
2025-08-08,94495.0,0.0,94495.0,0
2025-08-10,94495.0,-59.5,94435.5,1
2025-08-11,94495.0,-130.5,94364.5,1
2025-08-12,94495.0,193.25,94688.25,1
2025-08-13,94495.0,182.0,94677.0,1
2025-08-14,94495.0,121.5,94616.5,1
2025-08-15,94495.0,2.25,94497.25,2
2025-08-17,94495.0,111.25,94606.25,2
2025-08-18,94495.0,18.75,94513.75,2
2025-08-19,94495.0,-746.75,93748.25,2
2025-08-20,94495.0,-951.75,93543.25,2
2025-08-21,94495.0,-1094.75,93400.25,2
2025-08-22,94495.0,-407.25,94087.75,3
2025-08-24,94495.0,-432.0,94063.0,3
2025-08-25,94495.0,-666.0,93829.0,3
2025-08-26,94495.0,-313.5,94181.5,3
2025-08-27,94495.0,-630.75,93864.25,3
2025-08-28,94495.0,89.25,94584.25,3
2025-08-29,94495.0,-811.25,93683.75,4
2025-08-31,94495.0,-477.25,94017.75,4
2025-09-01,94495.0,-847.25,93647.75,4
2025-09-02,94495.0,-1291.25,93203.75,4
2025-09-03,94495.0,-877.25,93617.75,4
2025-09-04,94495.0,195.75,94690.75,4
2025-09-05,94495.0,70.0,94565.0,5
2025-09-07,94495.0,593.75,95088.75,5
2025-09-08,94495.0,741.25,95236.25,5
2025-09-09,94495.0,1133.75,95628.75,5
2025-09-10,94495.0,1208.75,95703.75,5
2025-09-11,94495.0,1801.25,96296.25,5
2025-09-12,94495.0,2273.0,96768.0,6
2025-09-14,94495.0,2252.0,96747.0,6
2025-09-15,94495.0,3416.0,97911.0,6
2025-09-16,94495.0,4844.0,99339.0,6
2025-09-17,94495.0,5090.0,99585.0,6
2025-09-18,94495.0,6026.0,100521.0,6
2025-09-19,94495.0,6770.75,101265.75,7
2025-09-21,94495.0,6700.75,101195.75,7
2025-09-22,94495.0,7724.5,102219.5,7
2025-09-23,94495.0,6627.25,101122.25,7
2025-09-24,94495.0,6032.25,100527.25,7
2025-09-25,94495.0,5059.25,99554.25,7
2025-09-26,94495.0,5835.75,100330.75,8
2025-09-28,94495.0,6193.75,100688.75,8
2025-09-29,94495.0,6607.75,101102.75,8
2025-09-30,94495.0,6657.75,101152.75,8
2025-10-01,94495.0,8195.75,102690.75,8
2025-10-02,94495.0,9009.75,103504.75,8
2025-10-03,94495.0,7830.5,102325.5,9
2025-10-05,94495.0,8597.75,103092.75,9
2025-10-06,94495.0,9275.0,103770.0,9
2025-10-07,94495.0,8298.5,102793.5,9
2025-10-08,94495.0,11408.0,105903.0,9
2025-10-09,94495.0,11012.0,105507.0,9
2025-10-10,94495.0,691.25,95186.25,9
2025-10-12,97830.0,0.0,97830.0,0
2025-10-13,97830.0,0.0,97830.0,0
2025-10-14,97830.0,0.0,97830.0,0
2025-10-15,97830.0,0.0,97830.0,0
2025-10-16,97830.0,0.0,97830.0,0
2025-10-17,97830.0,0.0,97830.0,0
2025-10-19,97830.0,0.0,97830.0,0
2025-10-20,97830.0,0.0,97830.0,0
2025-10-21,97830.0,0.0,97830.0,0
2025-10-22,97830.0,0.0,97830.0,0
2025-10-23,97830.0,0.0,97830.0,0
2025-10-24,97830.0,0.0,97830.0,0
2025-10-26,97830.0,0.0,97830.0,0
2025-10-27,97830.0,277.75,98107.75,1
2025-10-28,97830.0,467.0,98297.0,1
2025-10-29,97830.0,518.75,98348.75,1
2025-10-30,97830.0,453.5,98283.5,1
2025-10-31,97830.0,192.5,98022.5,2
2025-11-02,97830.0,386.5,98216.5,2
2025-11-03,97830.0,363.0,98193.0,2
2025-11-04,97830.0,-767.5,97062.5,2
2025-11-05,97830.0,-229.0,97601.0,2
2025-11-06,97830.0,-1141.5,96688.5,2
2025-11-07,97830.0,-1320.5,96509.5,2
2025-11-09,97830.0,-1103.0,96727.0,2
2025-11-10,97830.0,-289.5,97540.5,2
2025-11-11,97830.0,-474.5,97355.5,2
2025-11-12,97830.0,-694.0,97136.0,2
2025-11-13,97830.0,-1559.0,96271.0,2
2025-11-14,96270.0,0.0,96270.0,0
2025-11-16,96270.0,0.0,96270.0,0
2025-11-17,96270.0,0.0,96270.0,0
2025-11-18,96270.0,0.0,96270.0,0
2025-11-19,96270.0,0.0,96270.0,0
2025-11-20,96270.0,0.0,96270.0,0
2025-11-21,96270.0,0.0,96270.0,0
2025-11-23,96270.0,0.0,96270.0,0
2025-11-24,96270.0,0.0,96270.0,0
2025-11-25,96270.0,0.0,96270.0,0
2025-11-26,96270.0,0.0,96270.0,0
2025-11-27,96270.0,0.0,96270.0,0
2025-11-28,96270.0,0.0,96270.0,0
2025-11-30,96270.0,0.0,96270.0,0
2025-12-01,96270.0,0.0,96270.0,0
2025-12-02,96270.0,0.0,96270.0,0
2025-12-03,96270.0,0.0,96270.0,0
2025-12-04,96270.0,0.0,96270.0,0
2025-12-05,96270.0,0.0,96270.0,0
2025-12-07,96270.0,0.0,96270.0,0
2025-12-08,96270.0,0.0,96270.0,0
2025-12-09,96270.0,0.0,96270.0,0
2025-12-10,96270.0,0.0,96270.0,0
2025-12-11,96270.0,0.0,96270.0,0
2025-12-12,96270.0,0.0,96270.0,0
2025-12-14,96270.0,0.0,96270.0,0
2025-12-15,96270.0,0.0,96270.0,0
2025-12-16,96270.0,0.0,96270.0,0
2025-12-17,96270.0,0.0,96270.0,0
2025-12-18,96270.0,0.0,96270.0,0
2025-12-19,96270.0,0.0,96270.0,0
2025-12-21,96270.0,0.0,96270.0,0
2025-12-22,96270.0,0.0,96270.0,0
2025-12-23,96270.0,0.0,96270.0,0
2025-12-24,96270.0,0.0,96270.0,0
2025-12-25,96270.0,17.25,96287.25,1
2025-12-26,96270.0,-30.25,96239.75,2
2025-12-28,96270.0,-4.25,96265.75,2
2025-12-29,96270.0,-330.25,95939.75,2
2025-12-30,96270.0,-430.75,95839.25,2
2025-12-31,96270.0,-875.25,95394.75,2
2026-01-01,96270.0,-750.25,95519.75,2
2026-01-02,96270.0,-942.5,95327.5,3
2026-01-04,96270.0,-750.5,95519.5,3
2026-01-05,96270.0,-425.75,95844.25,3
2026-01-06,96270.0,351.25,96621.25,3
2026-01-07,96270.0,346.75,96616.75,3
2026-01-08,96270.0,-96.5,96173.5,3
2026-01-09,96270.0,640.75,96910.75,4
2026-01-11,96270.0,490.75,96760.75,4
2026-01-12,96270.0,497.75,96767.75,4
2026-01-13,96270.0,478.75,96748.75,4
2026-01-14,96270.0,-663.25,95606.75,4
2026-01-15,96270.0,-119.25,96150.75,4
2026-01-16,96270.0,-379.25,95890.75,5
2026-01-18,96270.0,-1453.0,94817.0,5
2026-01-19,96270.0,-1895.5,94374.5,5
2026-01-20,96270.0,-3206.75,93063.25,5
2026-01-21,93065.75,0.0,93065.75,0
2026-01-22,93065.75,0.0,93065.75,0
2026-01-23,93065.75,0.0,93065.75,0
2026-01-25,93065.75,0.0,93065.75,0
2026-01-26,93065.75,0.0,93065.75,0
2026-01-27,93065.75,0.0,93065.75,0
2026-01-28,93065.75,32.0,93097.75,1
2026-01-29,93065.75,-166.0,92899.75,1
2026-01-30,93065.75,-575.0,92490.75,2
2026-02-01,93065.75,-785.5,92280.25,2
2026-02-02,93065.75,43.5,93109.25,2
2026-02-03,93065.75,-997.0,92068.75,2
2026-02-04,93065.75,-1717.0,91348.75,2
2026-02-05,91350.25,0.0,91350.25,0
2026-02-06,91350.25,0.0,91350.25,0
2026-02-08,91350.25,0.0,91350.25,0
2026-02-09,91350.25,0.0,91350.25,0
2026-02-10,91350.25,0.0,91350.25,0
2026-02-11,91350.25,0.0,91350.25,0
2026-02-12,91350.25,0.0,91350.25,0
2026-02-13,91350.25,0.0,91350.25,0
2026-02-15,91350.25,0.0,91350.25,0
2026-02-16,91350.25,0.0,91350.25,0
2026-02-17,91350.25,0.0,91350.25,0
2026-02-18,91350.25,0.0,91350.25,0
2026-02-19,91350.25,0.0,91350.25,0
2026-02-20,91350.25,0.0,91350.25,0
2026-02-22,91350.25,0.0,91350.25,0
2026-02-23,91350.25,0.0,91350.25,0
2026-02-24,91350.25,0.0,91350.25,0
2026-02-25,91350.25,0.0,91350.25,0
2026-02-26,91350.25,0.0,91350.25,0
2026-02-27,91350.25,0.0,91350.25,0
2026-03-01,91350.25,0.0,91350.25,0
2026-03-02,91350.25,0.0,91350.25,0
2026-03-03,91350.25,0.0,91350.25,0
2026-03-04,91350.25,0.0,91350.25,0
2026-03-05,91350.25,0.0,91350.25,0
2026-03-06,91350.25,0.0,91350.25,0
2026-03-08,91350.25,0.0,91350.25,0
